channel0,channel1,channel2,channel3,channel4,channel5,channel6,channel7,channel8,channel9,true_locs
6.0,-1.0,-2.0,4.0,3.0,22.0,4.0,22.0,16.0,13.0,0.0
1.0,21.0,0.0,3.0,-2.0,22.0,1.0,16.0,29.0,9.0,0.0
15.0,37.0,0.0,1.0,1.0,15.0,-7.0,18.0,23.0,4.0,0.0
27.0,36.0,-5.0,-4.0,6.0,7.0,-6.0,0.0,21.0,-2.0,0.0
30.0,44.0,0.0,-5.0,9.0,1.0,-4.0,-3.0,21.0,5.0,0.0
16.0,48.0,5.0,-4.0,18.0,19.0,20.0,6.0,24.0,18.0,0.0
4.0,33.0,-3.0,3.0,15.0,20.0,11.0,7.0,10.0,13.0,0.0
10.0,23.0,-9.0,-11.0,4.0,12.0,-12.0,4.0,2.0,3.0,0.0
11.0,24.0,-1.0,0.0,4.0,5.0,-22.0,14.0,0.0,0.0,0.0
10.0,16.0,-9.0,-4.0,-6.0,3.0,-17.0,12.0,5.0,7.0,0.0
0.0,8.0,-11.0,-4.0,0.0,-2.0,-1.0,12.0,10.0,15.0,0.0
3.0,10.0,-12.0,-4.0,3.0,5.0,4.0,5.0,15.0,7.0,0.0
19.0,20.0,-13.0,-6.0,0.0,5.0,1.0,-1.0,3.0,9.0,0.0
33.0,43.0,-4.0,0.0,0.0,8.0,-3.0,-9.0,0.0,-2.0,0.0
25.0,41.0,-4.0,17.0,-2.0,14.0,-6.0,-21.0,-4.0,-6.0,0.0
10.0,22.0,-17.0,24.0,-2.0,5.0,-4.0,-17.0,-7.0,-10.0,0.0
4.0,7.0,-20.0,20.0,1.0,-5.0,10.0,-11.0,0.0,-20.0,0.0
4.0,1.0,-28.0,13.0,6.0,4.0,18.0,-7.0,1.0,-24.0,0.0
-7.0,-9.0,-28.0,-14.0,6.0,14.0,15.0,-10.0,-2.0,-18.0,0.0
-5.0,-5.0,-11.0,-22.0,5.0,9.0,-8.0,-2.0,-12.0,-14.0,0.0
-3.0,15.0,17.0,-20.0,8.0,1.0,-5.0,3.0,-28.0,-15.0,0.0
-2.0,31.0,25.0,-26.0,1.0,0.0,2.0,9.0,-22.0,-17.0,0.0
-10.0,13.0,9.0,-21.0,2.0,3.0,9.0,17.0,-5.0,-24.0,0.0
-10.0,-7.0,-4.0,-5.0,-6.0,3.0,15.0,9.0,-16.0,-12.0,0.0
-7.0,-12.0,-4.0,0.0,-15.0,14.0,21.0,16.0,-20.0,0.0,0.0
0.0,0.0,2.0,3.0,-11.0,33.0,20.0,15.0,-11.0,1.0,0.0
0.0,8.0,2.0,2.0,-8.0,32.0,12.0,12.0,-17.0,4.0,0.0
-2.0,12.0,5.0,3.0,-6.0,22.0,5.0,6.0,-14.0,21.0,0.0
-6.0,6.0,7.0,10.0,-10.0,16.0,0.0,-3.0,-12.0,20.0,0.0
-22.0,3.0,-2.0,12.0,-9.0,8.0,-1.0,-9.0,-19.0,9.0,0.0
-25.0,1.0,-5.0,8.0,-2.0,9.0,0.0,-17.0,-8.0,3.0,0.0
-14.0,4.0,0.0,12.0,-1.0,13.0,1.0,-16.0,-9.0,2.0,0.0
-6.0,7.0,3.0,14.0,-4.0,15.0,0.0,-13.0,-23.0,4.0,0.0
-6.0,3.0,8.0,12.0,-7.0,15.0,5.0,-11.0,-36.0,1.0,0.0
-6.0,1.0,0.0,14.0,-10.0,25.0,36.0,2.0,-22.0,1.0,0.0
-6.0,8.0,0.0,10.0,-12.0,43.0,34.0,8.0,-4.0,-18.0,0.0
0.0,-1.0,12.0,12.0,1.0,25.0,-10.0,0.0,-10.0,-20.0,0.0
1.0,-1.0,17.0,6.0,5.0,11.0,-19.0,10.0,-2.0,-14.0,0.0
2.0,12.0,13.0,1.0,2.0,4.0,0.0,11.0,-8.0,-30.0,0.0
9.0,19.0,15.0,4.0,-3.0,2.0,-2.0,7.0,-3.0,-17.0,0.0
8.0,20.0,0.0,0.0,-10.0,6.0,-19.0,-4.0,7.0,-8.0,0.0
12.0,6.0,-5.0,-7.0,-16.0,0.0,-27.0,-7.0,0.0,-17.0,0.0
17.0,4.0,-15.0,13.0,-16.0,0.0,-29.0,-7.0,-6.0,-14.0,0.0
7.0,7.0,-18.0,20.0,-13.0,0.0,-30.0,10.0,2.0,-6.0,0.0
3.0,7.0,-9.0,0.0,-20.0,13.0,-37.0,18.0,8.0,-8.0,0.0
-3.0,1.0,-7.0,-23.0,-21.0,15.0,-30.0,18.0,6.0,-16.0,0.0
-16.0,-5.0,-3.0,-23.0,-11.0,8.0,-18.0,28.0,10.0,-25.0,0.0
-22.0,-20.0,-13.0,-15.0,-5.0,3.0,-2.0,38.0,21.0,-25.0,0.0
-16.0,-22.0,-10.0,-13.0,-3.0,8.0,14.0,41.0,22.0,-23.0,0.0
-23.0,-20.0,-12.0,-13.0,-9.0,12.0,14.0,34.0,12.0,-18.0,0.0
-30.0,-29.0,-12.0,-14.0,-9.0,6.0,10.0,22.0,3.0,-25.0,0.0
-29.0,-38.0,-21.0,2.0,-3.0,2.0,28.0,32.0,-4.0,-14.0,0.0
-30.0,-46.0,-25.0,0.0,-4.0,-6.0,31.0,25.0,1.0,-17.0,0.0
-25.0,-49.0,-13.0,-1.0,-8.0,-12.0,12.0,16.0,7.0,-26.0,0.0
-18.0,-22.0,-2.0,-9.0,-2.0,-12.0,-4.0,14.0,-3.0,-5.0,0.0
-13.0,3.0,0.0,-18.0,4.0,-3.0,10.0,12.0,-13.0,1.0,0.0
-11.0,12.0,-3.0,-15.0,3.0,-2.0,37.0,10.0,-2.0,-3.0,0.0
-1.0,13.0,8.0,-16.0,0.0,0.0,12.0,13.0,10.0,-3.0,0.0
0.0,9.0,8.0,-19.0,6.0,5.0,-2.0,19.0,12.0,18.0,0.0
0.0,-6.0,9.0,-18.0,-2.0,9.0,0.0,17.0,7.0,24.0,0.0
-6.0,-1.0,0.0,-18.0,-12.0,10.0,-1.0,21.0,-1.0,25.0,0.0
-7.0,-9.0,2.0,-15.0,-20.0,2.0,0.0,13.0,1.0,19.0,0.0
-6.0,-12.0,14.0,-14.0,-11.0,-7.0,-8.0,-2.0,1.0,7.0,0.0
-8.0,0.0,13.0,-8.0,-6.0,-14.0,-7.0,-11.0,-9.0,6.0,0.0
1.0,11.0,22.0,-11.0,-6.0,-20.0,0.0,-9.0,-2.0,5.0,0.0
4.0,13.0,35.0,-12.0,-6.0,-25.0,0.0,-18.0,3.0,6.0,0.0
17.0,8.0,42.0,-13.0,-6.0,-11.0,1.0,-17.0,-4.0,7.0,0.0
19.0,9.0,48.0,-22.0,3.0,-3.0,-5.0,-19.0,-14.0,0.0,0.0
22.0,16.0,42.0,-18.0,-7.0,-9.0,-11.0,-18.0,-1.0,-6.0,0.0
14.0,22.0,27.0,-14.0,-16.0,-13.0,1.0,-5.0,4.0,1.0,0.0
0.0,-2.0,24.0,-26.0,-6.0,-12.0,14.0,3.0,-4.0,-3.0,0.0
-7.0,-26.0,7.0,-32.0,4.0,-14.0,3.0,0.0,3.0,-21.0,0.0
-1.0,-17.0,-5.0,-29.0,-1.0,-19.0,-17.0,-1.0,13.0,-25.0,0.0
3.0,0.0,-13.0,-23.0,-2.0,-22.0,-33.0,-2.0,11.0,-17.0,0.0
6.0,14.0,-3.0,-23.0,-13.0,-27.0,-41.0,-13.0,3.0,-18.0,0.0
13.0,13.0,18.0,-6.0,-24.0,-35.0,-37.0,-27.0,-18.0,-13.0,0.0
18.0,-2.0,34.0,13.0,-18.0,-30.0,-26.0,-27.0,-7.0,-12.0,0.0
4.0,-29.0,14.0,26.0,-6.0,-11.0,-16.0,-4.0,4.0,-17.0,0.0
-10.0,-50.0,-3.0,30.0,-1.0,5.0,15.0,1.0,2.0,-28.0,0.0
-21.0,-49.0,-7.0,48.0,8.0,18.0,31.0,-1.0,-4.0,-39.0,0.0
-20.0,-44.0,-6.0,52.0,8.0,29.0,21.0,0.0,-1.0,-38.0,0.0
-6.0,-37.0,-15.0,39.0,-2.0,12.0,17.0,6.0,17.0,-20.0,0.0
-6.0,-37.0,-27.0,9.0,-10.0,5.0,25.0,5.0,31.0,-12.0,0.0
-3.0,-38.0,-39.0,2.0,-21.0,13.0,27.0,-1.0,29.0,-10.0,0.0
-7.0,-39.0,-30.0,-5.0,-24.0,11.0,19.0,3.0,21.0,-15.0,0.0
-6.0,-30.0,-28.0,-7.0,-25.0,7.0,29.0,3.0,10.0,-9.0,0.0
5.0,-11.0,-30.0,-20.0,-33.0,3.0,31.0,4.0,7.0,-9.0,0.0
10.0,1.0,-14.0,-14.0,-29.0,-6.0,14.0,-2.0,12.0,-13.0,0.0
1.0,0.0,4.0,-8.0,-20.0,-13.0,12.0,-3.0,15.0,7.0,0.0
0.0,-9.0,7.0,4.0,-19.0,-7.0,15.0,5.0,24.0,12.0,0.0
0.0,-27.0,9.0,14.0,-19.0,-9.0,9.0,6.0,18.0,11.0,0.0
0.0,-25.0,0.0,25.0,-16.0,-12.0,13.0,9.0,18.0,1.0,0.0
2.0,-8.0,2.0,20.0,-13.0,-12.0,11.0,10.0,27.0,-11.0,0.0
-10.0,-4.0,23.0,-8.0,-14.0,-5.0,4.0,15.0,22.0,-2.0,0.0
-10.0,-6.0,29.0,-18.0,-11.0,7.0,4.0,13.0,9.0,12.0,0.0
-9.0,-6.0,20.0,-29.0,-8.0,1.0,-2.0,9.0,2.0,7.0,0.0
-16.0,3.0,22.0,-25.0,1.0,-4.0,-1.0,7.0,4.0,3.0,0.0
-1.0,13.0,18.0,-21.0,-6.0,-6.0,3.0,2.0,8.0,7.0,0.0
13.0,14.0,4.0,-25.0,-4.0,-8.0,-2.0,4.0,4.0,6.0,0.0
0.0,-3.0,-7.0,-24.0,8.0,-5.0,-11.0,6.0,1.0,0.0,0.0
-1.0,-24.0,-11.0,-23.0,8.0,-9.0,-6.0,-5.0,1.0,4.0,1.0
3.0,-33.0,-1.0,-9.0,-2.0,-8.0,6.0,0.0,7.0,5.0,1.0
8.0,-30.0,4.0,3.0,-7.0,-8.0,-2.0,0.0,11.0,9.0,1.0
10.0,-29.0,12.0,-6.0,-2.0,-12.0,-10.0,-6.0,9.0,20.0,1.0
19.0,-16.0,29.0,-18.0,0.0,-11.0,-7.0,-5.0,9.0,27.0,1.0
26.0,3.0,29.0,-29.0,-5.0,-5.0,6.0,0.0,16.0,26.0,1.0
32.0,16.0,19.0,-23.0,-11.0,-5.0,1.0,9.0,15.0,27.0,1.0
26.0,14.0,8.0,-1.0,-5.0,-5.0,-12.0,1.0,7.0,35.0,1.0
7.0,9.0,9.0,9.0,4.0,-4.0,-10.0,2.0,-2.0,36.0,1.0
-1.0,0.0,6.0,0.0,14.0,0.0,-7.0,2.0,-2.0,34.0,1.0
-11.0,-4.0,6.0,-17.0,13.0,15.0,9.0,3.0,1.0,35.0,1.0
-19.0,-3.0,3.0,-10.0,2.0,9.0,16.0,12.0,6.0,30.0,1.0
-7.0,-8.0,12.0,-9.0,-4.0,0.0,17.0,13.0,1.0,22.0,1.0
-3.0,-15.0,18.0,-12.0,-9.0,-8.0,10.0,10.0,-4.0,22.0,1.0
-2.0,9.0,13.0,-15.0,-3.0,-13.0,6.0,0.0,-4.0,24.0,1.0
2.0,34.0,19.0,-12.0,-9.0,-24.0,-12.0,-11.0,-6.0,22.0,1.0
4.0,26.0,12.0,0.0,-15.0,-36.0,-27.0,-10.0,-13.0,18.0,1.0
12.0,13.0,12.0,5.0,-5.0,-35.0,-24.0,-5.0,-1.0,16.0,1.0
6.0,4.0,6.0,18.0,3.0,-12.0,-7.0,-5.0,6.0,14.0,0.0
-2.0,-8.0,0.0,33.0,7.0,4.0,4.0,-2.0,3.0,19.0,0.0
9.0,3.0,-4.0,16.0,2.0,-4.0,-4.0,-11.0,-10.0,19.0,0.0
12.0,37.0,24.0,6.0,-1.0,-18.0,-16.0,-28.0,-18.0,18.0,0.0
8.0,58.0,48.0,-2.0,-12.0,-26.0,-27.0,-27.0,-10.0,13.0,0.0
3.0,52.0,51.0,-6.0,-15.0,-20.0,-26.0,-6.0,-12.0,7.0,0.0
5.0,35.0,53.0,0.0,-9.0,-11.0,-29.0,-4.0,-12.0,-2.0,0.0
-4.0,16.0,39.0,12.0,2.0,-1.0,-14.0,-3.0,-13.0,-15.0,0.0
-23.0,-5.0,12.0,5.0,6.0,0.0,4.0,9.0,-12.0,-11.0,0.0
-25.0,-22.0,-16.0,0.0,0.0,12.0,8.0,10.0,-4.0,-18.0,0.0
-33.0,-30.0,-30.0,18.0,3.0,18.0,6.0,13.0,-7.0,-24.0,0.0
-31.0,-22.0,-21.0,22.0,15.0,10.0,14.0,8.0,-17.0,-28.0,0.0
-30.0,-8.0,-5.0,15.0,4.0,0.0,22.0,7.0,-5.0,-24.0,0.0
-7.0,-4.0,-12.0,-1.0,-3.0,-3.0,22.0,13.0,16.0,-1.0,0.0
8.0,-6.0,-25.0,-10.0,0.0,-5.0,8.0,8.0,16.0,11.0,0.0
14.0,-5.0,-37.0,-8.0,-3.0,-15.0,6.0,7.0,0.0,1.0,0.0
17.0,-12.0,-32.0,-24.0,-16.0,-27.0,8.0,0.0,-6.0,-7.0,0.0
23.0,-2.0,-13.0,-21.0,-15.0,-21.0,0.0,-8.0,-9.0,1.0,0.0
25.0,-1.0,-5.0,0.0,-6.0,-10.0,-8.0,-21.0,-17.0,11.0,0.0
15.0,-6.0,-7.0,5.0,1.0,-15.0,-7.0,-29.0,-22.0,9.0,0.0
-1.0,-20.0,-23.0,16.0,4.0,-10.0,13.0,-8.0,-16.0,9.0,0.0
-5.0,-1.0,-23.0,16.0,10.0,18.0,19.0,10.0,-2.0,7.0,0.0
2.0,0.0,-19.0,-12.0,13.0,19.0,8.0,8.0,3.0,7.0,0.0
-5.0,-20.0,-11.0,-22.0,11.0,9.0,-2.0,1.0,5.0,2.0,0.0
-15.0,-17.0,-1.0,-12.0,14.0,7.0,12.0,-6.0,4.0,-7.0,0.0
-14.0,-13.0,0.0,3.0,21.0,19.0,19.0,-3.0,3.0,-20.0,0.0
-3.0,-16.0,-13.0,11.0,9.0,10.0,13.0,-5.0,-3.0,-21.0,0.0
0.0,-11.0,-22.0,7.0,0.0,11.0,11.0,-2.0,-12.0,3.0,0.0
10.0,-2.0,-25.0,3.0,1.0,2.0,5.0,-7.0,-4.0,20.0,0.0
14.0,6.0,-10.0,0.0,7.0,-5.0,-6.0,-4.0,2.0,28.0,0.0
10.0,14.0,-13.0,-6.0,7.0,-10.0,-20.0,-1.0,0.0,24.0,0.0
4.0,5.0,-2.0,-3.0,6.0,-7.0,-22.0,2.0,-9.0,13.0,0.0
-1.0,13.0,-1.0,-3.0,6.0,-2.0,-12.0,-2.0,-16.0,4.0,0.0
-4.0,17.0,3.0,4.0,17.0,0.0,0.0,-2.0,-4.0,-7.0,0.0
-11.0,-6.0,10.0,0.0,21.0,1.0,4.0,0.0,1.0,-22.0,0.0
-7.0,-19.0,12.0,-5.0,14.0,3.0,-9.0,-4.0,-3.0,-13.0,0.0
2.0,-5.0,7.0,-2.0,13.0,19.0,-20.0,6.0,-13.0,-3.0,0.0
14.0,3.0,9.0,0.0,18.0,20.0,-25.0,13.0,-6.0,0.0,0.0
18.0,-4.0,8.0,0.0,32.0,6.0,-9.0,-2.0,2.0,0.0,0.0
22.0,-3.0,6.0,15.0,25.0,1.0,3.0,-11.0,9.0,1.0,0.0
23.0,9.0,6.0,18.0,11.0,-1.0,-4.0,-14.0,3.0,18.0,0.0
17.0,12.0,10.0,25.0,11.0,-4.0,-6.0,-6.0,-1.0,17.0,0.0
9.0,13.0,22.0,19.0,9.0,2.0,6.0,-5.0,0.0,15.0,0.0
3.0,19.0,12.0,16.0,13.0,10.0,21.0,-3.0,-1.0,-3.0,0.0
-4.0,4.0,2.0,9.0,6.0,17.0,13.0,0.0,6.0,-18.0,0.0
-6.0,1.0,1.0,6.0,5.0,5.0,0.0,-8.0,11.0,-3.0,0.0
-3.0,8.0,16.0,4.0,0.0,8.0,-6.0,-3.0,10.0,19.0,0.0
-3.0,18.0,25.0,0.0,-6.0,7.0,18.0,-9.0,7.0,18.0,0.0
1.0,10.0,13.0,-5.0,-4.0,0.0,23.0,-2.0,5.0,10.0,0.0
1.0,3.0,-6.0,-2.0,-1.0,0.0,4.0,-10.0,10.0,10.0,0.0
2.0,7.0,5.0,2.0,4.0,14.0,4.0,-12.0,15.0,18.0,0.0
7.0,1.0,10.0,0.0,8.0,16.0,22.0,-4.0,18.0,19.0,0.0
2.0,-14.0,6.0,-7.0,6.0,9.0,15.0,-10.0,10.0,13.0,0.0
-1.0,-13.0,2.0,-11.0,-4.0,9.0,-4.0,-16.0,4.0,11.0,0.0
0.0,0.0,5.0,2.0,-9.0,6.0,-7.0,-18.0,4.0,7.0,0.0
15.0,7.0,7.0,-1.0,-11.0,1.0,3.0,-20.0,-5.0,3.0,0.0
20.0,11.0,-6.0,-13.0,-7.0,-5.0,3.0,-15.0,-10.0,4.0,0.0
13.0,1.0,-15.0,-17.0,-8.0,-4.0,-5.0,-21.0,-7.0,6.0,0.0
10.0,-4.0,-7.0,-14.0,-8.0,-7.0,-9.0,-29.0,-5.0,7.0,0.0
14.0,1.0,-7.0,-12.0,-4.0,-3.0,-5.0,-21.0,-5.0,18.0,0.0
24.0,-9.0,-12.0,-22.0,-8.0,-2.0,0.0,-19.0,-5.0,16.0,0.0
26.0,-6.0,-11.0,-30.0,-11.0,5.0,1.0,-22.0,5.0,16.0,0.0
39.0,-2.0,-5.0,-25.0,-16.0,9.0,-5.0,-22.0,15.0,15.0,0.0
29.0,5.0,1.0,-25.0,-14.0,10.0,-5.0,-17.0,1.0,14.0,0.0
15.0,3.0,-13.0,-28.0,-7.0,4.0,5.0,-11.0,-7.0,8.0,0.0
12.0,3.0,-18.0,-31.0,2.0,-1.0,6.0,8.0,-10.0,8.0,0.0
8.0,-5.0,-8.0,-23.0,11.0,-7.0,-8.0,15.0,-13.0,15.0,0.0
3.0,-8.0,-8.0,-25.0,9.0,-22.0,0.0,14.0,-12.0,6.0,0.0
8.0,8.0,-2.0,-17.0,9.0,-38.0,7.0,12.0,-7.0,-9.0,0.0
14.0,12.0,-1.0,-7.0,16.0,-38.0,0.0,19.0,-16.0,-8.0,0.0
13.0,21.0,-10.0,-1.0,22.0,-23.0,-1.0,17.0,-16.0,-3.0,0.0
4.0,9.0,-9.0,-5.0,22.0,-15.0,-2.0,13.0,-18.0,2.0,0.0
-3.0,10.0,0.0,5.0,13.0,-12.0,-5.0,6.0,-13.0,-8.0,0.0
-7.0,5.0,0.0,3.0,2.0,-9.0,13.0,13.0,-1.0,-10.0,0.0
-7.0,8.0,-7.0,-2.0,1.0,-6.0,17.0,21.0,8.0,-6.0,0.0
-13.0,0.0,-9.0,-13.0,3.0,-8.0,14.0,21.0,22.0,-17.0,0.0
-4.0,10.0,3.0,-10.0,-1.0,-9.0,16.0,27.0,17.0,-18.0,0.0
9.0,18.0,-4.0,-12.0,0.0,-11.0,13.0,20.0,16.0,-8.0,0.0
12.0,24.0,1.0,-13.0,0.0,-17.0,11.0,11.0,15.0,3.0,0.0
10.0,23.0,0.0,-10.0,3.0,-23.0,22.0,11.0,8.0,5.0,0.0
6.0,30.0,-13.0,2.0,3.0,-16.0,19.0,7.0,6.0,1.0,0.0
9.0,19.0,-17.0,0.0,-11.0,-12.0,10.0,6.0,9.0,4.0,0.0
8.0,8.0,-22.0,1.0,-23.0,0.0,13.0,7.0,16.0,6.0,0.0
1.0,0.0,-24.0,-13.0,-25.0,6.0,14.0,18.0,17.0,1.0,0.0
-13.0,0.0,-27.0,-16.0,-16.0,-1.0,8.0,30.0,16.0,-5.0,0.0
-2.0,12.0,-23.0,-14.0,-6.0,-1.0,22.0,33.0,13.0,-6.0,0.0
-5.0,24.0,-24.0,-17.0,-5.0,0.0,27.0,17.0,6.0,-9.0,0.0
0.0,24.0,-21.0,-10.0,-12.0,0.0,14.0,11.0,-12.0,-6.0,0.0
16.0,32.0,-2.0,13.0,-5.0,3.0,17.0,2.0,-19.0,7.0,0.0
11.0,34.0,0.0,18.0,8.0,9.0,5.0,-9.0,-13.0,10.0,0.0
-5.0,18.0,-3.0,25.0,12.0,8.0,0.0,-8.0,-17.0,-2.0,0.0
-5.0,4.0,-13.0,26.0,8.0,7.0,7.0,-16.0,-19.0,0.0,0.0
-4.0,-3.0,-11.0,22.0,1.0,10.0,9.0,-13.0,-19.0,15.0,0.0
2.0,1.0,-7.0,13.0,-7.0,6.0,-9.0,-16.0,-19.0,21.0,0.0
9.0,27.0,-12.0,8.0,-14.0,2.0,-4.0,-25.0,-15.0,10.0,0.0
19.0,38.0,-4.0,8.0,-19.0,-6.0,1.0,-29.0,-17.0,10.0,0.0
30.0,24.0,0.0,4.0,-13.0,-7.0,-5.0,-21.0,-7.0,14.0,0.0
20.0,14.0,-4.0,-1.0,-7.0,4.0,-7.0,-16.0,-7.0,2.0,0.0
24.0,-1.0,-7.0,1.0,-3.0,10.0,9.0,-2.0,-5.0,1.0,0.0
19.0,-14.0,-20.0,13.0,5.0,9.0,17.0,2.0,4.0,1.0,0.0
2.0,-15.0,-14.0,26.0,12.0,8.0,8.0,5.0,-5.0,0.0,0.0
0.0,-13.0,-4.0,37.0,1.0,15.0,-3.0,3.0,-4.0,8.0,0.0
2.0,-11.0,-10.0,22.0,1.0,22.0,-9.0,5.0,-3.0,20.0,0.0
1.0,-22.0,-27.0,10.0,6.0,15.0,-8.0,-1.0,-4.0,11.0,0.0
-14.0,-20.0,-22.0,4.0,15.0,16.0,-1.0,6.0,2.0,-4.0,0.0
-22.0,-21.0,-4.0,10.0,11.0,14.0,6.0,13.0,12.0,-12.0,0.0
-28.0,-29.0,0.0,21.0,24.0,23.0,7.0,20.0,10.0,-10.0,0.0
-38.0,-30.0,1.0,29.0,25.0,22.0,7.0,23.0,0.0,-3.0,0.0
-42.0,-43.0,6.0,17.0,20.0,25.0,28.0,18.0,4.0,-10.0,0.0
-34.0,-45.0,4.0,0.0,9.0,20.0,18.0,10.0,8.0,-21.0,0.0
-30.0,-21.0,7.0,1.0,11.0,18.0,16.0,12.0,11.0,-20.0,0.0
-11.0,1.0,14.0,-7.0,2.0,14.0,2.0,4.0,7.0,-13.0,0.0
3.0,28.0,16.0,-12.0,-13.0,7.0,-20.0,-4.0,-10.0,1.0,0.0
16.0,41.0,11.0,2.0,-20.0,-3.0,-12.0,-11.0,0.0,16.0,0.0
11.0,36.0,9.0,7.0,-23.0,-1.0,13.0,2.0,9.0,15.0,0.0
6.0,19.0,6.0,21.0,-10.0,4.0,14.0,15.0,14.0,18.0,0.0
3.0,4.0,11.0,31.0,7.0,-1.0,13.0,23.0,18.0,-1.0,0.0
-13.0,0.0,8.0,23.0,0.0,-9.0,11.0,22.0,23.0,-9.0,0.0
-16.0,12.0,11.0,28.0,-6.0,-3.0,5.0,20.0,28.0,0.0,0.0
-15.0,19.0,20.0,32.0,-9.0,-3.0,3.0,11.0,31.0,0.0,0.0
-9.0,4.0,11.0,29.0,-5.0,-1.0,-3.0,7.0,20.0,-7.0,0.0
-6.0,-1.0,15.0,27.0,0.0,1.0,-16.0,5.0,13.0,-15.0,0.0
-9.0,2.0,20.0,22.0,0.0,-3.0,-1.0,-10.0,10.0,-15.0,0.0
-4.0,8.0,39.0,23.0,6.0,-11.0,1.0,-9.0,7.0,-10.0,0.0
1.0,12.0,46.0,10.0,5.0,-5.0,-8.0,-6.0,3.0,-7.0,0.0
4.0,8.0,18.0,6.0,-7.0,4.0,-6.0,-4.0,0.0,-2.0,0.0
12.0,0.0,-5.0,2.0,-8.0,-4.0,1.0,3.0,-4.0,4.0,0.0
11.0,-8.0,-19.0,-5.0,-19.0,-10.0,9.0,9.0,-15.0,16.0,0.0
6.0,-14.0,-31.0,-11.0,-22.0,-11.0,-2.0,4.0,-21.0,29.0,0.0
9.0,-11.0,-50.0,-11.0,-15.0,-9.0,-3.0,1.0,-11.0,29.0,0.0
8.0,-3.0,-32.0,-11.0,-11.0,-2.0,2.0,1.0,-3.0,27.0,0.0
-2.0,-1.0,-26.0,-12.0,-10.0,9.0,0.0,10.0,-4.0,28.0,0.0
-9.0,-7.0,-32.0,-14.0,-10.0,15.0,7.0,17.0,-1.0,26.0,0.0
-10.0,-12.0,-32.0,-4.0,-8.0,22.0,10.0,19.0,-1.0,21.0,0.0
-13.0,-3.0,-11.0,12.0,-11.0,11.0,0.0,13.0,-1.0,8.0,0.0
-16.0,5.0,0.0,14.0,-7.0,-2.0,13.0,3.0,-11.0,-7.0,0.0
-16.0,8.0,15.0,17.0,6.0,-7.0,5.0,-5.0,-11.0,-15.0,0.0
-19.0,15.0,22.0,18.0,10.0,-6.0,-6.0,-8.0,-15.0,-21.0,0.0
-14.0,13.0,0.0,-13.0,0.0,-6.0,-3.0,-13.0,-25.0,-18.0,0.0
-3.0,6.0,-11.0,-25.0,-10.0,7.0,2.0,-12.0,-21.0,-11.0,0.0
0.0,-9.0,-17.0,-26.0,-6.0,0.0,-5.0,-2.0,-8.0,-20.0,0.0
-4.0,-10.0,-5.0,-19.0,-4.0,-2.0,-8.0,-8.0,-2.0,-27.0,0.0
-2.0,-5.0,16.0,-7.0,-1.0,-5.0,-15.0,-12.0,-17.0,-32.0,0.0
4.0,0.0,47.0,-11.0,9.0,-5.0,-27.0,-8.0,-17.0,-29.0,0.0
11.0,3.0,41.0,-16.0,12.0,-1.0,-23.0,-5.0,-14.0,-25.0,0.0
15.0,8.0,28.0,-14.0,1.0,-7.0,-10.0,-9.0,-16.0,-11.0,0.0
16.0,-5.0,14.0,-6.0,-4.0,-15.0,-11.0,-11.0,-3.0,6.0,0.0
24.0,-10.0,5.0,9.0,-13.0,-3.0,-13.0,-10.0,3.0,14.0,0.0
28.0,-18.0,-2.0,22.0,-9.0,12.0,-14.0,-17.0,4.0,7.0,0.0
23.0,-41.0,-17.0,29.0,2.0,5.0,0.0,-6.0,-11.0,-9.0,0.0
15.0,-45.0,-16.0,29.0,9.0,-2.0,2.0,-5.0,-11.0,-16.0,0.0
9.0,-44.0,-21.0,12.0,4.0,-2.0,-8.0,-5.0,0.0,-11.0,0.0
20.0,-26.0,-36.0,2.0,-10.0,-3.0,-11.0,-5.0,7.0,-8.0,0.0
15.0,-21.0,-30.0,-3.0,-13.0,-5.0,0.0,-4.0,15.0,-1.0,0.0
17.0,-19.0,-22.0,2.0,-20.0,-4.0,-4.0,-9.0,13.0,-15.0,0.0
6.0,-14.0,-9.0,9.0,-20.0,3.0,-21.0,-8.0,-1.0,-16.0,0.0
0.0,1.0,-5.0,20.0,-1.0,8.0,-30.0,7.0,-3.0,-1.0,0.0
0.0,18.0,-4.0,33.0,4.0,14.0,-29.0,4.0,2.0,-2.0,0.0
-9.0,10.0,-5.0,37.0,3.0,18.0,-18.0,-22.0,12.0,-8.0,0.0
-13.0,12.0,1.0,37.0,12.0,20.0,-7.0,-22.0,15.0,-19.0,0.0
-9.0,16.0,16.0,35.0,16.0,11.0,-20.0,-8.0,8.0,-11.0,0.0
-3.0,21.0,19.0,37.0,10.0,1.0,-28.0,-8.0,6.0,-17.0,0.0
-9.0,19.0,4.0,33.0,7.0,14.0,-25.0,-4.0,4.0,-30.0,0.0
-12.0,22.0,8.0,26.0,8.0,5.0,-19.0,12.0,6.0,-24.0,0.0
-8.0,20.0,5.0,19.0,10.0,4.0,-3.0,16.0,2.0,-10.0,0.0
-4.0,8.0,17.0,18.0,2.0,10.0,0.0,22.0,0.0,-9.0,0.0
-6.0,9.0,18.0,23.0,15.0,5.0,-9.0,14.0,3.0,-8.0,0.0
-13.0,7.0,16.0,19.0,18.0,4.0,-10.0,2.0,8.0,0.0,0.0
-9.0,3.0,15.0,22.0,24.0,-2.0,2.0,1.0,7.0,2.0,0.0
-13.0,-8.0,19.0,12.0,36.0,-3.0,10.0,3.0,17.0,-6.0,0.0
-23.0,-4.0,28.0,15.0,39.0,1.0,7.0,0.0,15.0,-12.0,0.0
-19.0,-4.0,28.0,17.0,32.0,-8.0,3.0,-1.0,6.0,-2.0,0.0
-4.0,-8.0,21.0,14.0,24.0,-5.0,7.0,-3.0,5.0,11.0,0.0
7.0,1.0,7.0,9.0,23.0,-8.0,2.0,-5.0,2.0,11.0,0.0
8.0,5.0,10.0,-2.0,22.0,-22.0,-13.0,-13.0,0.0,-2.0,0.0
3.0,-6.0,0.0,-2.0,22.0,-30.0,-20.0,-7.0,-4.0,-6.0,0.0
-4.0,-18.0,-2.0,1.0,15.0,-23.0,-11.0,-7.0,-4.0,6.0,0.0
5.0,-29.0,0.0,3.0,14.0,-15.0,4.0,0.0,-10.0,5.0,0.0
7.0,-20.0,-7.0,-13.0,8.0,-9.0,13.0,6.0,-8.0,8.0,0.0
10.0,-17.0,-8.0,-29.0,-1.0,-5.0,6.0,1.0,10.0,5.0,0.0
12.0,-16.0,-5.0,-31.0,-7.0,-8.0,14.0,5.0,11.0,-7.0,0.0
2.0,-5.0,-5.0,-26.0,-1.0,-5.0,21.0,8.0,9.0,-19.0,0.0
-6.0,0.0,6.0,-16.0,0.0,-4.0,7.0,4.0,2.0,-14.0,0.0
-12.0,0.0,12.0,-3.0,-3.0,2.0,1.0,3.0,-11.0,-17.0,0.0
-16.0,0.0,14.0,8.0,-1.0,2.0,12.0,1.0,-23.0,-24.0,0.0
-5.0,9.0,7.0,-1.0,4.0,-7.0,11.0,3.0,-22.0,-35.0,0.0
4.0,24.0,14.0,-15.0,-3.0,-16.0,1.0,-12.0,-13.0,-30.0,0.0
-3.0,21.0,25.0,-22.0,-4.0,-11.0,-6.0,-11.0,-10.0,-15.0,0.0
-1.0,13.0,33.0,-19.0,-5.0,-14.0,3.0,-9.0,-6.0,-15.0,0.0
0.0,16.0,18.0,-17.0,-1.0,-20.0,7.0,-26.0,4.0,-20.0,0.0
-5.0,15.0,4.0,-19.0,-2.0,-24.0,11.0,-20.0,8.0,-20.0,0.0
6.0,17.0,-7.0,-25.0,-8.0,-7.0,20.0,-4.0,10.0,7.0,0.0
13.0,18.0,-2.0,-8.0,-14.0,-2.0,14.0,-4.0,12.0,11.0,0.0
0.0,8.0,-4.0,11.0,-9.0,-11.0,-1.0,-1.0,1.0,6.0,0.0
-11.0,0.0,1.0,7.0,-11.0,-10.0,-13.0,1.0,-3.0,1.0,0.0
-2.0,-9.0,-2.0,2.0,-15.0,-13.0,-4.0,-9.0,0.0,6.0,0.0
6.0,-11.0,-7.0,7.0,-13.0,0.0,14.0,-2.0,-4.0,4.0,0.0
1.0,-11.0,-3.0,26.0,-10.0,0.0,3.0,5.0,-17.0,-3.0,0.0
-3.0,-2.0,-7.0,30.0,0.0,-3.0,4.0,9.0,-12.0,-15.0,0.0
-11.0,-3.0,-12.0,30.0,5.0,2.0,20.0,2.0,-2.0,-18.0,0.0
-6.0,-2.0,-12.0,35.0,11.0,11.0,7.0,-6.0,-2.0,-15.0,0.0
0.0,1.0,-9.0,27.0,18.0,13.0,18.0,0.0,-13.0,-9.0,0.0
7.0,5.0,-8.0,20.0,6.0,5.0,14.0,2.0,-13.0,-9.0,0.0
24.0,12.0,4.0,26.0,-3.0,1.0,-3.0,-8.0,-18.0,-11.0,0.0
36.0,17.0,1.0,23.0,0.0,-5.0,7.0,-19.0,-16.0,-18.0,0.0
14.0,9.0,-21.0,9.0,0.0,-6.0,16.0,-7.0,-15.0,-15.0,0.0
9.0,1.0,-27.0,1.0,-2.0,-11.0,4.0,-2.0,-29.0,-11.0,0.0
5.0,-3.0,-22.0,0.0,-2.0,-7.0,0.0,0.0,-31.0,-16.0,0.0
3.0,-4.0,-16.0,6.0,1.0,-16.0,11.0,1.0,-21.0,-14.0,0.0
12.0,0.0,-1.0,13.0,3.0,-17.0,0.0,0.0,-8.0,-9.0,0.0
22.0,9.0,8.0,6.0,2.0,-19.0,-16.0,-1.0,-17.0,-18.0,0.0
15.0,7.0,7.0,-4.0,-3.0,-10.0,-20.0,4.0,-17.0,-8.0,0.0
15.0,4.0,-1.0,-10.0,-13.0,-8.0,-2.0,3.0,-14.0,0.0,0.0
26.0,11.0,0.0,3.0,2.0,-17.0,0.0,8.0,-26.0,1.0,0.0
15.0,18.0,-3.0,12.0,0.0,-8.0,-3.0,9.0,-27.0,-3.0,0.0
2.0,14.0,-5.0,8.0,-5.0,-1.0,4.0,14.0,-24.0,-2.0,0.0
-4.0,10.0,-7.0,2.0,-5.0,-4.0,22.0,28.0,-9.0,-6.0,0.0
4.0,15.0,-19.0,-5.0,3.0,-9.0,12.0,18.0,-14.0,-1.0,0.0
13.0,15.0,-13.0,-23.0,3.0,-18.0,-5.0,0.0,-19.0,1.0,0.0
13.0,11.0,-11.0,-22.0,8.0,-14.0,0.0,5.0,-15.0,-12.0,0.0
0.0,3.0,-17.0,-7.0,16.0,6.0,4.0,17.0,-20.0,-9.0,0.0
-15.0,-2.0,-22.0,3.0,17.0,4.0,2.0,25.0,-24.0,-19.0,0.0
-16.0,-6.0,-28.0,9.0,23.0,0.0,16.0,37.0,-18.0,-19.0,0.0
-19.0,-20.0,-20.0,14.0,27.0,6.0,17.0,50.0,-15.0,-7.0,0.0
-29.0,-22.0,-9.0,4.0,21.0,18.0,16.0,38.0,-10.0,-9.0,0.0
-22.0,-22.0,-14.0,5.0,17.0,19.0,16.0,35.0,12.0,-1.0,0.0
-8.0,-13.0,-20.0,-9.0,3.0,7.0,20.0,30.0,10.0,10.0,0.0
-9.0,0.0,-15.0,-10.0,4.0,4.0,23.0,26.0,15.0,10.0,0.0
-19.0,-7.0,-11.0,-11.0,4.0,-3.0,8.0,17.0,18.0,7.0,0.0
-22.0,-22.0,-10.0,-12.0,0.0,-4.0,-10.0,18.0,3.0,-5.0,0.0
-15.0,-28.0,-11.0,-5.0,-2.0,-9.0,-3.0,19.0,-8.0,-19.0,0.0
-10.0,-29.0,-5.0,-1.0,0.0,0.0,1.0,16.0,-15.0,-7.0,0.0
-15.0,-32.0,-15.0,-2.0,12.0,9.0,-8.0,11.0,-11.0,-10.0,0.0
-12.0,-20.0,-11.0,-6.0,13.0,15.0,-4.0,7.0,-11.0,-14.0,0.0
0.0,-6.0,-1.0,-12.0,8.0,2.0,-4.0,2.0,-11.0,-15.0,0.0
17.0,3.0,-5.0,-12.0,0.0,-8.0,1.0,0.0,-12.0,-10.0,0.0
22.0,0.0,7.0,-20.0,-5.0,-15.0,5.0,8.0,-8.0,8.0,0.0
25.0,0.0,0.0,-27.0,-10.0,-7.0,11.0,5.0,0.0,9.0,0.0
22.0,0.0,-6.0,-26.0,-8.0,-5.0,6.0,-3.0,4.0,2.0,0.0
8.0,-4.0,0.0,-18.0,0.0,-11.0,0.0,-12.0,-1.0,1.0,0.0
8.0,-11.0,1.0,-18.0,0.0,-4.0,3.0,-1.0,-2.0,4.0,0.0
14.0,-20.0,10.0,-15.0,6.0,2.0,-2.0,0.0,-5.0,2.0,0.0
4.0,-16.0,27.0,0.0,19.0,9.0,-5.0,-13.0,-16.0,4.0,0.0
1.0,-21.0,25.0,5.0,23.0,9.0,0.0,-21.0,-14.0,-7.0,0.0
-1.0,-33.0,14.0,19.0,20.0,10.0,0.0,-30.0,-7.0,-13.0,0.0
-12.0,-42.0,20.0,25.0,15.0,7.0,-2.0,-25.0,-5.0,-15.0,0.0
-20.0,-49.0,13.0,25.0,10.0,13.0,0.0,-10.0,9.0,-7.0,0.0
-1.0,-37.0,0.0,20.0,-4.0,2.0,-1.0,-14.0,-2.0,-9.0,0.0
13.0,2.0,6.0,11.0,-5.0,-1.0,-11.0,-19.0,0.0,-8.0,0.0
22.0,55.0,8.0,6.0,-4.0,-14.0,-13.0,-15.0,-18.0,-3.0,0.0
23.0,77.0,14.0,-17.0,-10.0,-7.0,0.0,-2.0,-10.0,11.0,0.0
14.0,43.0,12.0,-28.0,-7.0,13.0,4.0,18.0,-9.0,12.0,0.0
12.0,-1.0,6.0,-35.0,9.0,15.0,-9.0,18.0,-12.0,-4.0,0.0
1.0,-9.0,-5.0,-38.0,11.0,7.0,-13.0,12.0,-5.0,-8.0,0.0
0.0,1.0,-2.0,-30.0,10.0,-3.0,-15.0,20.0,-4.0,1.0,0.0
1.0,1.0,-1.0,-20.0,6.0,-10.0,-15.0,29.0,-4.0,18.0,0.0
-8.0,-2.0,-3.0,1.0,5.0,-2.0,-14.0,23.0,-5.0,10.0,0.0
-14.0,5.0,5.0,12.0,-1.0,-7.0,-10.0,16.0,6.0,-11.0,0.0
-11.0,24.0,3.0,20.0,-6.0,-2.0,-8.0,5.0,4.0,-3.0,0.0
-11.0,19.0,12.0,17.0,-8.0,0.0,-19.0,-3.0,0.0,-10.0,0.0
-7.0,13.0,29.0,17.0,-1.0,1.0,-19.0,-3.0,-9.0,-3.0,0.0
-11.0,10.0,23.0,22.0,5.0,6.0,-18.0,-4.0,-12.0,2.0,0.0
-5.0,11.0,9.0,8.0,3.0,7.0,3.0,-4.0,-15.0,-4.0,0.0
0.0,6.0,-3.0,-8.0,-3.0,0.0,15.0,4.0,-6.0,-12.0,0.0
-8.0,-3.0,4.0,-1.0,-2.0,-12.0,6.0,3.0,-7.0,-16.0,0.0
-16.0,-12.0,-1.0,5.0,-7.0,-18.0,8.0,0.0,-4.0,-5.0,0.0
-15.0,-24.0,-17.0,0.0,-10.0,-23.0,-9.0,-1.0,-3.0,8.0,0.0
-13.0,-26.0,-37.0,-12.0,-8.0,-11.0,-15.0,-9.0,0.0,8.0,0.0
-22.0,-15.0,-32.0,-20.0,-4.0,-3.0,-25.0,-16.0,-5.0,16.0,0.0
-23.0,-9.0,-20.0,-13.0,0.0,-16.0,-11.0,-15.0,4.0,24.0,0.0
-10.0,-7.0,-3.0,-1.0,-3.0,-32.0,2.0,-9.0,1.0,13.0,0.0
-20.0,-4.0,-6.0,9.0,0.0,-26.0,1.0,-9.0,15.0,26.0,0.0
-26.0,-14.0,-4.0,11.0,6.0,-13.0,-6.0,-7.0,14.0,11.0,0.0
-14.0,-3.0,5.0,0.0,8.0,-9.0,-7.0,-4.0,16.0,1.0,0.0
5.0,28.0,13.0,-11.0,3.0,-15.0,-4.0,0.0,12.0,12.0,0.0
-1.0,34.0,21.0,-18.0,-3.0,-17.0,-20.0,-12.0,-4.0,17.0,0.0
-11.0,20.0,10.0,-11.0,-2.0,-22.0,-32.0,-8.0,-9.0,19.0,0.0
-16.0,12.0,-3.0,-12.0,10.0,-15.0,-28.0,-12.0,-14.0,6.0,0.0
-12.0,4.0,-11.0,-13.0,12.0,9.0,-15.0,-10.0,-14.0,-2.0,0.0
-12.0,-10.0,-5.0,-18.0,23.0,23.0,3.0,0.0,-6.0,0.0,0.0
-24.0,-16.0,6.0,-12.0,14.0,4.0,6.0,0.0,-15.0,-6.0,0.0
-12.0,-8.0,23.0,1.0,8.0,4.0,1.0,-19.0,-22.0,-7.0,0.0
12.0,2.0,25.0,0.0,3.0,-1.0,0.0,-23.0,-15.0,-4.0,0.0
21.0,10.0,24.0,11.0,4.0,-2.0,6.0,-11.0,12.0,12.0,0.0
27.0,2.0,7.0,7.0,0.0,7.0,11.0,-12.0,16.0,18.0,0.0
15.0,-4.0,-23.0,-8.0,2.0,11.0,-1.0,-7.0,13.0,19.0,0.0
18.0,10.0,-19.0,-12.0,-1.0,19.0,2.0,-5.0,14.0,13.0,0.0
15.0,12.0,2.0,-14.0,-9.0,6.0,-13.0,-8.0,-9.0,1.0,0.0
14.0,11.0,10.0,-11.0,-6.0,1.0,-5.0,-6.0,-10.0,-1.0,0.0
9.0,-7.0,11.0,10.0,-3.0,7.0,0.0,-12.0,-9.0,1.0,0.0
1.0,-33.0,3.0,10.0,0.0,10.0,-4.0,-8.0,-2.0,12.0,0.0
-11.0,-42.0,-4.0,2.0,11.0,8.0,0.0,-4.0,11.0,11.0,0.0
-3.0,-33.0,-9.0,14.0,8.0,20.0,5.0,-8.0,-1.0,1.0,0.0
12.0,-18.0,-5.0,11.0,3.0,25.0,2.0,0.0,-10.0,-12.0,0.0
13.0,-13.0,-4.0,0.0,9.0,27.0,1.0,14.0,2.0,-14.0,0.0
0.0,-16.0,-18.0,-8.0,12.0,21.0,22.0,11.0,11.0,-15.0,0.0
0.0,-28.0,-27.0,-10.0,9.0,24.0,32.0,7.0,14.0,-19.0,0.0
-1.0,-26.0,-32.0,-7.0,11.0,18.0,40.0,3.0,6.0,-28.0,0.0
-1.0,-16.0,-34.0,-11.0,1.0,9.0,41.0,-7.0,-1.0,-23.0,0.0
-1.0,-2.0,-37.0,-22.0,-4.0,4.0,22.0,-5.0,6.0,-23.0,0.0
7.0,11.0,-36.0,-26.0,4.0,11.0,24.0,-3.0,7.0,-15.0,0.0
3.0,10.0,-27.0,-20.0,3.0,7.0,6.0,-4.0,14.0,-8.0,0.0
-3.0,-5.0,-15.0,-10.0,-2.0,7.0,1.0,0.0,8.0,-5.0,0.0
-12.0,-8.0,-4.0,-4.0,1.0,10.0,12.0,-9.0,6.0,-14.0,0.0
-23.0,-13.0,11.0,-9.0,8.0,20.0,14.0,-8.0,5.0,-24.0,0.0
-17.0,-13.0,13.0,-8.0,4.0,22.0,5.0,-3.0,8.0,-11.0,0.0
4.0,-11.0,16.0,-11.0,5.0,24.0,10.0,9.0,5.0,-2.0,0.0
13.0,-17.0,6.0,-26.0,8.0,15.0,10.0,10.0,8.0,-2.0,0.0
9.0,-24.0,4.0,-26.0,7.0,19.0,10.0,14.0,7.0,-6.0,0.0
10.0,-8.0,9.0,-20.0,7.0,35.0,15.0,26.0,-1.0,-5.0,0.0
-5.0,0.0,29.0,-16.0,9.0,29.0,4.0,30.0,-7.0,5.0,0.0
-9.0,0.0,54.0,-9.0,10.0,26.0,2.0,26.0,-9.0,-8.0,0.0
-14.0,9.0,52.0,-17.0,3.0,22.0,5.0,3.0,2.0,-12.0,0.0
-11.0,15.0,30.0,-29.0,-1.0,0.0,-6.0,-16.0,4.0,3.0,0.0
-6.0,18.0,23.0,-14.0,-1.0,0.0,-13.0,-26.0,7.0,12.0,0.0
-10.0,8.0,15.0,-7.0,-4.0,-7.0,-3.0,-20.0,7.0,12.0,0.0
-19.0,-8.0,-5.0,0.0,11.0,-2.0,4.0,-19.0,8.0,6.0,0.0
-30.0,-15.0,-14.0,6.0,22.0,-3.0,-2.0,-12.0,4.0,6.0,0.0
-16.0,-2.0,-8.0,-17.0,9.0,-2.0,-8.0,-12.0,7.0,12.0,0.0
-11.0,4.0,-9.0,-30.0,0.0,0.0,-6.0,-7.0,15.0,14.0,0.0
1.0,-12.0,-35.0,-28.0,7.0,2.0,-2.0,2.0,12.0,11.0,0.0
-9.0,-15.0,-35.0,-17.0,20.0,8.0,-3.0,2.0,6.0,0.0,0.0
-14.0,-15.0,-20.0,-7.0,24.0,12.0,6.0,9.0,5.0,-8.0,0.0
-26.0,-16.0,-10.0,5.0,23.0,12.0,2.0,12.0,-6.0,-10.0,0.0
-33.0,-10.0,-1.0,8.0,14.0,18.0,-19.0,2.0,-13.0,-21.0,0.0
-13.0,0.0,7.0,5.0,9.0,24.0,-25.0,-9.0,-11.0,-15.0,0.0
14.0,20.0,20.0,1.0,3.0,23.0,-10.0,-14.0,-3.0,0.0,0.0
26.0,18.0,21.0,-8.0,-6.0,16.0,0.0,-11.0,-3.0,5.0,0.0
34.0,3.0,18.0,-13.0,2.0,2.0,-10.0,-14.0,-2.0,0.0,0.0
31.0,-8.0,11.0,-24.0,3.0,-7.0,-13.0,-17.0,0.0,0.0,0.0
19.0,-20.0,11.0,-30.0,-8.0,-6.0,-3.0,-14.0,-6.0,-12.0,0.0
5.0,-22.0,10.0,-22.0,-12.0,-2.0,-10.0,-15.0,-9.0,-19.0,0.0
2.0,-20.0,-3.0,0.0,-6.0,0.0,-23.0,-17.0,-11.0,-21.0,0.0
0.0,-11.0,-10.0,13.0,-2.0,0.0,-14.0,-7.0,-3.0,-12.0,0.0
5.0,-10.0,-22.0,6.0,8.0,-6.0,5.0,-10.0,-1.0,-5.0,0.0
15.0,-6.0,-32.0,-9.0,-1.0,0.0,-6.0,0.0,1.0,0.0,0.0
21.0,-12.0,-27.0,-19.0,-13.0,-3.0,-15.0,0.0,-4.0,3.0,0.0
26.0,-4.0,-18.0,-14.0,-11.0,-9.0,-3.0,2.0,9.0,0.0,0.0
18.0,2.0,-8.0,-15.0,-5.0,-11.0,9.0,-11.0,5.0,0.0,0.0
14.0,-2.0,1.0,-8.0,2.0,-4.0,2.0,-21.0,-1.0,-5.0,0.0
3.0,-4.0,6.0,12.0,8.0,-4.0,5.0,-11.0,0.0,-9.0,0.0
-3.0,6.0,4.0,19.0,1.0,-10.0,10.0,-6.0,7.0,-11.0,0.0
1.0,8.0,3.0,11.0,1.0,-22.0,3.0,-18.0,2.0,-18.0,0.0
15.0,2.0,10.0,9.0,-2.0,-26.0,-7.0,-23.0,-16.0,-23.0,0.0
16.0,7.0,16.0,1.0,-10.0,-24.0,7.0,-7.0,-15.0,-27.0,0.0
5.0,14.0,12.0,-8.0,-7.0,-27.0,15.0,6.0,-13.0,-25.0,0.0
3.0,16.0,21.0,-12.0,-6.0,-18.0,15.0,-1.0,-13.0,-27.0,0.0
-2.0,13.0,21.0,-7.0,-14.0,8.0,19.0,0.0,-7.0,-21.0,0.0
-5.0,10.0,4.0,5.0,-23.0,17.0,30.0,3.0,10.0,-14.0,0.0
-7.0,5.0,-4.0,15.0,-24.0,22.0,26.0,-8.0,7.0,-12.0,0.0
-3.0,2.0,-13.0,6.0,-17.0,13.0,17.0,4.0,-1.0,-5.0,0.0
-10.0,10.0,-10.0,4.0,0.0,6.0,11.0,7.0,4.0,-11.0,0.0
-25.0,2.0,-14.0,4.0,0.0,7.0,3.0,-1.0,-6.0,-10.0,0.0
-26.0,0.0,-13.0,7.0,-11.0,-5.0,5.0,-13.0,-18.0,-5.0,0.0
-13.0,2.0,-1.0,6.0,-20.0,-17.0,-1.0,-15.0,-14.0,10.0,0.0
0.0,20.0,6.0,1.0,-21.0,-2.0,-8.0,-17.0,-19.0,19.0,0.0
3.0,36.0,14.0,13.0,-24.0,8.0,-7.0,-10.0,-13.0,17.0,0.0
0.0,33.0,13.0,0.0,-21.0,-10.0,-12.0,0.0,-5.0,14.0,0.0
4.0,22.0,1.0,-7.0,-17.0,-12.0,-16.0,-5.0,-5.0,10.0,0.0
16.0,14.0,-1.0,-13.0,-12.0,-8.0,-11.0,2.0,0.0,9.0,0.0
10.0,16.0,-7.0,-6.0,-8.0,-2.0,12.0,17.0,3.0,1.0,0.0
-4.0,3.0,-8.0,1.0,-12.0,1.0,22.0,16.0,-4.0,-4.0,0.0
-5.0,0.0,-8.0,-3.0,-9.0,1.0,8.0,8.0,-9.0,1.0,0.0
-5.0,12.0,-4.0,0.0,-16.0,0.0,22.0,5.0,-1.0,7.0,0.0
-11.0,13.0,0.0,9.0,-16.0,-1.0,13.0,2.0,-2.0,8.0,0.0
-17.0,2.0,-7.0,17.0,-10.0,3.0,-3.0,3.0,-5.0,-4.0,0.0
-23.0,0.0,-10.0,26.0,-7.0,9.0,24.0,7.0,-6.0,-14.0,0.0
-25.0,-6.0,-12.0,30.0,-3.0,12.0,24.0,17.0,-1.0,-15.0,0.0
-25.0,-20.0,-24.0,19.0,-3.0,14.0,18.0,12.0,-3.0,-15.0,0.0
-27.0,-24.0,-31.0,22.0,10.0,18.0,23.0,4.0,-5.0,-24.0,0.0
-18.0,-26.0,-18.0,21.0,17.0,28.0,25.0,13.0,-19.0,-23.0,0.0
-12.0,-12.0,2.0,28.0,19.0,30.0,21.0,19.0,-6.0,-4.0,0.0
-1.0,-2.0,13.0,38.0,13.0,18.0,6.0,18.0,-9.0,12.0,0.0
0.0,9.0,15.0,35.0,11.0,13.0,6.0,16.0,-6.0,6.0,0.0
2.0,12.0,15.0,25.0,2.0,10.0,-4.0,14.0,-3.0,4.0,0.0
-2.0,13.0,10.0,15.0,3.0,11.0,-13.0,-2.0,-4.0,13.0,0.0
-6.0,14.0,8.0,6.0,-6.0,15.0,-5.0,-10.0,-4.0,21.0,0.0
-6.0,8.0,11.0,2.0,-14.0,7.0,-18.0,-3.0,-2.0,25.0,0.0
-3.0,5.0,14.0,12.0,-13.0,12.0,-25.0,0.0,-10.0,16.0,0.0
1.0,5.0,14.0,8.0,-4.0,9.0,-24.0,11.0,-11.0,11.0,0.0
8.0,1.0,8.0,5.0,-2.0,9.0,-14.0,22.0,2.0,15.0,0.0
15.0,-6.0,12.0,17.0,-10.0,-4.0,-13.0,20.0,8.0,15.0,0.0
10.0,-15.0,30.0,19.0,-21.0,-13.0,-22.0,2.0,3.0,12.0,0.0
3.0,-10.0,41.0,12.0,-24.0,-11.0,-28.0,-2.0,-4.0,23.0,0.0
15.0,12.0,32.0,5.0,-28.0,-10.0,-26.0,-7.0,-4.0,15.0,0.0
25.0,29.0,35.0,4.0,-31.0,-12.0,-31.0,-19.0,5.0,6.0,0.0
21.0,26.0,34.0,-6.0,-32.0,-11.0,-24.0,-9.0,1.0,4.0,0.0
27.0,35.0,12.0,-20.0,-33.0,-9.0,-34.0,-17.0,-3.0,7.0,0.0
22.0,15.0,-14.0,-28.0,-24.0,-5.0,-38.0,-18.0,-13.0,5.0,0.0
0.0,-11.0,-29.0,-18.0,-5.0,5.0,-38.0,-4.0,-4.0,-7.0,0.0
-2.0,-14.0,-32.0,-12.0,0.0,14.0,-26.0,-6.0,-3.0,-11.0,0.0
9.0,-12.0,-18.0,-20.0,-2.0,10.0,-13.0,-16.0,-3.0,-2.0,0.0
8.0,-7.0,-13.0,-21.0,1.0,8.0,-7.0,-22.0,3.0,-5.0,0.0
5.0,-13.0,-12.0,-21.0,9.0,8.0,-2.0,-15.0,9.0,-19.0,0.0
0.0,-21.0,-3.0,-31.0,11.0,10.0,12.0,-4.0,4.0,-19.0,0.0
0.0,-25.0,5.0,-28.0,5.0,15.0,31.0,-3.0,7.0,-25.0,0.0
0.0,-12.0,17.0,-14.0,8.0,20.0,26.0,3.0,16.0,-20.0,0.0
10.0,-4.0,4.0,-7.0,13.0,15.0,40.0,8.0,16.0,-28.0,0.0
1.0,-3.0,27.0,11.0,1.0,5.0,40.0,12.0,16.0,-25.0,0.0
2.0,11.0,50.0,26.0,-10.0,0.0,19.0,9.0,26.0,-9.0,0.0
13.0,24.0,66.0,42.0,-8.0,-3.0,15.0,-8.0,19.0,2.0,0.0
10.0,24.0,75.0,43.0,3.0,0.0,5.0,-23.0,12.0,4.0,0.0
6.0,19.0,60.0,33.0,-2.0,-6.0,-4.0,-21.0,-1.0,3.0,0.0
7.0,19.0,39.0,26.0,2.0,-13.0,0.0,-23.0,-3.0,-4.0,0.0
13.0,9.0,29.0,26.0,12.0,-17.0,0.0,-28.0,10.0,-3.0,0.0
15.0,-1.0,22.0,13.0,3.0,-6.0,0.0,-21.0,24.0,-1.0,0.0
17.0,-3.0,-1.0,-9.0,-3.0,-7.0,10.0,-7.0,25.0,1.0,0.0
15.0,7.0,-7.0,-14.0,-8.0,-11.0,12.0,0.0,14.0,-8.0,0.0
19.0,1.0,-19.0,-13.0,-12.0,-11.0,6.0,-1.0,11.0,-6.0,0.0
20.0,-3.0,-24.0,-6.0,-10.0,-1.0,16.0,-2.0,20.0,0.0,0.0
22.0,0.0,-13.0,-15.0,-16.0,6.0,22.0,4.0,13.0,8.0,0.0
17.0,4.0,0.0,-15.0,-19.0,-6.0,19.0,3.0,-4.0,5.0,0.0
18.0,1.0,3.0,-7.0,-20.0,-15.0,19.0,-11.0,-13.0,5.0,0.0
4.0,0.0,-3.0,10.0,-13.0,-19.0,17.0,-17.0,-18.0,16.0,0.0
-13.0,-3.0,-10.0,22.0,-3.0,-15.0,26.0,-13.0,-23.0,1.0,0.0
-25.0,-8.0,10.0,18.0,-7.0,-3.0,25.0,-12.0,-29.0,-24.0,0.0
-23.0,-7.0,20.0,17.0,-1.0,-8.0,17.0,-14.0,-22.0,-30.0,0.0
-19.0,-4.0,-5.0,21.0,3.0,-9.0,17.0,-16.0,-19.0,-21.0,0.0
-15.0,-9.0,-31.0,12.0,-7.0,-7.0,7.0,-17.0,-14.0,-17.0,0.0
-7.0,-15.0,-34.0,4.0,-21.0,-4.0,7.0,-16.0,-9.0,-13.0,0.0
4.0,-9.0,-29.0,7.0,-14.0,-2.0,2.0,-9.0,-7.0,-11.0,0.0
8.0,-6.0,-24.0,6.0,-15.0,-1.0,-6.0,-6.0,8.0,-12.0,0.0
5.0,-3.0,-13.0,2.0,-20.0,-6.0,-9.0,-19.0,8.0,-10.0,0.0
20.0,-3.0,0.0,4.0,-22.0,-10.0,-12.0,-20.0,12.0,-4.0,0.0
27.0,5.0,0.0,6.0,-31.0,-17.0,-22.0,-20.0,0.0,-2.0,0.0
34.0,10.0,-7.0,6.0,-33.0,-25.0,-26.0,-26.0,-5.0,-8.0,0.0
29.0,5.0,-14.0,15.0,-29.0,-22.0,-19.0,-24.0,-1.0,-9.0,0.0
11.0,0.0,-13.0,4.0,-25.0,-16.0,-14.0,-26.0,0.0,-10.0,0.0
13.0,4.0,7.0,-1.0,-30.0,-10.0,-19.0,-19.0,-1.0,-5.0,0.0
10.0,3.0,2.0,5.0,-15.0,-6.0,-8.0,0.0,11.0,-2.0,0.0
5.0,1.0,-5.0,7.0,-8.0,5.0,18.0,17.0,18.0,-8.0,0.0
3.0,-2.0,-20.0,6.0,-1.0,6.0,9.0,17.0,11.0,-4.0,0.0
-3.0,-5.0,-16.0,-9.0,-1.0,-1.0,4.0,9.0,10.0,-3.0,0.0
-4.0,0.0,-1.0,-27.0,4.0,-6.0,-8.0,3.0,19.0,-3.0,0.0
-2.0,7.0,2.0,-26.0,4.0,-14.0,-12.0,-1.0,11.0,-3.0,0.0
-8.0,11.0,-7.0,-22.0,8.0,-6.0,0.0,8.0,8.0,-6.0,0.0
-11.0,0.0,-11.0,-13.0,15.0,-5.0,6.0,16.0,1.0,-8.0,0.0
-6.0,-9.0,-6.0,-12.0,3.0,-20.0,-14.0,9.0,-11.0,-16.0,0.0
-2.0,-9.0,9.0,-11.0,-2.0,-20.0,-18.0,-2.0,-15.0,-12.0,0.0
3.0,-5.0,9.0,-8.0,-2.0,-10.0,-12.0,-5.0,-4.0,-6.0,0.0
1.0,1.0,16.0,0.0,-4.0,-2.0,-9.0,2.0,-3.0,-16.0,0.0
-2.0,3.0,24.0,-7.0,-8.0,-3.0,-30.0,8.0,1.0,-9.0,0.0
2.0,0.0,20.0,-14.0,-14.0,-19.0,-42.0,12.0,-7.0,-13.0,0.0
6.0,-8.0,26.0,-20.0,-17.0,-19.0,-41.0,-4.0,-13.0,-2.0,0.0
8.0,-9.0,29.0,-19.0,-18.0,-13.0,-19.0,-4.0,-15.0,9.0,0.0
7.0,-9.0,20.0,-26.0,-12.0,-3.0,0.0,-1.0,-9.0,21.0,0.0
7.0,-1.0,1.0,-33.0,-12.0,-14.0,0.0,-1.0,-10.0,12.0,0.0
-1.0,5.0,0.0,-29.0,-18.0,-10.0,-25.0,2.0,0.0,17.0,0.0
-1.0,-1.0,3.0,-20.0,-24.0,-8.0,-20.0,11.0,-4.0,16.0,0.0
-6.0,-15.0,8.0,-2.0,-21.0,-5.0,-13.0,11.0,-9.0,0.0,0.0
-3.0,-7.0,6.0,12.0,-13.0,4.0,-19.0,3.0,-13.0,0.0,0.0
-1.0,-6.0,1.0,20.0,-13.0,6.0,-26.0,-2.0,-13.0,0.0,0.0
-10.0,-6.0,0.0,25.0,-1.0,9.0,-11.0,9.0,-21.0,-6.0,0.0
-11.0,4.0,9.0,28.0,6.0,12.0,0.0,13.0,-18.0,-13.0,0.0
-4.0,7.0,24.0,27.0,8.0,8.0,0.0,-2.0,-20.0,-17.0,0.0
0.0,4.0,26.0,24.0,6.0,-2.0,1.0,-13.0,-12.0,-14.0,0.0
-11.0,15.0,15.0,23.0,-7.0,0.0,-6.0,-9.0,-5.0,-7.0,0.0
-13.0,12.0,8.0,26.0,-10.0,13.0,-21.0,-9.0,1.0,2.0,0.0
0.0,12.0,3.0,4.0,-13.0,7.0,-21.0,-17.0,0.0,6.0,0.0
13.0,1.0,-12.0,-35.0,-15.0,1.0,-8.0,-16.0,1.0,16.0,0.0
4.0,-11.0,-23.0,-34.0,-20.0,7.0,-3.0,-18.0,7.0,8.0,0.0
-2.0,-12.0,-25.0,-36.0,-14.0,9.0,-7.0,0.0,6.0,9.0,0.0
-15.0,-11.0,-34.0,-46.0,-4.0,18.0,-11.0,12.0,1.0,12.0,0.0
-37.0,-18.0,-34.0,-41.0,-2.0,18.0,5.0,18.0,4.0,-14.0,0.0
-27.0,-27.0,-33.0,-32.0,2.0,15.0,16.0,18.0,-5.0,-17.0,0.0
-14.0,-19.0,-22.0,-15.0,6.0,7.0,3.0,32.0,-5.0,-14.0,0.0
-4.0,-14.0,-7.0,0.0,14.0,2.0,0.0,29.0,0.0,-14.0,0.0
-11.0,-11.0,-8.0,2.0,16.0,14.0,15.0,23.0,1.0,-7.0,0.0
-9.0,-6.0,0.0,-16.0,14.0,23.0,21.0,20.0,8.0,-7.0,0.0
-1.0,1.0,-4.0,-34.0,5.0,5.0,-6.0,7.0,-2.0,-3.0,0.0
-6.0,18.0,-15.0,-33.0,7.0,-5.0,-14.0,-10.0,-5.0,-5.0,0.0
4.0,29.0,-6.0,-31.0,11.0,5.0,-1.0,-7.0,16.0,-4.0,0.0
16.0,24.0,0.0,-40.0,7.0,10.0,-18.0,-8.0,13.0,-1.0,0.0
19.0,25.0,1.0,-46.0,-1.0,5.0,-29.0,-10.0,4.0,10.0,0.0
18.0,20.0,0.0,-23.0,4.0,-2.0,-22.0,-6.0,8.0,14.0,0.0
20.0,22.0,8.0,0.0,2.0,0.0,-24.0,-2.0,2.0,12.0,0.0
16.0,26.0,11.0,-6.0,2.0,4.0,-12.0,4.0,7.0,17.0,0.0
10.0,11.0,21.0,5.0,6.0,6.0,2.0,5.0,4.0,17.0,0.0
6.0,-5.0,19.0,19.0,4.0,4.0,18.0,12.0,7.0,14.0,0.0
2.0,-14.0,12.0,31.0,8.0,14.0,25.0,15.0,4.0,11.0,0.0
-7.0,-16.0,2.0,28.0,16.0,19.0,24.0,5.0,13.0,10.0,0.0
-1.0,-16.0,13.0,31.0,21.0,18.0,26.0,12.0,18.0,16.0,0.0
0.0,-9.0,11.0,29.0,23.0,23.0,13.0,8.0,25.0,12.0,0.0
2.0,-7.0,-2.0,31.0,28.0,12.0,5.0,-8.0,13.0,11.0,0.0
13.0,-4.0,-14.0,23.0,22.0,13.0,8.0,-16.0,8.0,10.0,0.0
16.0,-2.0,-13.0,11.0,21.0,16.0,-1.0,-16.0,3.0,16.0,0.0
21.0,-11.0,-8.0,13.0,16.0,8.0,-15.0,-8.0,7.0,18.0,0.0
33.0,-14.0,-14.0,19.0,22.0,3.0,-3.0,2.0,9.0,16.0,0.0
25.0,-20.0,-20.0,21.0,29.0,10.0,11.0,11.0,12.0,8.0,0.0
10.0,-25.0,-28.0,23.0,34.0,15.0,8.0,19.0,14.0,9.0,0.0
3.0,-24.0,-37.0,14.0,32.0,15.0,-11.0,19.0,15.0,8.0,0.0
2.0,-28.0,-39.0,11.0,31.0,26.0,-12.0,23.0,28.0,1.0,0.0
-5.0,-18.0,-26.0,8.0,28.0,31.0,9.0,24.0,39.0,-3.0,0.0
-8.0,-1.0,-13.0,-5.0,29.0,23.0,11.0,16.0,30.0,-8.0,0.0
-2.0,0.0,-14.0,-7.0,26.0,11.0,-7.0,11.0,13.0,-5.0,0.0
0.0,-6.0,-18.0,-13.0,25.0,7.0,-17.0,0.0,10.0,-4.0,0.0
-4.0,-13.0,-18.0,-19.0,24.0,11.0,-4.0,3.0,24.0,-17.0,0.0
1.0,-15.0,-26.0,-21.0,21.0,6.0,6.0,17.0,31.0,-31.0,0.0
5.0,-10.0,-30.0,-2.0,6.0,-8.0,-1.0,15.0,34.0,-32.0,0.0
4.0,0.0,-26.0,7.0,-4.0,-8.0,-2.0,1.0,19.0,-23.0,0.0
3.0,-7.0,-31.0,0.0,1.0,0.0,0.0,4.0,12.0,-23.0,0.0
3.0,-5.0,-30.0,-19.0,3.0,11.0,3.0,0.0,14.0,-16.0,0.0
4.0,1.0,-32.0,-9.0,15.0,14.0,-4.0,12.0,16.0,-12.0,0.0
1.0,10.0,-27.0,-6.0,15.0,11.0,-16.0,19.0,4.0,-14.0,0.0
4.0,15.0,-28.0,-17.0,7.0,4.0,-19.0,12.0,-1.0,-20.0,0.0
7.0,13.0,-18.0,-17.0,9.0,1.0,-19.0,1.0,4.0,-22.0,0.0
5.0,12.0,-7.0,0.0,2.0,-4.0,-21.0,-10.0,-3.0,-16.0,0.0
2.0,20.0,-4.0,12.0,-3.0,-2.0,-5.0,-1.0,6.0,-7.0,0.0
7.0,25.0,-9.0,4.0,3.0,2.0,2.0,1.0,12.0,5.0,0.0
10.0,19.0,-18.0,-9.0,0.0,-3.0,-2.0,-2.0,11.0,1.0,0.0
17.0,26.0,-16.0,2.0,0.0,1.0,-1.0,8.0,-9.0,0.0,0.0
9.0,31.0,-9.0,16.0,-2.0,9.0,23.0,14.0,0.0,7.0,0.0
-8.0,14.0,-19.0,6.0,-1.0,9.0,25.0,18.0,1.0,3.0,0.0
-26.0,-6.0,-20.0,-2.0,7.0,9.0,22.0,22.0,-5.0,1.0,0.0
-19.0,-8.0,-15.0,-3.0,15.0,16.0,30.0,10.0,-8.0,6.0,0.0
-10.0,-8.0,-10.0,-1.0,13.0,18.0,13.0,7.0,-16.0,4.0,0.0
-14.0,-4.0,-12.0,-13.0,15.0,3.0,14.0,11.0,-8.0,-4.0,0.0
-22.0,-4.0,-13.0,-20.0,13.0,-6.0,17.0,0.0,3.0,1.0,0.0
-14.0,-2.0,-15.0,-11.0,8.0,-5.0,4.0,1.0,-4.0,-3.0,0.0
-11.0,-5.0,-6.0,0.0,15.0,-4.0,0.0,0.0,-1.0,-9.0,0.0
-8.0,-7.0,-1.0,11.0,15.0,-1.0,4.0,-6.0,10.0,-13.0,0.0
-8.0,0.0,2.0,7.0,10.0,-12.0,11.0,0.0,6.0,-24.0,0.0
-4.0,0.0,13.0,1.0,8.0,-7.0,3.0,2.0,1.0,-16.0,0.0
-4.0,11.0,22.0,-14.0,1.0,-5.0,-11.0,2.0,-4.0,0.0,0.0
-7.0,20.0,32.0,-23.0,-12.0,-16.0,-11.0,10.0,-1.0,2.0,0.0
-4.0,24.0,49.0,-22.0,-14.0,-13.0,5.0,3.0,5.0,3.0,0.0
-4.0,20.0,43.0,-19.0,-19.0,-11.0,0.0,4.0,4.0,5.0,0.0
-4.0,21.0,23.0,-21.0,-7.0,-21.0,-6.0,19.0,-6.0,21.0,0.0
0.0,18.0,26.0,-23.0,-2.0,-28.0,0.0,15.0,-7.0,17.0,0.0
1.0,12.0,18.0,-22.0,8.0,-26.0,2.0,15.0,-7.0,16.0,0.0
-4.0,15.0,16.0,-5.0,10.0,-17.0,9.0,23.0,0.0,13.0,0.0
-9.0,34.0,20.0,14.0,11.0,-7.0,11.0,24.0,4.0,-1.0,0.0
-8.0,28.0,24.0,11.0,8.0,-8.0,8.0,15.0,-5.0,-6.0,0.0
0.0,41.0,35.0,17.0,4.0,-12.0,6.0,13.0,-3.0,4.0,0.0
5.0,47.0,50.0,28.0,0.0,-15.0,-8.0,1.0,12.0,8.0,0.0
8.0,36.0,34.0,32.0,1.0,-25.0,-28.0,0.0,14.0,15.0,0.0
4.0,20.0,25.0,40.0,11.0,-11.0,-18.0,0.0,12.0,12.0,0.0
-8.0,-4.0,-1.0,38.0,19.0,1.0,6.0,2.0,9.0,22.0,0.0
-11.0,-25.0,-23.0,13.0,18.0,1.0,16.0,10.0,22.0,29.0,0.0
3.0,-15.0,-16.0,9.0,6.0,0.0,0.0,8.0,27.0,19.0,0.0
18.0,18.0,4.0,9.0,11.0,13.0,4.0,10.0,26.0,3.0,0.0
11.0,15.0,8.0,4.0,13.0,9.0,14.0,9.0,30.0,-11.0,0.0
-18.0,-8.0,1.0,-6.0,16.0,15.0,10.0,9.0,24.0,-20.0,0.0
-27.0,-22.0,-7.0,-11.0,19.0,12.0,-13.0,0.0,9.0,-9.0,0.0
-19.0,-32.0,-11.0,-6.0,29.0,18.0,-6.0,12.0,22.0,-8.0,0.0
-25.0,-43.0,-4.0,-9.0,34.0,26.0,6.0,18.0,31.0,-25.0,0.0
-30.0,-27.0,4.0,-7.0,30.0,33.0,20.0,16.0,29.0,-27.0,0.0
-27.0,-3.0,15.0,13.0,29.0,40.0,39.0,22.0,12.0,-27.0,0.0
-26.0,3.0,16.0,12.0,24.0,33.0,24.0,12.0,-8.0,-18.0,0.0
-35.0,4.0,10.0,0.0,16.0,20.0,5.0,1.0,-13.0,-15.0,0.0
-28.0,-1.0,15.0,11.0,-8.0,-8.0,-3.0,-7.0,-34.0,-18.0,0.0
-10.0,5.0,19.0,16.0,-11.0,-26.0,-5.0,-10.0,-43.0,-6.0,0.0
11.0,3.0,13.0,11.0,-3.0,-23.0,-7.0,-15.0,-31.0,7.0,0.0
21.0,-17.0,0.0,17.0,6.0,-14.0,-16.0,-14.0,-24.0,3.0,0.0
16.0,-19.0,-18.0,17.0,14.0,-1.0,-20.0,-5.0,-10.0,13.0,0.0
17.0,-10.0,-27.0,8.0,11.0,12.0,1.0,2.0,8.0,23.0,0.0
19.0,-17.0,-20.0,1.0,13.0,18.0,20.0,0.0,7.0,18.0,0.0
18.0,-10.0,-26.0,-5.0,14.0,10.0,17.0,2.0,5.0,25.0,0.0
10.0,16.0,-36.0,-12.0,13.0,5.0,36.0,7.0,17.0,33.0,0.0
26.0,49.0,-30.0,-12.0,3.0,-9.0,16.0,-5.0,4.0,28.0,0.0
32.0,62.0,-16.0,-1.0,-10.0,-30.0,-11.0,-12.0,-16.0,25.0,0.0
29.0,41.0,-12.0,2.0,-15.0,-37.0,-9.0,-9.0,-26.0,19.0,0.0
22.0,28.0,-12.0,-1.0,-6.0,-29.0,0.0,-5.0,-11.0,19.0,0.0
22.0,31.0,-4.0,-9.0,-3.0,-9.0,7.0,-4.0,-9.0,26.0,0.0
13.0,41.0,4.0,-13.0,-8.0,10.0,30.0,-8.0,6.0,17.0,0.0
0.0,41.0,5.0,-15.0,-7.0,4.0,13.0,-22.0,24.0,2.0,0.0
-4.0,22.0,7.0,-6.0,-6.0,-9.0,-24.0,-37.0,13.0,-7.0,0.0
-4.0,30.0,17.0,2.0,-1.0,8.0,-9.0,-18.0,16.0,1.0,0.0
-11.0,23.0,16.0,0.0,12.0,18.0,12.0,-8.0,21.0,1.0,0.0
-16.0,-3.0,4.0,6.0,15.0,12.0,5.0,-4.0,6.0,-1.0,0.0
-20.0,-5.0,-5.0,10.0,10.0,9.0,-12.0,-7.0,-2.0,-4.0,0.0
-22.0,-10.0,-15.0,4.0,18.0,9.0,14.0,3.0,7.0,-18.0,0.0
-32.0,3.0,-14.0,11.0,21.0,23.0,27.0,12.0,21.0,-31.0,0.0
-44.0,-8.0,-9.0,16.0,22.0,14.0,-2.0,11.0,9.0,-38.0,0.0
-39.0,-27.0,-5.0,14.0,18.0,-7.0,-10.0,10.0,4.0,-35.0,0.0
-30.0,-32.0,-6.0,0.0,6.0,-5.0,-13.0,13.0,-14.0,-28.0,0.0
-18.0,-26.0,-13.0,-8.0,0.0,7.0,-22.0,-1.0,-23.0,-23.0,0.0
-11.0,-17.0,-4.0,-7.0,-10.0,0.0,-21.0,-8.0,-25.0,-16.0,0.0
2.0,12.0,16.0,0.0,-3.0,-1.0,2.0,9.0,5.0,-2.0,0.0
16.0,28.0,19.0,-13.0,5.0,-6.0,-5.0,0.0,1.0,2.0,0.0
29.0,34.0,21.0,-33.0,-2.0,-13.0,-14.0,-4.0,0.0,4.0,0.0
30.0,28.0,15.0,-29.0,-9.0,-22.0,-4.0,-12.0,7.0,4.0,0.0
27.0,34.0,13.0,-23.0,2.0,-11.0,5.0,2.0,16.0,2.0,0.0
30.0,29.0,10.0,-15.0,-4.0,-5.0,3.0,12.0,20.0,-4.0,0.0
23.0,20.0,5.0,-16.0,-11.0,3.0,-7.0,7.0,15.0,-8.0,0.0
6.0,12.0,0.0,-19.0,-7.0,9.0,-1.0,7.0,8.0,12.0,0.0
-4.0,-1.0,0.0,-16.0,0.0,14.0,-1.0,15.0,2.0,13.0,0.0
-1.0,-7.0,4.0,-14.0,5.0,14.0,-9.0,17.0,0.0,3.0,0.0
0.0,-4.0,-1.0,-4.0,-1.0,1.0,-8.0,18.0,11.0,-9.0,0.0
0.0,-1.0,6.0,5.0,2.0,-9.0,-5.0,24.0,9.0,-5.0,0.0
-9.0,-2.0,20.0,5.0,8.0,-3.0,1.0,19.0,5.0,-6.0,0.0
-11.0,-5.0,15.0,3.0,7.0,5.0,-5.0,17.0,11.0,-22.0,0.0
-12.0,-1.0,23.0,8.0,3.0,19.0,1.0,21.0,12.0,-28.0,0.0
-10.0,8.0,20.0,17.0,-2.0,13.0,12.0,11.0,12.0,-23.0,0.0
-13.0,1.0,25.0,22.0,-8.0,6.0,9.0,2.0,12.0,-14.0,0.0
-17.0,-1.0,16.0,27.0,-9.0,2.0,-4.0,7.0,-6.0,-22.0,0.0
-12.0,1.0,7.0,26.0,-12.0,0.0,2.0,11.0,-18.0,-21.0,0.0
-1.0,-4.0,16.0,23.0,-1.0,10.0,14.0,10.0,-8.0,-13.0,0.0
5.0,-4.0,-8.0,21.0,3.0,-3.0,-3.0,-6.0,4.0,19.0,0.0
6.0,-5.0,-19.0,35.0,6.0,-6.0,7.0,-7.0,0.0,16.0,0.0
4.0,-34.0,-32.0,36.0,-2.0,-38.0,-31.0,-12.0,-51.0,-17.0,0.0
0.0,-48.0,-32.0,37.0,-1.0,-51.0,-60.0,-17.0,-77.0,-24.0,0.0
4.0,4.0,-11.0,51.0,12.0,-16.0,-9.0,-11.0,7.0,6.0,0.0
4.0,33.0,6.0,39.0,9.0,-8.0,-12.0,-19.0,24.0,16.0,0.0
19.0,36.0,12.0,18.0,-4.0,1.0,-28.0,-32.0,12.0,13.0,0.0
40.0,26.0,17.0,22.0,-10.0,-1.0,-33.0,-41.0,6.0,12.0,0.0
50.0,28.0,18.0,21.0,-11.0,-11.0,-20.0,-33.0,22.0,18.0,0.0
45.0,26.0,17.0,13.0,0.0,-11.0,-20.0,-24.0,10.0,26.0,0.0
45.0,20.0,3.0,17.0,3.0,-7.0,-11.0,-18.0,7.0,31.0,0.0
45.0,5.0,-4.0,36.0,0.0,-8.0,-10.0,-26.0,4.0,23.0,0.0
26.0,-5.0,-12.0,35.0,15.0,0.0,-9.0,-28.0,8.0,20.0,0.0
5.0,-19.0,-17.0,17.0,15.0,6.0,-10.0,-11.0,14.0,17.0,0.0
-8.0,-35.0,-25.0,11.0,-3.0,12.0,-1.0,-1.0,10.0,19.0,0.0
-19.0,-59.0,-35.0,-12.0,0.0,17.0,33.0,5.0,12.0,5.0,0.0
-23.0,-52.0,-36.0,-31.0,0.0,20.0,42.0,12.0,13.0,3.0,0.0
-21.0,-29.0,-17.0,-14.0,-5.0,32.0,49.0,6.0,28.0,20.0,0.0
-23.0,-31.0,-17.0,-8.0,1.0,29.0,34.0,0.0,26.0,14.0,0.0
-22.0,-31.0,-19.0,-10.0,4.0,7.0,-6.0,-5.0,6.0,8.0,0.0
-22.0,-44.0,-20.0,-7.0,10.0,-5.0,-13.0,-8.0,3.0,3.0,0.0
-20.0,-35.0,-11.0,1.0,3.0,-2.0,-2.0,-12.0,24.0,6.0,0.0
-20.0,-30.0,-4.0,10.0,0.0,-5.0,-2.0,-15.0,18.0,6.0,0.0
-28.0,-26.0,-6.0,3.0,-7.0,-6.0,-12.0,-22.0,10.0,-1.0,0.0
-28.0,-24.0,-2.0,8.0,-8.0,-11.0,-20.0,-27.0,3.0,-3.0,0.0
-25.0,-29.0,9.0,10.0,0.0,-13.0,-26.0,-28.0,0.0,-9.0,0.0
-18.0,-20.0,15.0,6.0,-1.0,-9.0,-16.0,-26.0,-2.0,-8.0,0.0
-21.0,-8.0,20.0,6.0,0.0,-14.0,0.0,-24.0,-2.0,0.0,0.0
-14.0,-15.0,15.0,26.0,5.0,-11.0,-4.0,-20.0,4.0,-3.0,0.0
-5.0,-14.0,14.0,28.0,2.0,-17.0,-17.0,-21.0,8.0,-3.0,0.0
-11.0,-2.0,22.0,19.0,3.0,-10.0,-18.0,-21.0,6.0,7.0,0.0
-20.0,-10.0,11.0,0.0,-2.0,-13.0,5.0,-8.0,0.0,6.0,0.0
-18.0,-12.0,1.0,-8.0,0.0,-18.0,9.0,-2.0,3.0,5.0,0.0
-8.0,1.0,0.0,-12.0,-3.0,-13.0,4.0,-7.0,5.0,0.0,0.0
-5.0,21.0,9.0,-11.0,-16.0,-5.0,1.0,-7.0,17.0,6.0,0.0
-2.0,21.0,9.0,-28.0,-15.0,-15.0,3.0,2.0,14.0,16.0,0.0
4.0,12.0,2.0,-35.0,-8.0,-21.0,-1.0,-3.0,8.0,26.0,0.0
3.0,3.0,-3.0,-31.0,-6.0,-18.0,-1.0,0.0,5.0,10.0,0.0
-3.0,11.0,2.0,-15.0,-5.0,-12.0,-6.0,0.0,6.0,-6.0,0.0
0.0,18.0,15.0,-15.0,3.0,11.0,0.0,3.0,15.0,-3.0,0.0
-5.0,1.0,20.0,-12.0,7.0,10.0,8.0,-5.0,12.0,-12.0,0.0
-23.0,-1.0,13.0,15.0,-2.0,-3.0,12.0,-14.0,18.0,-11.0,0.0
-26.0,16.0,0.0,24.0,3.0,13.0,15.0,4.0,34.0,-6.0,0.0
-15.0,17.0,1.0,29.0,0.0,31.0,2.0,5.0,26.0,-5.0,0.0
-12.0,12.0,0.0,25.0,-7.0,18.0,0.0,-20.0,7.0,-10.0,0.0
-4.0,-2.0,9.0,20.0,-9.0,10.0,2.0,-19.0,1.0,-3.0,0.0
-8.0,-1.0,13.0,6.0,-10.0,14.0,-4.0,-16.0,-5.0,2.0,0.0
-12.0,0.0,7.0,-9.0,-15.0,19.0,-3.0,-12.0,-4.0,5.0,0.0
-13.0,0.0,2.0,-16.0,-13.0,13.0,11.0,-12.0,-6.0,-7.0,0.0
1.0,18.0,4.0,-10.0,-8.0,19.0,22.0,-19.0,-13.0,-4.0,0.0
8.0,27.0,3.0,18.0,-11.0,3.0,-5.0,-37.0,-19.0,3.0,0.0
3.0,31.0,-5.0,43.0,-16.0,-1.0,-25.0,-41.0,-13.0,-11.0,0.0
3.0,21.0,-6.0,50.0,-13.0,-2.0,-5.0,-25.0,-7.0,-6.0,0.0
0.0,10.0,2.0,52.0,-7.0,-7.0,0.0,-26.0,-21.0,3.0,0.0
6.0,-2.0,-3.0,40.0,-8.0,-7.0,-7.0,-23.0,-21.0,12.0,0.0
15.0,5.0,-11.0,39.0,-18.0,-10.0,-22.0,-12.0,-8.0,22.0,0.0
17.0,5.0,-1.0,38.0,-24.0,-28.0,-37.0,-28.0,-6.0,28.0,0.0
14.0,0.0,1.0,33.0,-17.0,-37.0,-38.0,-28.0,-6.0,22.0,0.0
12.0,0.0,-7.0,20.0,-5.0,-28.0,-39.0,-24.0,-4.0,13.0,0.0
-12.0,-6.0,-26.0,5.0,0.0,-9.0,-29.0,-12.0,-7.0,7.0,0.0
-26.0,-23.0,-47.0,1.0,3.0,-6.0,-4.0,0.0,-7.0,-7.0,0.0
-33.0,-27.0,-44.0,-4.0,-2.0,-4.0,5.0,8.0,-17.0,-11.0,0.0
-32.0,-34.0,-43.0,-5.0,-4.0,-3.0,8.0,6.0,-16.0,-13.0,0.0
-31.0,-40.0,-47.0,-9.0,-12.0,4.0,11.0,0.0,-5.0,-28.0,0.0
-12.0,-14.0,-37.0,0.0,-4.0,20.0,13.0,3.0,10.0,-21.0,0.0
-1.0,-18.0,-30.0,19.0,1.0,4.0,6.0,-5.0,0.0,-5.0,0.0
-8.0,-32.0,-38.0,8.0,14.0,1.0,11.0,1.0,-1.0,-3.0,0.0
-7.0,-26.0,-59.0,-8.0,13.0,8.0,2.0,12.0,6.0,2.0,0.0
1.0,-19.0,-63.0,-35.0,-2.0,-3.0,-10.0,12.0,8.0,5.0,0.0
4.0,-6.0,-56.0,-36.0,-17.0,-4.0,-10.0,6.0,0.0,10.0,0.0
3.0,-18.0,-46.0,-31.0,-20.0,2.0,-11.0,1.0,-4.0,15.0,0.0
4.0,-21.0,-37.0,-21.0,-18.0,2.0,-4.0,13.0,-8.0,4.0,0.0
2.0,-13.0,-31.0,0.0,-13.0,4.0,-13.0,18.0,-22.0,-6.0,0.0
1.0,-1.0,-14.0,8.0,-6.0,2.0,-16.0,10.0,-23.0,-24.0,0.0
-5.0,-4.0,0.0,10.0,-3.0,7.0,-13.0,5.0,-30.0,-21.0,0.0
-14.0,2.0,13.0,9.0,3.0,12.0,-19.0,-3.0,-34.0,-27.0,0.0
-28.0,7.0,22.0,13.0,7.0,8.0,-11.0,-12.0,-34.0,-28.0,0.0
-25.0,17.0,36.0,14.0,6.0,8.0,-5.0,-7.0,-30.0,-23.0,0.0
-15.0,23.0,35.0,14.0,-2.0,3.0,-5.0,-4.0,-11.0,-14.0,0.0
-1.0,14.0,20.0,5.0,-16.0,0.0,-6.0,-3.0,-11.0,-20.0,0.0
-2.0,1.0,-2.0,7.0,-17.0,-4.0,-1.0,0.0,-11.0,-9.0,0.0
-5.0,-13.0,-16.0,0.0,-13.0,0.0,-4.0,6.0,-12.0,1.0,0.0
-6.0,-27.0,-11.0,3.0,-14.0,-10.0,-12.0,5.0,-16.0,1.0,0.0
2.0,-15.0,-4.0,1.0,-26.0,-28.0,-28.0,-2.0,-10.0,5.0,0.0
10.0,7.0,-5.0,1.0,-21.0,-29.0,-30.0,-5.0,-4.0,16.0,0.0
11.0,8.0,2.0,-8.0,-15.0,-15.0,-31.0,-4.0,2.0,13.0,0.0
13.0,10.0,5.0,-23.0,-19.0,-12.0,-37.0,0.0,-4.0,19.0,0.0
20.0,27.0,5.0,-21.0,-29.0,-9.0,-27.0,3.0,-7.0,16.0,0.0
23.0,32.0,2.0,-20.0,-37.0,-8.0,-32.0,3.0,-10.0,18.0,0.0
19.0,22.0,12.0,-23.0,-29.0,-25.0,-31.0,4.0,-14.0,26.0,0.0
17.0,9.0,19.0,-31.0,-21.0,-10.0,-20.0,0.0,-6.0,41.0,0.0
13.0,8.0,17.0,-34.0,-16.0,-10.0,-12.0,-3.0,-2.0,40.0,0.0
12.0,12.0,-2.0,-19.0,-23.0,-16.0,-5.0,-3.0,-5.0,32.0,0.0
13.0,11.0,0.0,-8.0,-34.0,-12.0,0.0,-6.0,-10.0,33.0,0.0
11.0,5.0,0.0,-3.0,-32.0,-6.0,1.0,-7.0,0.0,30.0,0.0
14.0,3.0,-5.0,10.0,-22.0,-2.0,6.0,-8.0,-8.0,25.0,0.0
11.0,0.0,-4.0,12.0,-14.0,10.0,14.0,-1.0,-8.0,28.0,0.0
3.0,-1.0,-3.0,8.0,-20.0,7.0,12.0,4.0,-1.0,29.0,0.0
-1.0,-3.0,-11.0,11.0,-25.0,1.0,17.0,3.0,-9.0,25.0,0.0
-6.0,-10.0,-27.0,1.0,-16.0,9.0,16.0,15.0,-1.0,20.0,0.0
-10.0,-26.0,-39.0,-2.0,-3.0,28.0,24.0,27.0,14.0,21.0,0.0
-14.0,-29.0,-29.0,9.0,2.0,28.0,38.0,24.0,21.0,25.0,0.0
-18.0,-21.0,-14.0,23.0,7.0,32.0,36.0,23.0,20.0,24.0,0.0
-19.0,-9.0,-11.0,28.0,12.0,36.0,31.0,24.0,2.0,17.0,0.0
-21.0,-10.0,2.0,24.0,29.0,34.0,43.0,18.0,-12.0,8.0,0.0
-7.0,-8.0,17.0,25.0,27.0,32.0,33.0,13.0,-6.0,4.0,0.0
4.0,-4.0,27.0,19.0,12.0,26.0,14.0,1.0,-11.0,3.0,0.0
6.0,3.0,32.0,16.0,-2.0,10.0,9.0,1.0,-18.0,-2.0,0.0
2.0,8.0,27.0,11.0,-5.0,13.0,18.0,0.0,-15.0,7.0,0.0
-2.0,10.0,19.0,-3.0,-10.0,15.0,10.0,11.0,-8.0,5.0,0.0
0.0,5.0,8.0,-8.0,-17.0,18.0,4.0,9.0,-6.0,-2.0,0.0
12.0,2.0,5.0,-12.0,-19.0,20.0,0.0,3.0,-5.0,-3.0,0.0
15.0,0.0,-5.0,-22.0,-21.0,11.0,6.0,6.0,3.0,2.0,0.0
4.0,7.0,4.0,-23.0,-17.0,11.0,18.0,10.0,13.0,3.0,0.0
-11.0,-7.0,-9.0,-4.0,-17.0,21.0,23.0,1.0,17.0,-2.0,0.0
-9.0,-12.0,-25.0,3.0,-24.0,21.0,11.0,0.0,13.0,-16.0,0.0
-5.0,4.0,-17.0,11.0,-20.0,15.0,0.0,-3.0,1.0,-11.0,0.0
-3.0,12.0,-7.0,16.0,-9.0,12.0,5.0,-1.0,-13.0,-12.0,0.0
-17.0,0.0,9.0,8.0,-4.0,11.0,16.0,-5.0,-2.0,-17.0,0.0
-18.0,1.0,19.0,6.0,-12.0,7.0,12.0,2.0,3.0,-13.0,0.0
-19.0,-7.0,32.0,5.0,-14.0,4.0,8.0,-1.0,-1.0,-20.0,0.0
-6.0,-10.0,37.0,11.0,-9.0,6.0,12.0,-3.0,8.0,-14.0,0.0
0.0,-2.0,36.0,11.0,-7.0,11.0,10.0,3.0,16.0,-2.0,0.0
1.0,0.0,25.0,7.0,-5.0,17.0,2.0,4.0,19.0,12.0,0.0
8.0,-8.0,11.0,-1.0,1.0,23.0,-5.0,9.0,12.0,15.0,0.0
12.0,-4.0,11.0,2.0,-1.0,19.0,-2.0,18.0,17.0,10.0,0.0
7.0,1.0,4.0,12.0,-1.0,11.0,12.0,22.0,19.0,9.0,0.0
8.0,2.0,4.0,9.0,-12.0,3.0,4.0,18.0,10.0,3.0,0.0
10.0,0.0,12.0,7.0,-21.0,-4.0,-13.0,14.0,14.0,0.0,0.0
18.0,10.0,20.0,5.0,-17.0,1.0,-9.0,16.0,13.0,4.0,0.0
16.0,37.0,11.0,1.0,-7.0,12.0,0.0,13.0,8.0,21.0,0.0
7.0,34.0,15.0,-1.0,-4.0,-1.0,-2.0,-3.0,7.0,22.0,0.0
-10.0,14.0,18.0,1.0,-15.0,-9.0,1.0,-9.0,1.0,-7.0,0.0
-17.0,2.0,24.0,5.0,-10.0,-2.0,-7.0,-11.0,2.0,-15.0,0.0
-7.0,0.0,14.0,2.0,-11.0,7.0,-21.0,2.0,8.0,-5.0,0.0
-2.0,3.0,15.0,-3.0,-9.0,10.0,4.0,8.0,7.0,-1.0,0.0
-1.0,0.0,0.0,3.0,-5.0,13.0,25.0,6.0,15.0,1.0,0.0
-2.0,-2.0,1.0,12.0,-3.0,9.0,19.0,4.0,7.0,16.0,0.0
8.0,4.0,1.0,12.0,-6.0,9.0,11.0,0.0,4.0,19.0,0.0
19.0,3.0,-4.0,7.0,4.0,0.0,14.0,5.0,-4.0,13.0,0.0
17.0,-1.0,-7.0,8.0,11.0,3.0,20.0,2.0,0.0,3.0,0.0
15.0,-8.0,-6.0,-1.0,6.0,2.0,3.0,-9.0,-4.0,-8.0,0.0
15.0,1.0,-3.0,0.0,-3.0,-3.0,-7.0,-13.0,-21.0,-13.0,0.0
10.0,3.0,-1.0,0.0,-9.0,-7.0,8.0,-13.0,-22.0,-15.0,0.0
2.0,8.0,-3.0,2.0,-10.0,-11.0,19.0,-9.0,-13.0,-13.0,0.0
-3.0,9.0,-3.0,1.0,-5.0,-13.0,7.0,-8.0,-7.0,-12.0,0.0
7.0,17.0,9.0,1.0,0.0,-5.0,8.0,-6.0,-3.0,-7.0,0.0
10.0,23.0,22.0,4.0,-3.0,2.0,20.0,1.0,3.0,9.0,0.0
24.0,43.0,35.0,3.0,-1.0,7.0,24.0,3.0,16.0,30.0,0.0
25.0,58.0,34.0,6.0,2.0,25.0,46.0,12.0,30.0,21.0,0.0
11.0,38.0,33.0,18.0,9.0,11.0,35.0,-3.0,10.0,11.0,0.0
7.0,16.0,20.0,19.0,14.0,-3.0,25.0,-15.0,-7.0,0.0,0.0
-4.0,-3.0,15.0,5.0,15.0,0.0,38.0,-10.0,-4.0,-16.0,0.0
-15.0,-7.0,13.0,0.0,17.0,6.0,38.0,4.0,-13.0,-14.0,0.0
-8.0,-5.0,24.0,-1.0,12.0,7.0,31.0,17.0,-25.0,-25.0,0.0
-12.0,0.0,20.0,9.0,10.0,2.0,14.0,12.0,-17.0,-31.0,0.0
-18.0,-5.0,19.0,8.0,21.0,-1.0,0.0,17.0,-21.0,-16.0,0.0
-17.0,-16.0,5.0,4.0,24.0,-2.0,19.0,17.0,-17.0,-1.0,0.0
-17.0,-14.0,-10.0,-2.0,30.0,-4.0,21.0,14.0,-16.0,0.0,0.0
-23.0,-6.0,-9.0,-4.0,19.0,6.0,10.0,12.0,-2.0,-9.0,0.0
-21.0,20.0,0.0,-11.0,1.0,4.0,15.0,12.0,3.0,-15.0,0.0
-7.0,36.0,18.0,-9.0,-10.0,1.0,5.0,-5.0,0.0,-10.0,0.0
-11.0,36.0,22.0,5.0,-4.0,4.0,15.0,-9.0,-3.0,-3.0,0.0
-13.0,26.0,24.0,13.0,-7.0,8.0,19.0,-10.0,6.0,-13.0,0.0
-26.0,7.0,22.0,10.0,-7.0,12.0,0.0,0.0,3.0,-12.0,0.0
-30.0,4.0,13.0,-7.0,-2.0,23.0,13.0,-5.0,-7.0,-12.0,0.0
-28.0,0.0,10.0,-5.0,2.0,20.0,16.0,-11.0,-14.0,-18.0,0.0
-12.0,-9.0,3.0,-6.0,-8.0,3.0,-4.0,-16.0,-21.0,-25.0,0.0
0.0,-7.0,0.0,-5.0,-11.0,2.0,9.0,-15.0,-31.0,-19.0,0.0
9.0,-4.0,4.0,-6.0,-7.0,15.0,20.0,-3.0,-24.0,-18.0,0.0
13.0,0.0,2.0,-4.0,4.0,25.0,24.0,3.0,-9.0,-8.0,0.0
17.0,6.0,1.0,3.0,10.0,40.0,27.0,6.0,11.0,14.0,0.0
17.0,2.0,8.0,-1.0,9.0,36.0,20.0,2.0,16.0,21.0,0.0
23.0,13.0,1.0,-9.0,16.0,30.0,35.0,6.0,40.0,21.0,0.0
29.0,6.0,-7.0,-9.0,14.0,15.0,5.0,6.0,38.0,20.0,0.0
25.0,-17.0,-17.0,-6.0,11.0,5.0,3.0,20.0,24.0,15.0,0.0
9.0,-24.0,-12.0,-12.0,10.0,-2.0,-5.0,21.0,10.0,1.0,0.0
-4.0,-21.0,-7.0,-10.0,7.0,11.0,-15.0,14.0,8.0,-14.0,0.0
-13.0,-26.0,-11.0,-21.0,3.0,12.0,-12.0,13.0,3.0,-28.0,0.0
-20.0,-24.0,-11.0,-14.0,7.0,6.0,-11.0,21.0,-10.0,-27.0,0.0
-24.0,-15.0,5.0,-5.0,15.0,7.0,-12.0,22.0,-13.0,-29.0,0.0
-15.0,-10.0,19.0,-3.0,11.0,19.0,-11.0,22.0,-12.0,-39.0,0.0
-9.0,-2.0,13.0,-10.0,10.0,22.0,-5.0,19.0,-20.0,-33.0,0.0
-14.0,2.0,31.0,-8.0,10.0,20.0,-15.0,10.0,-15.0,-16.0,0.0
-1.0,7.0,25.0,-9.0,13.0,13.0,-10.0,8.0,-20.0,-7.0,0.0
2.0,3.0,-2.0,-6.0,19.0,14.0,4.0,10.0,-19.0,-8.0,0.0
9.0,14.0,-15.0,-21.0,2.0,11.0,10.0,12.0,-24.0,2.0,0.0
20.0,4.0,-26.0,-12.0,4.0,9.0,23.0,9.0,-20.0,8.0,0.0
25.0,0.0,-36.0,-9.0,10.0,2.0,6.0,11.0,-17.0,13.0,0.0
33.0,2.0,-29.0,-14.0,13.0,1.0,3.0,7.0,-20.0,11.0,0.0
52.0,7.0,-1.0,-8.0,9.0,0.0,3.0,-4.0,-26.0,16.0,0.0
68.0,8.0,15.0,-8.0,3.0,-8.0,-9.0,2.0,-19.0,3.0,0.0
57.0,16.0,9.0,-13.0,-8.0,-10.0,-4.0,-6.0,-21.0,1.0,0.0
42.0,21.0,5.0,-17.0,-14.0,-8.0,-3.0,-9.0,-22.0,3.0,0.0
35.0,25.0,11.0,-15.0,-17.0,-16.0,-10.0,-14.0,-9.0,-1.0,0.0
33.0,27.0,0.0,-17.0,-11.0,-20.0,0.0,-15.0,0.0,-6.0,0.0
18.0,17.0,-15.0,-38.0,-17.0,-13.0,9.0,1.0,8.0,-19.0,0.0
13.0,14.0,-19.0,-49.0,-15.0,0.0,10.0,9.0,4.0,-17.0,0.0
13.0,11.0,-19.0,-38.0,-13.0,0.0,19.0,13.0,1.0,-24.0,0.0
7.0,2.0,-16.0,-20.0,-6.0,7.0,9.0,16.0,5.0,-37.0,0.0
-7.0,-7.0,-4.0,-16.0,0.0,18.0,16.0,10.0,12.0,-45.0,0.0
-12.0,-32.0,-12.0,-30.0,7.0,31.0,29.0,16.0,16.0,-42.0,0.0
-26.0,-48.0,-26.0,-46.0,6.0,35.0,26.0,22.0,11.0,-26.0,0.0
-18.0,-26.0,-18.0,-44.0,-6.0,23.0,17.0,19.0,7.0,-13.0,0.0
-3.0,0.0,0.0,-31.0,-10.0,10.0,-3.0,11.0,7.0,-17.0,0.0
4.0,10.0,15.0,-19.0,-3.0,12.0,13.0,0.0,21.0,-11.0,0.0
6.0,16.0,6.0,-8.0,-3.0,24.0,17.0,-13.0,24.0,0.0,0.0
13.0,25.0,1.0,-11.0,-8.0,5.0,18.0,-5.0,24.0,10.0,0.0
28.0,10.0,-1.0,0.0,-5.0,-4.0,-4.0,4.0,7.0,19.0,0.0
30.0,-4.0,1.0,5.0,-6.0,-6.0,-17.0,14.0,3.0,21.0,0.0
33.0,7.0,12.0,0.0,-6.0,-8.0,-10.0,12.0,18.0,9.0,0.0
24.0,9.0,8.0,-12.0,-8.0,-9.0,-13.0,14.0,25.0,-1.0,0.0
13.0,6.0,5.0,-10.0,-8.0,-9.0,-22.0,0.0,24.0,-2.0,0.0
-8.0,7.0,10.0,-2.0,0.0,-7.0,-9.0,-8.0,22.0,6.0,0.0
-17.0,-5.0,4.0,1.0,10.0,-8.0,-12.0,5.0,15.0,-2.0,0.0
-11.0,-16.0,3.0,-7.0,0.0,-8.0,-14.0,20.0,15.0,-4.0,0.0
-4.0,-7.0,0.0,-9.0,-3.0,-3.0,5.0,33.0,13.0,-11.0,0.0
-3.0,-13.0,-2.0,11.0,-3.0,-11.0,6.0,26.0,11.0,-9.0,0.0
10.0,-19.0,2.0,26.0,0.0,-10.0,8.0,13.0,1.0,-4.0,0.0
19.0,-5.0,9.0,17.0,3.0,-11.0,0.0,10.0,-2.0,3.0,0.0
20.0,6.0,16.0,12.0,-3.0,-14.0,-10.0,12.0,12.0,6.0,0.0
18.0,1.0,15.0,20.0,-6.0,0.0,-14.0,7.0,22.0,20.0,0.0
20.0,2.0,22.0,27.0,-2.0,3.0,-19.0,9.0,20.0,20.0,0.0
29.0,3.0,18.0,17.0,15.0,1.0,-20.0,13.0,14.0,14.0,0.0
31.0,8.0,17.0,-3.0,10.0,0.0,-8.0,6.0,14.0,9.0,0.0
20.0,16.0,25.0,-14.0,7.0,-7.0,-11.0,-4.0,13.0,-1.0,0.0
16.0,24.0,14.0,-20.0,7.0,-13.0,-17.0,-4.0,8.0,7.0,0.0
23.0,8.0,-1.0,-17.0,2.0,-13.0,-25.0,0.0,7.0,13.0,0.0
8.0,3.0,-2.0,-21.0,-5.0,-4.0,-15.0,-7.0,-6.0,4.0,0.0
2.0,4.0,13.0,-21.0,1.0,-1.0,-11.0,-12.0,-13.0,3.0,0.0
-6.0,3.0,1.0,-31.0,4.0,-2.0,-31.0,-7.0,-18.0,3.0,0.0
0.0,-1.0,4.0,-23.0,-3.0,0.0,-10.0,1.0,-7.0,0.0,0.0
0.0,-5.0,-3.0,-20.0,1.0,3.0,8.0,4.0,0.0,12.0,0.0
-9.0,-4.0,3.0,-17.0,20.0,6.0,-3.0,-4.0,-5.0,13.0,0.0
-3.0,2.0,2.0,-10.0,31.0,18.0,3.0,-5.0,-15.0,2.0,0.0
-2.0,12.0,2.0,-2.0,32.0,14.0,4.0,-7.0,-3.0,-2.0,0.0
-7.0,9.0,-2.0,-2.0,25.0,1.0,-14.0,-9.0,3.0,-10.0,0.0
-5.0,-8.0,-9.0,-8.0,16.0,-3.0,-9.0,-14.0,-17.0,-11.0,0.0
-5.0,-14.0,-10.0,5.0,19.0,0.0,4.0,-27.0,-22.0,-4.0,0.0
-13.0,-18.0,-19.0,18.0,18.0,1.0,-5.0,-20.0,-12.0,-4.0,0.0
-11.0,-16.0,-16.0,28.0,0.0,-14.0,-6.0,-3.0,-13.0,-7.0,0.0
-4.0,-11.0,2.0,34.0,-5.0,-22.0,1.0,-2.0,-7.0,-7.0,0.0
-7.0,-7.0,12.0,33.0,1.0,-26.0,-7.0,-18.0,2.0,-1.0,0.0
-9.0,12.0,27.0,34.0,5.0,-22.0,-18.0,-15.0,-2.0,0.0,0.0
-8.0,18.0,26.0,27.0,1.0,-15.0,-7.0,-16.0,-22.0,7.0,0.0
2.0,28.0,9.0,16.0,0.0,-13.0,8.0,-21.0,-12.0,0.0,0.0
-11.0,36.0,-17.0,0.0,-8.0,0.0,29.0,-10.0,25.0,-12.0,0.0
-33.0,21.0,-33.0,-6.0,2.0,8.0,43.0,-3.0,27.0,-16.0,0.0
-38.0,-5.0,-38.0,-4.0,15.0,10.0,32.0,8.0,20.0,-18.0,0.0
-35.0,-22.0,-47.0,-2.0,23.0,21.0,49.0,19.0,25.0,-9.0,0.0
-31.0,-36.0,-38.0,-4.0,22.0,2.0,35.0,5.0,3.0,-11.0,0.0
-34.0,-32.0,-37.0,-7.0,25.0,15.0,33.0,-8.0,0.0,-5.0,0.0
-16.0,-16.0,-24.0,-4.0,20.0,16.0,37.0,-1.0,-1.0,3.0,0.0
-4.0,-4.0,-12.0,8.0,18.0,7.0,35.0,-4.0,0.0,0.0,0.0
-7.0,3.0,-5.0,5.0,8.0,6.0,35.0,5.0,4.0,-14.0,0.0
2.0,-7.0,-10.0,10.0,0.0,-5.0,25.0,6.0,-2.0,-11.0,0.0
11.0,-28.0,-8.0,11.0,6.0,-21.0,2.0,-5.0,-23.0,-12.0,0.0
21.0,-27.0,0.0,2.0,-1.0,-36.0,0.0,-2.0,-17.0,-11.0,0.0
16.0,-22.0,-7.0,8.0,-3.0,-35.0,-21.0,3.0,0.0,-11.0,0.0
20.0,-21.0,-17.0,12.0,7.0,-25.0,-19.0,-6.0,-10.0,-9.0,0.0
21.0,-33.0,-16.0,9.0,14.0,-26.0,-4.0,-3.0,-22.0,-5.0,0.0
15.0,-40.0,-7.0,-20.0,21.0,-31.0,-12.0,2.0,-5.0,-9.0,0.0
13.0,-31.0,-8.0,-30.0,18.0,-29.0,-13.0,0.0,-10.0,-25.0,0.0
9.0,-17.0,-11.0,-17.0,16.0,-31.0,2.0,0.0,-15.0,-27.0,0.0
-2.0,-19.0,-13.0,-2.0,22.0,-28.0,-7.0,5.0,-8.0,-23.0,0.0
-4.0,-22.0,-12.0,3.0,24.0,-4.0,12.0,16.0,2.0,-19.0,0.0
-5.0,-21.0,-15.0,10.0,11.0,14.0,26.0,35.0,3.0,-14.0,0.0
-13.0,-22.0,-9.0,9.0,11.0,-4.0,11.0,29.0,0.0,-10.0,0.0
-15.0,-7.0,3.0,22.0,10.0,-1.0,13.0,24.0,7.0,-6.0,0.0
-6.0,-4.0,17.0,18.0,5.0,3.0,8.0,15.0,11.0,0.0,0.0
1.0,-17.0,22.0,27.0,7.0,-15.0,-5.0,-2.0,-1.0,-5.0,0.0
13.0,-23.0,17.0,42.0,8.0,-29.0,-15.0,-9.0,-16.0,-8.0,0.0
11.0,-25.0,8.0,35.0,10.0,-35.0,-18.0,-16.0,-25.0,6.0,0.0
5.0,-37.0,12.0,16.0,7.0,-37.0,-27.0,-22.0,-26.0,1.0,0.0
-7.0,-34.0,16.0,13.0,5.0,-34.0,-35.0,-17.0,-28.0,-7.0,0.0
-5.0,0.0,22.0,13.0,6.0,-32.0,-37.0,-18.0,-16.0,0.0,0.0
12.0,20.0,32.0,14.0,-5.0,-31.0,-31.0,-32.0,-9.0,0.0,0.0
16.0,23.0,25.0,3.0,-13.0,-28.0,-17.0,-34.0,-9.0,3.0,0.0
6.0,9.0,8.0,-6.0,0.0,-23.0,2.0,-24.0,0.0,12.0,0.0
-8.0,2.0,-1.0,-14.0,4.0,-13.0,31.0,-8.0,5.0,8.0,0.0
-21.0,-6.0,-6.0,-15.0,6.0,-3.0,33.0,-4.0,-1.0,4.0,0.0
-19.0,-8.0,-2.0,-9.0,10.0,-4.0,37.0,-7.0,8.0,-8.0,0.0
-21.0,-13.0,-2.0,-13.0,9.0,-2.0,28.0,-16.0,0.0,-2.0,0.0
-25.0,-13.0,1.0,-12.0,19.0,-7.0,30.0,-21.0,-12.0,-14.0,0.0
-22.0,-8.0,-2.0,-2.0,17.0,0.0,22.0,-18.0,0.0,-16.0,0.0
-28.0,-2.0,12.0,-3.0,5.0,-4.0,14.0,-29.0,-17.0,-20.0,0.0
-26.0,-6.0,32.0,2.0,2.0,-19.0,-5.0,-30.0,-36.0,-12.0,0.0
-24.0,-10.0,34.0,19.0,2.0,-18.0,-12.0,-20.0,-32.0,0.0,0.0
-19.0,-2.0,34.0,28.0,7.0,-6.0,-11.0,-14.0,-17.0,2.0,0.0
-18.0,4.0,28.0,19.0,14.0,6.0,-12.0,-13.0,-13.0,1.0,0.0
-25.0,1.0,17.0,15.0,22.0,2.0,-7.0,-24.0,0.0,12.0,0.0
-24.0,-14.0,4.0,-3.0,13.0,7.0,8.0,-19.0,5.0,8.0,0.0
-30.0,-38.0,-21.0,-15.0,3.0,18.0,14.0,-15.0,7.0,11.0,0.0
-28.0,-56.0,-50.0,-1.0,8.0,23.0,16.0,-17.0,15.0,8.0,0.0
-15.0,-50.0,-44.0,-4.0,12.0,25.0,-2.0,-15.0,5.0,10.0,0.0
-5.0,-18.0,-32.0,-11.0,1.0,13.0,-4.0,-12.0,6.0,15.0,0.0
3.0,-3.0,-29.0,-18.0,-4.0,7.0,-3.0,-16.0,9.0,18.0,0.0
5.0,-4.0,-24.0,-22.0,0.0,8.0,-9.0,-17.0,-5.0,20.0,0.0
4.0,-1.0,-12.0,-20.0,0.0,0.0,-4.0,-16.0,-4.0,8.0,0.0
7.0,9.0,0.0,-12.0,0.0,-4.0,-8.0,-17.0,-2.0,7.0,0.0
11.0,5.0,-6.0,-4.0,-6.0,-7.0,-9.0,-25.0,-3.0,15.0,0.0
13.0,4.0,-4.0,-2.0,-4.0,-9.0,-9.0,-27.0,6.0,22.0,0.0
11.0,-3.0,-14.0,-4.0,-4.0,0.0,-12.0,-12.0,9.0,31.0,0.0
4.0,-18.0,-10.0,-5.0,-1.0,5.0,-2.0,-6.0,5.0,25.0,0.0
-7.0,-20.0,0.0,-21.0,-3.0,-16.0,-11.0,0.0,-18.0,12.0,0.0
0.0,-2.0,-3.0,-4.0,1.0,-12.0,0.0,13.0,3.0,23.0,0.0
-4.0,-7.0,-15.0,-6.0,0.0,-10.0,21.0,22.0,25.0,20.0,0.0
-24.0,-27.0,-25.0,-9.0,3.0,2.0,27.0,14.0,28.0,16.0,0.0
-39.0,-39.0,-36.0,-12.0,8.0,12.0,20.0,4.0,19.0,19.0,0.0
-53.0,-40.0,-45.0,-15.0,11.0,27.0,20.0,7.0,5.0,10.0,0.0
-59.0,-31.0,-32.0,-20.0,4.0,25.0,33.0,1.0,5.0,3.0,0.0
-48.0,-18.0,-24.0,-46.0,-3.0,14.0,32.0,3.0,14.0,-1.0,0.0
-29.0,5.0,-7.0,-47.0,-2.0,12.0,23.0,-6.0,12.0,-6.0,0.0
-25.0,9.0,11.0,-29.0,-5.0,6.0,23.0,-1.0,16.0,-17.0,0.0
-26.0,-2.0,28.0,-8.0,-4.0,13.0,18.0,9.0,15.0,-9.0,0.0
-34.0,8.0,59.0,17.0,0.0,15.0,11.0,6.0,0.0,-13.0,0.0
-21.0,23.0,79.0,28.0,3.0,12.0,9.0,-2.0,-4.0,-18.0,0.0
4.0,50.0,85.0,23.0,11.0,13.0,19.0,-11.0,-17.0,-12.0,0.0
10.0,66.0,68.0,26.0,12.0,6.0,13.0,-11.0,-18.0,-6.0,0.0
6.0,43.0,44.0,24.0,8.0,-7.0,12.0,-10.0,-2.0,5.0,0.0
0.0,20.0,27.0,12.0,19.0,-14.0,15.0,0.0,-6.0,23.0,0.0
-1.0,4.0,14.0,0.0,37.0,6.0,18.0,2.0,-10.0,9.0,0.0
7.0,0.0,9.0,1.0,40.0,24.0,22.0,10.0,3.0,-7.0,0.0
17.0,-1.0,-17.0,-27.0,22.0,13.0,16.0,19.0,-6.0,-5.0,0.0
15.0,-8.0,-31.0,-47.0,8.0,3.0,-9.0,21.0,-1.0,3.0,0.0
7.0,-17.0,-26.0,-34.0,4.0,2.0,-8.0,14.0,6.0,13.0,0.0
11.0,-15.0,-25.0,-24.0,-8.0,6.0,-16.0,1.0,-3.0,24.0,0.0
19.0,1.0,-15.0,-33.0,-10.0,4.0,-16.0,-18.0,-8.0,23.0,0.0
19.0,2.0,-14.0,-25.0,-1.0,0.0,-13.0,-14.0,0.0,31.0,0.0
22.0,-1.0,-14.0,-19.0,0.0,-3.0,-21.0,-12.0,2.0,30.0,0.0
23.0,11.0,-14.0,-14.0,-7.0,-1.0,-5.0,-13.0,17.0,29.0,0.0
26.0,12.0,-6.0,-11.0,-8.0,-10.0,-19.0,-15.0,19.0,14.0,0.0
25.0,6.0,-6.0,-6.0,-25.0,-14.0,-20.0,-16.0,8.0,7.0,0.0
22.0,9.0,-16.0,-11.0,-34.0,-23.0,-14.0,-12.0,2.0,25.0,0.0
31.0,1.0,-18.0,-16.0,-31.0,-23.0,-17.0,4.0,-9.0,23.0,0.0
26.0,-11.0,-18.0,-13.0,-16.0,-13.0,2.0,11.0,-4.0,15.0,0.0
15.0,-7.0,-30.0,-10.0,-16.0,-3.0,3.0,13.0,1.0,10.0,0.0
11.0,-14.0,-31.0,-6.0,-11.0,-2.0,8.0,17.0,-4.0,15.0,0.0
11.0,-22.0,-18.0,-7.0,-5.0,-6.0,8.0,18.0,0.0,22.0,0.0
16.0,-11.0,-24.0,-7.0,-8.0,-5.0,-4.0,18.0,12.0,16.0,0.0
17.0,-15.0,-19.0,-11.0,-16.0,-14.0,-1.0,8.0,12.0,1.0,0.0
13.0,-26.0,-21.0,-5.0,-21.0,-24.0,-14.0,5.0,5.0,-6.0,0.0
10.0,-35.0,-15.0,11.0,-18.0,-15.0,1.0,4.0,5.0,-5.0,0.0
0.0,-22.0,-4.0,14.0,-6.0,5.0,8.0,7.0,10.0,0.0,0.0
-4.0,-11.0,-6.0,12.0,-11.0,9.0,15.0,20.0,14.0,6.0,0.0
-14.0,-23.0,-2.0,14.0,-13.0,3.0,7.0,20.0,8.0,10.0,0.0
-14.0,-28.0,7.0,32.0,-19.0,-1.0,0.0,12.0,-3.0,11.0,0.0
-8.0,-36.0,15.0,42.0,-19.0,-5.0,6.0,3.0,-13.0,8.0,0.0
-3.0,-29.0,12.0,51.0,-25.0,-11.0,8.0,-11.0,-13.0,24.0,0.0
8.0,-8.0,17.0,44.0,-32.0,-22.0,4.0,-19.0,-10.0,17.0,0.0
11.0,9.0,18.0,27.0,-36.0,-33.0,-7.0,-21.0,0.0,14.0,0.0
6.0,17.0,25.0,16.0,-24.0,-35.0,-10.0,-8.0,1.0,21.0,0.0
-5.0,9.0,25.0,-5.0,-22.0,-31.0,-8.0,-9.0,4.0,8.0,0.0
-17.0,-9.0,6.0,-9.0,-21.0,-6.0,5.0,-9.0,0.0,-3.0,0.0
-14.0,-18.0,-8.0,-12.0,-11.0,5.0,5.0,14.0,8.0,-13.0,0.0
-5.0,-35.0,-4.0,-4.0,-13.0,-3.0,7.0,18.0,20.0,-5.0,0.0
-2.0,-27.0,3.0,11.0,-12.0,-10.0,-5.0,16.0,20.0,11.0,0.0
-1.0,-12.0,16.0,0.0,-14.0,-26.0,-3.0,12.0,18.0,19.0,0.0
16.0,9.0,21.0,10.0,-15.0,-44.0,-6.0,13.0,16.0,26.0,0.0
24.0,31.0,26.0,31.0,-4.0,-38.0,-5.0,3.0,6.0,35.0,0.0
25.0,24.0,33.0,31.0,4.0,-31.0,-2.0,-8.0,-6.0,30.0,0.0
15.0,20.0,29.0,25.0,8.0,-14.0,4.0,-10.0,-3.0,21.0,0.0
7.0,8.0,32.0,14.0,16.0,-3.0,19.0,-5.0,3.0,10.0,0.0
1.0,0.0,17.0,8.0,16.0,-1.0,6.0,6.0,12.0,5.0,0.0
0.0,-1.0,18.0,22.0,12.0,6.0,13.0,-3.0,5.0,-4.0,0.0
-2.0,3.0,21.0,26.0,5.0,11.0,16.0,-11.0,-8.0,-1.0,0.0
0.0,12.0,5.0,22.0,0.0,5.0,21.0,-14.0,-7.0,-1.0,0.0
4.0,21.0,8.0,25.0,-3.0,1.0,16.0,-16.0,-1.0,2.0,0.0
0.0,10.0,0.0,13.0,6.0,1.0,16.0,-17.0,2.0,9.0,0.0
-9.0,5.0,-16.0,12.0,7.0,1.0,2.0,-10.0,0.0,17.0,0.0
-7.0,3.0,-8.0,19.0,0.0,-2.0,-2.0,-5.0,0.0,21.0,0.0
5.0,13.0,1.0,14.0,0.0,-4.0,-20.0,-8.0,0.0,30.0,0.0
22.0,39.0,13.0,17.0,0.0,-17.0,-26.0,-17.0,-3.0,21.0,0.0
22.0,53.0,18.0,34.0,12.0,-24.0,-29.0,-27.0,-16.0,10.0,0.0
15.0,40.0,25.0,30.0,19.0,-22.0,-30.0,-16.0,-7.0,12.0,0.0
4.0,19.0,21.0,26.0,16.0,-17.0,-16.0,-11.0,4.0,8.0,0.0
-6.0,6.0,12.0,32.0,6.0,-13.0,-10.0,-10.0,9.0,-3.0,0.0
-4.0,5.0,17.0,31.0,6.0,-9.0,-4.0,-5.0,10.0,-9.0,0.0
1.0,5.0,23.0,25.0,13.0,-6.0,4.0,1.0,9.0,-6.0,0.0
11.0,13.0,12.0,18.0,11.0,-7.0,1.0,-3.0,6.0,-10.0,0.0
16.0,16.0,-6.0,6.0,8.0,-13.0,5.0,-13.0,21.0,-3.0,0.0
24.0,6.0,-21.0,-16.0,6.0,-18.0,0.0,-8.0,18.0,2.0,0.0
23.0,-1.0,-19.0,-34.0,6.0,-3.0,0.0,-15.0,7.0,-6.0,0.0
26.0,1.0,-14.0,-17.0,-4.0,8.0,-8.0,-18.0,4.0,4.0,0.0
18.0,0.0,-23.0,-6.0,-5.0,5.0,-11.0,-13.0,1.0,1.0,0.0
10.0,-2.0,-19.0,-1.0,-18.0,-4.0,-10.0,-20.0,3.0,0.0,0.0
5.0,-1.0,-6.0,0.0,-20.0,-5.0,-17.0,-22.0,-6.0,0.0,0.0
3.0,13.0,12.0,0.0,-14.0,7.0,0.0,-20.0,-6.0,2.0,0.0
7.0,19.0,16.0,2.0,-10.0,7.0,-9.0,-20.0,6.0,0.0,0.0
1.0,11.0,12.0,4.0,-9.0,6.0,-17.0,-19.0,10.0,4.0,0.0
3.0,20.0,10.0,-1.0,-15.0,3.0,-9.0,-15.0,10.0,17.0,0.0
14.0,19.0,7.0,-13.0,-28.0,-14.0,-34.0,-11.0,-7.0,5.0,0.0
18.0,22.0,5.0,-19.0,-23.0,-22.0,-38.0,-15.0,-2.0,3.0,0.0
14.0,37.0,26.0,-13.0,-20.0,-15.0,-40.0,-21.0,-1.0,18.0,0.0
18.0,52.0,44.0,-6.0,-22.0,-7.0,-44.0,-8.0,-23.0,15.0,0.0
28.0,48.0,39.0,0.0,-21.0,-7.0,-39.0,-8.0,-19.0,15.0,0.0
36.0,42.0,22.0,1.0,-12.0,-17.0,-31.0,-3.0,-20.0,21.0,0.0
31.0,17.0,17.0,1.0,-4.0,-13.0,-15.0,-9.0,-22.0,4.0,0.0
17.0,-5.0,11.0,6.0,0.0,-12.0,-12.0,-4.0,-23.0,-17.0,0.0
3.0,-12.0,-16.0,10.0,1.0,0.0,-4.0,7.0,-21.0,-32.0,0.0
-15.0,-22.0,-27.0,11.0,9.0,13.0,9.0,13.0,-16.0,-34.0,0.0
-9.0,-22.0,-12.0,6.0,3.0,13.0,6.0,5.0,-15.0,-35.0,0.0
5.0,7.0,-15.0,6.0,1.0,14.0,8.0,9.0,0.0,-26.0,0.0
13.0,24.0,-20.0,6.0,7.0,29.0,8.0,20.0,19.0,-21.0,0.0
4.0,8.0,-21.0,3.0,7.0,36.0,16.0,16.0,15.0,-14.0,0.0
-11.0,-9.0,-27.0,-15.0,3.0,30.0,22.0,12.0,14.0,-13.0,0.0
-7.0,-17.0,-20.0,-24.0,9.0,27.0,18.0,21.0,7.0,-2.0,0.0
-1.0,-20.0,-19.0,-22.0,10.0,35.0,20.0,1.0,0.0,7.0,0.0
3.0,-15.0,-15.0,-17.0,16.0,35.0,10.0,4.0,1.0,-2.0,0.0
9.0,-2.0,-7.0,-31.0,16.0,46.0,12.0,8.0,8.0,6.0,0.0
1.0,4.0,7.0,-43.0,16.0,39.0,18.0,5.0,14.0,8.0,0.0
-11.0,3.0,12.0,-40.0,18.0,31.0,18.0,17.0,-4.0,-3.0,0.0
-10.0,6.0,4.0,-45.0,15.0,24.0,1.0,6.0,-35.0,-2.0,0.0
2.0,16.0,14.0,-37.0,17.0,25.0,7.0,6.0,1.0,15.0,0.0
15.0,20.0,14.0,-35.0,10.0,27.0,13.0,7.0,18.0,24.0,0.0
20.0,18.0,8.0,-40.0,5.0,28.0,12.0,-4.0,18.0,22.0,0.0
20.0,4.0,18.0,-32.0,6.0,9.0,0.0,-21.0,11.0,23.0,0.0
26.0,0.0,-3.0,-42.0,-4.0,10.0,4.0,-7.0,16.0,9.0,0.0
7.0,-7.0,-14.0,-29.0,-4.0,17.0,-14.0,-4.0,5.0,1.0,0.0
1.0,-23.0,-20.0,-20.0,8.0,8.0,-22.0,-7.0,-24.0,-4.0,0.0
-3.0,-44.0,-20.0,-16.0,11.0,-29.0,-61.0,-23.0,-86.0,-17.0,0.0
3.0,-15.0,-25.0,-10.0,13.0,-18.0,-48.0,-20.0,-44.0,-6.0,0.0
15.0,-2.0,-29.0,1.0,9.0,3.0,-16.0,-14.0,1.0,11.0,0.0
16.0,-2.0,-28.0,3.0,9.0,2.0,-12.0,-8.0,8.0,6.0,0.0
18.0,0.0,-17.0,12.0,13.0,-2.0,0.0,-9.0,12.0,3.0,0.0
13.0,4.0,-17.0,19.0,14.0,11.0,6.0,-11.0,11.0,7.0,0.0
1.0,1.0,-14.0,2.0,8.0,1.0,-6.0,1.0,-5.0,2.0,0.0
-3.0,1.0,-1.0,20.0,5.0,-12.0,2.0,-4.0,-19.0,-14.0,0.0
5.0,12.0,12.0,16.0,2.0,-4.0,0.0,-8.0,-18.0,-11.0,0.0
-3.0,20.0,14.0,17.0,5.0,-2.0,0.0,-10.0,-25.0,-12.0,0.0
-30.0,-30.0,-6.0,10.0,4.0,-22.0,-32.0,-14.0,-91.0,-26.0,0.0
-25.0,-28.0,-3.0,14.0,5.0,7.0,-3.0,0.0,-35.0,-10.0,0.0
-23.0,-14.0,2.0,23.0,9.0,9.0,8.0,2.0,-8.0,-19.0,0.0
-27.0,-23.0,-3.0,28.0,17.0,9.0,8.0,16.0,-13.0,-27.0,0.0
-15.0,-25.0,-28.0,11.0,6.0,18.0,16.0,47.0,7.0,-21.0,0.0
-2.0,-5.0,-44.0,-16.0,1.0,4.0,7.0,38.0,-2.0,-19.0,0.0
3.0,27.0,-32.0,-5.0,-1.0,6.0,8.0,29.0,24.0,0.0,0.0
-2.0,10.0,-16.0,-6.0,1.0,-5.0,5.0,14.0,-4.0,-1.0,0.0
-16.0,-5.0,-17.0,-4.0,9.0,-5.0,-3.0,10.0,-13.0,-12.0,0.0
-30.0,-9.0,-30.0,-8.0,7.0,1.0,2.0,34.0,5.0,-12.0,0.0
-34.0,-17.0,-32.0,-10.0,2.0,1.0,-6.0,41.0,0.0,-21.0,0.0
-25.0,-14.0,-22.0,-14.0,2.0,16.0,22.0,27.0,36.0,-10.0,0.0
-34.0,-15.0,-6.0,-18.0,0.0,5.0,18.0,25.0,16.0,-21.0,0.0
-34.0,-14.0,-4.0,-16.0,1.0,-19.0,2.0,13.0,-11.0,-26.0,0.0
-30.0,-36.0,-9.0,-27.0,3.0,-46.0,-40.0,-4.0,-63.0,-29.0,0.0
8.0,33.0,11.0,3.0,2.0,-4.0,13.0,1.0,5.0,4.0,0.0
14.0,26.0,-5.0,8.0,0.0,-9.0,-7.0,-3.0,-18.0,4.0,0.0
0.0,-37.0,-22.0,-26.0,-1.0,-61.0,-67.0,-16.0,-92.0,-13.0,0.0
7.0,-38.0,-26.0,-36.0,-14.0,-52.0,-48.0,-2.0,-59.0,-6.0,0.0
18.0,6.0,-19.0,-20.0,-9.0,-12.0,8.0,22.0,33.0,15.0,0.0
7.0,7.0,0.0,-11.0,-3.0,-12.0,7.0,12.0,36.0,21.0,0.0
-1.0,14.0,3.0,2.0,-1.0,-16.0,-11.0,-4.0,28.0,21.0,0.0
-7.0,20.0,10.0,-15.0,7.0,-13.0,-6.0,-11.0,23.0,9.0,0.0
-6.0,6.0,26.0,-23.0,2.0,-26.0,-27.0,-18.0,-4.0,-13.0,0.0
-7.0,18.0,56.0,-4.0,-10.0,-10.0,-21.0,-6.0,6.0,-2.0,0.0
0.0,29.0,64.0,5.0,-1.0,-3.0,-13.0,-8.0,18.0,9.0,0.0
-3.0,28.0,49.0,9.0,4.0,6.0,-13.0,-19.0,19.0,13.0,0.0
-15.0,17.0,22.0,-2.0,4.0,8.0,-24.0,-12.0,-9.0,0.0,0.0
-25.0,-2.0,10.0,-16.0,-2.0,-5.0,-29.0,-11.0,-18.0,-19.0,0.0
-22.0,10.0,-1.0,-3.0,-8.0,21.0,18.0,-4.0,29.0,-6.0,0.0
-30.0,10.0,-12.0,18.0,-2.0,28.0,17.0,-1.0,21.0,7.0,0.0
-34.0,7.0,-23.0,16.0,3.0,30.0,24.0,-2.0,2.0,5.0,0.0
-16.0,-2.0,-33.0,10.0,3.0,20.0,19.0,-11.0,-8.0,-2.0,0.0
-11.0,9.0,-30.0,8.0,2.0,15.0,20.0,-2.0,-4.0,-9.0,0.0
-8.0,13.0,-33.0,1.0,0.0,30.0,30.0,5.0,25.0,10.0,0.0
-8.0,-4.0,-46.0,-6.0,2.0,20.0,19.0,4.0,17.0,19.0,0.0
-5.0,6.0,-24.0,2.0,3.0,26.0,20.0,2.0,21.0,13.0,0.0
-5.0,20.0,-2.0,13.0,4.0,45.0,22.0,11.0,17.0,2.0,0.0
-13.0,13.0,-19.0,-1.0,2.0,38.0,6.0,14.0,-8.0,-3.0,0.0
-10.0,9.0,-16.0,7.0,1.0,21.0,8.0,6.0,7.0,21.0,0.0
-10.0,27.0,-17.0,-9.0,-12.0,18.0,-5.0,2.0,5.0,16.0,0.0
6.0,24.0,-14.0,-20.0,-20.0,8.0,-20.0,-1.0,-6.0,1.0,0.0
6.0,-30.0,-15.0,-14.0,-28.0,-39.0,-68.0,-21.0,-91.0,-17.0,0.0
-3.0,-25.0,-13.0,-4.0,-24.0,-20.0,-49.0,-6.0,-73.0,-7.0,0.0
0.0,3.0,-12.0,5.0,-28.0,2.0,-7.0,0.0,-23.0,7.0,0.0
-4.0,-8.0,-18.0,-6.0,-31.0,-4.0,-15.0,-2.0,-26.0,-1.0,0.0
-3.0,-4.0,-11.0,-9.0,-21.0,1.0,-1.0,2.0,-4.0,-5.0,0.0
-4.0,-20.0,-14.0,-19.0,-12.0,2.0,-7.0,2.0,-19.0,-9.0,0.0
0.0,0.0,-3.0,-12.0,-17.0,15.0,18.0,0.0,-4.0,-18.0,0.0
1.0,-4.0,-5.0,-13.0,-14.0,-1.0,9.0,-2.0,2.0,-20.0,0.0
5.0,-1.0,1.0,-14.0,-9.0,1.0,15.0,-9.0,7.0,-14.0,0.0
-15.0,-74.0,-1.0,-49.0,-16.0,-58.0,-79.0,-22.0,-122.0,-46.0,0.0
4.0,1.0,17.0,-43.0,-2.0,7.0,-25.0,0.0,-13.0,0.0,0.0
4.0,18.0,20.0,-31.0,10.0,25.0,-6.0,0.0,10.0,8.0,0.0
-4.0,15.0,21.0,-24.0,17.0,20.0,-29.0,-10.0,-15.0,-5.0,0.0
-15.0,-11.0,10.0,-26.0,14.0,-2.0,-45.0,-19.0,-65.0,-36.0,0.0
-9.0,30.0,1.0,-16.0,16.0,34.0,23.0,0.0,26.0,-12.0,0.0
-17.0,21.0,5.0,-13.0,13.0,34.0,24.0,1.0,26.0,-20.0,0.0
-34.0,-21.0,-3.0,-31.0,9.0,7.0,-14.0,3.0,-38.0,-35.0,0.0
-23.0,-5.0,-18.0,-32.0,13.0,31.0,33.0,34.0,29.0,-4.0,0.0
-15.0,2.0,-22.0,-20.0,0.0,41.0,46.0,37.0,36.0,-4.0,0.0
-10.0,-13.0,-28.0,-25.0,0.0,26.0,35.0,44.0,17.0,-7.0,0.0
-11.0,-54.0,-38.0,-39.0,7.0,-4.0,-7.0,31.0,-48.0,-18.0,0.0
-5.0,-33.0,-23.0,-27.0,8.0,4.0,4.0,32.0,-12.0,-6.0,0.0
1.0,15.0,-5.0,-9.0,10.0,35.0,33.0,38.0,49.0,9.0,0.0
13.0,24.0,7.0,-10.0,18.0,35.0,42.0,36.0,53.0,-9.0,0.0
4.0,18.0,7.0,-6.0,19.0,35.0,21.0,23.0,37.0,-19.0,0.0
-1.0,12.0,-3.0,-4.0,17.0,10.0,-5.0,12.0,4.0,-22.0,0.0
11.0,14.0,0.0,6.0,9.0,0.0,-12.0,10.0,2.0,-20.0,0.0
18.0,35.0,17.0,27.0,2.0,11.0,10.0,6.0,13.0,-11.0,0.0
20.0,43.0,29.0,28.0,-14.0,1.0,-6.0,-3.0,3.0,-10.0,0.0
23.0,46.0,28.0,30.0,-18.0,-20.0,-28.0,-2.0,6.0,-3.0,0.0
22.0,42.0,14.0,27.0,-2.0,-6.0,-14.0,7.0,37.0,0.0,0.0
18.0,13.0,-2.0,14.0,-5.0,-15.0,-26.0,5.0,23.0,-9.0,0.0
32.0,17.0,6.0,-8.0,1.0,-3.0,16.0,14.0,47.0,-11.0,0.0
17.0,-64.0,-6.0,-37.0,-2.0,-53.0,-60.0,-5.0,-81.0,-55.0,0.0
2.0,-81.0,-20.0,-40.0,-12.0,-65.0,-83.0,-1.0,-110.0,-61.0,0.0
1.0,-16.0,-10.0,1.0,-10.0,-2.0,0.0,33.0,-2.0,-14.0,0.0
16.0,38.0,7.0,36.0,-2.0,35.0,54.0,37.0,65.0,14.0,0.0
29.0,49.0,4.0,42.0,9.0,20.0,33.0,13.0,46.0,11.0,0.0
19.0,42.0,-4.0,35.0,2.0,-10.0,3.0,2.0,21.0,-9.0,0.0
22.0,37.0,0.0,7.0,-14.0,14.0,30.0,15.0,44.0,-8.0,0.0
33.0,21.0,-7.0,-7.0,-10.0,25.0,33.0,11.0,53.0,3.0,0.0
36.0,-10.0,-17.0,-23.0,-15.0,6.0,-8.0,-3.0,8.0,-5.0,0.0
32.0,-22.0,-16.0,-13.0,-11.0,-5.0,-10.0,-3.0,-7.0,-3.0,0.0
38.0,18.0,2.0,16.0,-2.0,15.0,17.0,-1.0,42.0,12.0,0.0
42.0,8.0,-7.0,21.0,-14.0,0.0,-6.0,-16.0,11.0,-3.0,0.0
40.0,27.0,2.0,29.0,-25.0,8.0,11.0,-1.0,25.0,0.0,0.0
28.0,18.0,-5.0,32.0,-30.0,5.0,8.0,7.0,18.0,5.0,0.0
12.0,-9.0,-15.0,26.0,-23.0,-1.0,-12.0,3.0,10.0,10.0,0.0
11.0,5.0,-4.0,22.0,-9.0,14.0,14.0,0.0,49.0,16.0,0.0
7.0,-12.0,16.0,20.0,-10.0,3.0,5.0,-9.0,32.0,8.0,0.0
0.0,-16.0,19.0,23.0,-7.0,11.0,6.0,-6.0,30.0,10.0,0.0
0.0,-4.0,21.0,21.0,-10.0,27.0,12.0,5.0,18.0,6.0,0.0
-16.0,-12.0,27.0,27.0,-9.0,12.0,-3.0,6.0,0.0,0.0,0.0
-34.0,-16.0,29.0,31.0,-9.0,20.0,5.0,-5.0,7.0,-10.0,0.0
-36.0,-16.0,36.0,33.0,1.0,22.0,0.0,5.0,2.0,-5.0,0.0
-18.0,-11.0,41.0,23.0,4.0,13.0,-13.0,-13.0,0.0,5.0,0.0
-14.0,-52.0,21.0,-9.0,-8.0,-35.0,-75.0,-39.0,-91.0,-16.0,0.0
-11.0,-33.0,17.0,-3.0,-24.0,-26.0,-68.0,-26.0,-73.0,-18.0,0.0
2.0,30.0,24.0,21.0,-16.0,9.0,-3.0,-12.0,17.0,11.0,0.0
18.0,44.0,23.0,21.0,-5.0,3.0,6.0,-19.0,29.0,24.0,0.0
12.0,38.0,23.0,26.0,2.0,4.0,0.0,-12.0,12.0,26.0,0.0
-9.0,-5.0,1.0,29.0,16.0,6.0,1.0,10.0,-17.0,-3.0,0.0
-25.0,-34.0,-7.0,8.0,22.0,11.0,16.0,15.0,5.0,-18.0,0.0
-31.0,-19.0,-27.0,-10.0,17.0,21.0,49.0,21.0,43.0,-12.0,0.0
-16.0,-18.0,-14.0,7.0,12.0,-13.0,25.0,14.0,18.0,9.0,0.0
-5.0,5.0,10.0,13.0,11.0,5.0,49.0,17.0,42.0,30.0,0.0
-17.0,-22.0,2.0,5.0,4.0,-22.0,10.0,5.0,-18.0,17.0,0.0
-34.0,-47.0,-9.0,0.0,-1.0,-43.0,-29.0,7.0,-46.0,-1.0,0.0
-26.0,1.0,-4.0,7.0,0.0,-8.0,20.0,23.0,26.0,34.0,0.0
-13.0,-2.0,-10.0,0.0,-4.0,-4.0,9.0,13.0,9.0,39.0,0.0
4.0,8.0,-8.0,25.0,19.0,11.0,25.0,9.0,43.0,17.0,0.0
-1.0,10.0,-31.0,9.0,13.0,21.0,29.0,23.0,46.0,27.0,0.0
1.0,-24.0,-35.0,-13.0,14.0,-8.0,-11.0,13.0,-29.0,12.0,0.0
15.0,28.0,-20.0,-25.0,16.0,17.0,21.0,14.0,34.0,39.0,0.0
22.0,38.0,-12.0,-22.0,8.0,23.0,28.0,16.0,30.0,47.0,0.0
23.0,24.0,-12.0,-18.0,0.0,-2.0,1.0,5.0,3.0,26.0,0.0
15.0,25.0,6.0,-8.0,-1.0,-18.0,0.0,-6.0,-2.0,32.0,0.0
15.0,43.0,4.0,7.0,-1.0,4.0,29.0,12.0,34.0,54.0,0.0
1.0,24.0,-8.0,-1.0,2.0,-4.0,2.0,5.0,-12.0,34.0,0.0
-16.0,-20.0,-13.0,-29.0,1.0,-49.0,-60.0,-18.0,-92.0,-1.0,0.0
-6.0,0.0,2.0,-18.0,1.0,-20.0,-30.0,9.0,-33.0,10.0,0.0
1.0,36.0,22.0,6.0,-3.0,3.0,2.0,22.0,20.0,32.0,0.0
9.0,42.0,16.0,12.0,-8.0,-2.0,-7.0,12.0,15.0,28.0,0.0
8.0,37.0,9.0,10.0,-1.0,2.0,-3.0,13.0,18.0,26.0,0.0
12.0,29.0,0.0,4.0,7.0,1.0,5.0,17.0,17.0,21.0,0.0
3.0,4.0,1.0,5.0,15.0,-5.0,-2.0,14.0,0.0,22.0,0.0
3.0,17.0,1.0,9.0,15.0,5.0,21.0,24.0,32.0,25.0,0.0
5.0,27.0,-6.0,5.0,6.0,0.0,21.0,20.0,35.0,29.0,0.0
4.0,22.0,-12.0,9.0,-13.0,-4.0,24.0,6.0,30.0,36.0,0.0
8.0,10.0,-10.0,6.0,-21.0,-9.0,23.0,-4.0,6.0,25.0,0.0
9.0,7.0,-3.0,6.0,-24.0,-6.0,25.0,-9.0,-8.0,11.0,0.0
13.0,14.0,3.0,10.0,-18.0,-1.0,24.0,-2.0,5.0,16.0,0.0
11.0,5.0,5.0,14.0,-9.0,8.0,19.0,1.0,0.0,10.0,0.0
3.0,0.0,-7.0,9.0,-2.0,19.0,16.0,12.0,1.0,8.0,0.0
0.0,-12.0,-10.0,0.0,12.0,12.0,15.0,6.0,-13.0,0.0,0.0
-8.0,-17.0,-9.0,9.0,3.0,18.0,21.0,6.0,-10.0,-11.0,0.0
2.0,1.0,8.0,21.0,0.0,26.0,11.0,17.0,8.0,-4.0,0.0
1.0,-7.0,6.0,21.0,-4.0,21.0,0.0,17.0,11.0,-6.0,0.0
-2.0,-27.0,4.0,8.0,-2.0,1.0,-28.0,12.0,-10.0,-17.0,0.0
-12.0,-53.0,-1.0,-33.0,-4.0,-32.0,-66.0,-8.0,-73.0,-35.0,0.0
-2.0,-12.0,0.0,-31.0,-4.0,-4.0,-31.0,-1.0,-10.0,-15.0,0.0
-9.0,10.0,10.0,-15.0,-7.0,12.0,-9.0,0.0,27.0,3.0,0.0
-13.0,16.0,12.0,-6.0,0.0,4.0,-2.0,3.0,20.0,8.0,0.0
-20.0,8.0,3.0,-15.0,-1.0,-12.0,-6.0,-5.0,9.0,7.0,0.0
-17.0,2.0,1.0,-17.0,-4.0,-21.0,2.0,-10.0,-1.0,6.0,0.0
-21.0,11.0,20.0,-8.0,-3.0,-18.0,13.0,-9.0,19.0,3.0,0.0
-16.0,11.0,27.0,-2.0,-4.0,-11.0,13.0,-8.0,12.0,-4.0,0.0
-9.0,-7.0,28.0,-1.0,-10.0,-17.0,-14.0,-22.0,-14.0,-3.0,0.0
-21.0,-51.0,14.0,-17.0,-2.0,-47.0,-51.0,-29.0,-80.0,-18.0,0.0
-21.0,-22.0,9.0,-6.0,4.0,-5.0,-14.0,-15.0,-22.0,4.0,0.0
-16.0,0.0,-3.0,10.0,16.0,14.0,15.0,0.0,9.0,15.0,0.0
-2.0,13.0,-3.0,4.0,12.0,7.0,19.0,9.0,8.0,11.0,0.0
14.0,20.0,-18.0,-24.0,-2.0,-10.0,10.0,11.0,-4.0,12.0,0.0
13.0,12.0,-40.0,-26.0,-15.0,-24.0,-10.0,3.0,-3.0,12.0,0.0
3.0,3.0,-22.0,4.0,0.0,-18.0,5.0,10.0,29.0,8.0,0.0
-8.0,-13.0,-30.0,22.0,8.0,0.0,5.0,9.0,26.0,14.0,0.0
-11.0,-35.0,-32.0,18.0,16.0,-9.0,-3.0,-1.0,0.0,15.0,0.0
-8.0,-75.0,-38.0,-2.0,19.0,-51.0,-53.0,-30.0,-71.0,6.0,0.0
8.0,-27.0,-24.0,6.0,4.0,-19.0,-7.0,-12.0,-3.0,32.0,0.0
32.0,17.0,-19.0,3.0,-12.0,-2.0,7.0,6.0,34.0,41.0,0.0
33.0,25.0,-24.0,-7.0,-14.0,-12.0,8.0,12.0,25.0,29.0,0.0
15.0,8.0,-13.0,-17.0,-19.0,-17.0,-2.0,11.0,10.0,10.0,0.0
5.0,5.0,0.0,-15.0,-12.0,-11.0,-4.0,10.0,0.0,8.0,0.0
1.0,1.0,-2.0,2.0,-5.0,14.0,13.0,2.0,25.0,10.0,0.0
-1.0,11.0,2.0,9.0,-6.0,17.0,21.0,5.0,37.0,4.0,0.0
-9.0,-6.0,8.0,10.0,-8.0,-6.0,7.0,0.0,19.0,-5.0,0.0
-10.0,-56.0,-18.0,1.0,-10.0,-49.0,-50.0,-18.0,-60.0,-32.0,0.0
1.0,-24.0,-5.0,14.0,-7.0,-12.0,-21.0,-3.0,2.0,-16.0,0.0
6.0,-3.0,8.0,37.0,-3.0,-5.0,2.0,-2.0,44.0,-2.0,0.0
-2.0,8.0,3.0,35.0,-2.0,-9.0,0.0,-10.0,34.0,8.0,0.0
-2.0,3.0,6.0,8.0,2.0,-10.0,-13.0,-15.0,2.0,-2.0,0.0
5.0,0.0,14.0,0.0,4.0,-10.0,-15.0,-19.0,-7.0,-5.0,0.0
27.0,14.0,23.0,7.0,7.0,5.0,6.0,-3.0,31.0,6.0,0.0
28.0,23.0,17.0,1.0,10.0,2.0,0.0,-6.0,31.0,6.0,0.0
14.0,-2.0,-3.0,-8.0,11.0,-18.0,-20.0,-24.0,10.0,-6.0,0.0
0.0,-47.0,-14.0,-20.0,3.0,-51.0,-57.0,-34.0,-59.0,-39.0,0.0
4.0,-18.0,-21.0,22.0,-1.0,-18.0,-23.0,-9.0,8.0,-7.0,0.0
8.0,8.0,-17.0,32.0,-3.0,7.0,14.0,-3.0,37.0,22.0,0.0
5.0,-1.0,-12.0,30.0,-1.0,7.0,9.0,-6.0,28.0,11.0,0.0
-3.0,-6.0,-17.0,32.0,0.0,2.0,-13.0,-4.0,9.0,-14.0,0.0
-9.0,-14.0,-22.0,32.0,-3.0,-9.0,-5.0,-14.0,9.0,-23.0,0.0
5.0,6.0,-7.0,12.0,0.0,5.0,9.0,-12.0,33.0,-9.0,0.0
9.0,20.0,-5.0,2.0,-4.0,8.0,6.0,-3.0,33.0,0.0,0.0
6.0,-2.0,-16.0,10.0,-14.0,-9.0,-19.0,-14.0,14.0,0.0,0.0
-11.0,-46.0,-26.0,-8.0,-9.0,-38.0,-46.0,-28.0,-51.0,-16.0,0.0
-9.0,-16.0,-8.0,-6.0,-8.0,3.0,-4.0,-19.0,3.0,0.0,0.0
-7.0,1.0,0.0,-13.0,-10.0,24.0,19.0,-15.0,18.0,2.0,0.0
-3.0,7.0,6.0,-17.0,-4.0,7.0,5.0,-12.0,14.0,-4.0,0.0
0.0,-4.0,7.0,-12.0,2.0,-12.0,-8.0,-4.0,-5.0,-15.0,0.0
-15.0,-13.0,14.0,-11.0,0.0,0.0,-2.0,-7.0,-2.0,-26.0,0.0
-20.0,-7.0,42.0,27.0,14.0,18.0,-9.0,-10.0,21.0,-4.0,0.0
-21.0,-12.0,29.0,24.0,12.0,0.0,-4.0,-13.0,13.0,-12.0,0.0
-20.0,-15.0,11.0,16.0,7.0,-9.0,-9.0,-18.0,-10.0,-10.0,0.0
-10.0,-31.0,8.0,-5.0,4.0,-39.0,-54.0,-36.0,-72.0,-19.0,0.0
8.0,13.0,7.0,-2.0,0.0,-16.0,-17.0,-25.0,-10.0,-5.0,0.0
-4.0,29.0,-2.0,2.0,0.0,5.0,-3.0,-13.0,25.0,4.0,0.0
-9.0,13.0,-11.0,8.0,8.0,10.0,-3.0,-1.0,41.0,0.0,0.0
-6.0,4.0,-14.0,4.0,6.0,11.0,-20.0,-5.0,16.0,5.0,0.0
-7.0,1.0,-17.0,-2.0,8.0,9.0,-30.0,-21.0,-7.0,18.0,0.0
4.0,-9.0,-10.0,11.0,7.0,18.0,-10.0,-7.0,27.0,17.0,0.0
7.0,-5.0,-4.0,10.0,16.0,6.0,-3.0,-5.0,21.0,15.0,0.0
-6.0,-13.0,-5.0,-8.0,19.0,-15.0,-30.0,-8.0,0.0,0.0,0.0
-16.0,-47.0,-12.0,-25.0,11.0,-35.0,-77.0,-23.0,-70.0,-29.0,0.0
-4.0,-20.0,-4.0,-5.0,21.0,-10.0,-27.0,-11.0,-11.0,-10.0,0.0
-16.0,-3.0,3.0,8.0,21.0,2.0,6.0,9.0,17.0,11.0,0.0
-12.0,-7.0,6.0,-4.0,17.0,10.0,4.0,1.0,9.0,9.0,0.0
-8.0,-24.0,4.0,-2.0,19.0,7.0,-6.0,-7.0,-9.0,-8.0,0.0
-17.0,-16.0,0.0,1.0,11.0,1.0,-5.0,-8.0,-9.0,-7.0,0.0
-3.0,8.0,-5.0,0.0,13.0,9.0,9.0,0.0,25.0,13.0,0.0
-7.0,-2.0,-1.0,-8.0,7.0,-10.0,13.0,-10.0,28.0,15.0,0.0
-22.0,-14.0,-1.0,-15.0,6.0,-31.0,-11.0,-18.0,-5.0,9.0,0.0
-39.0,-40.0,3.0,-20.0,5.0,-47.0,-54.0,-20.0,-74.0,-20.0,0.0
-32.0,1.0,16.0,0.0,4.0,-11.0,-5.0,-7.0,-18.0,3.0,0.0
-24.0,13.0,24.0,12.0,-1.0,-2.0,8.0,-10.0,6.0,22.0,0.0
-19.0,-5.0,21.0,4.0,0.0,-13.0,0.0,-17.0,11.0,15.0,0.0
-16.0,-9.0,22.0,6.0,8.0,-17.0,-2.0,-12.0,0.0,-1.0,0.0
-18.0,-1.0,14.0,13.0,6.0,-17.0,-1.0,-9.0,-11.0,-13.0,0.0
-19.0,11.0,16.0,18.0,3.0,-9.0,15.0,-10.0,14.0,-9.0,0.0
-12.0,5.0,6.0,9.0,-5.0,-3.0,11.0,-13.0,24.0,-20.0,0.0
-11.0,4.0,0.0,-2.0,-5.0,0.0,18.0,-18.0,19.0,-19.0,0.0
-14.0,13.0,12.0,-9.0,5.0,-5.0,7.0,-24.0,-13.0,-24.0,0.0
-8.0,20.0,23.0,-14.0,13.0,-11.0,1.0,-21.0,-15.0,-24.0,0.0
4.0,12.0,25.0,-14.0,-6.0,-1.0,14.0,-14.0,0.0,-16.0,0.0
8.0,6.0,40.0,-11.0,0.0,-2.0,13.0,-13.0,-14.0,-18.0,0.0
11.0,-2.0,34.0,-38.0,8.0,-14.0,10.0,-4.0,-38.0,-30.0,0.0
12.0,-29.0,19.0,-45.0,-1.0,-28.0,-27.0,-11.0,-87.0,-47.0,0.0
25.0,44.0,25.0,-10.0,1.0,0.0,24.0,-6.0,-4.0,0.0,0.0
22.0,47.0,25.0,-2.0,6.0,-4.0,18.0,1.0,-9.0,6.0,0.0
-6.0,23.0,-8.0,10.0,17.0,6.0,39.0,4.0,-3.0,-33.0,0.0
-2.0,-2.0,-13.0,-17.0,11.0,0.0,39.0,-3.0,-2.0,-36.0,0.0
13.0,-32.0,-31.0,-43.0,0.0,-16.0,25.0,-7.0,-10.0,-8.0,0.0
16.0,-19.0,-38.0,-36.0,-6.0,-4.0,46.0,8.0,23.0,18.0,0.0
14.0,-24.0,-31.0,-25.0,-6.0,-1.0,53.0,7.0,30.0,18.0,0.0
14.0,-15.0,-19.0,-22.0,-10.0,-8.0,33.0,0.0,19.0,16.0,0.0
5.0,-14.0,-6.0,-11.0,-3.0,-4.0,20.0,-3.0,-9.0,-1.0,0.0
1.0,-17.0,-6.0,-8.0,0.0,7.0,18.0,-16.0,-22.0,-13.0,0.0
-2.0,-8.0,-7.0,-5.0,4.0,12.0,42.0,-14.0,12.0,-11.0,0.0
3.0,-11.0,3.0,5.0,2.0,20.0,42.0,-13.0,13.0,-21.0,0.0
8.0,-3.0,7.0,8.0,2.0,24.0,20.0,-10.0,17.0,-29.0,0.0
7.0,-14.0,8.0,7.0,0.0,15.0,2.0,0.0,2.0,-28.0,0.0
0.0,-24.0,10.0,4.0,-7.0,9.0,-5.0,-5.0,-1.0,-21.0,0.0
-5.0,-5.0,16.0,2.0,0.0,14.0,16.0,6.0,20.0,-18.0,0.0
-3.0,-13.0,12.0,5.0,-5.0,16.0,21.0,12.0,25.0,-14.0,0.0
-16.0,-34.0,0.0,-6.0,-11.0,-2.0,-5.0,8.0,-15.0,-27.0,0.0
-30.0,-81.0,-17.0,-20.0,-11.0,-49.0,-69.0,-11.0,-117.0,-50.0,0.0
-19.0,-18.0,-8.0,-7.0,-12.0,-24.0,-16.0,-4.0,-46.0,-25.0,0.0
13.0,24.0,8.0,-6.0,-20.0,-9.0,21.0,1.0,0.0,-9.0,0.0
32.0,30.0,28.0,0.0,-22.0,-13.0,23.0,-2.0,12.0,-7.0,0.0
25.0,15.0,19.0,9.0,-15.0,-14.0,24.0,1.0,0.0,-7.0,0.0
31.0,0.0,4.0,15.0,-9.0,-5.0,11.0,6.0,-12.0,0.0,0.0
38.0,-5.0,9.0,0.0,-1.0,13.0,34.0,13.0,15.0,7.0,0.0
41.0,0.0,13.0,-19.0,3.0,10.0,44.0,9.0,28.0,12.0,0.0
43.0,16.0,9.0,-27.0,7.0,1.0,44.0,11.0,31.0,20.0,0.0
43.0,19.0,5.0,-32.0,3.0,2.0,21.0,8.0,16.0,0.0,0.0
35.0,1.0,-3.0,-26.0,-4.0,-7.0,18.0,14.0,13.0,-14.0,0.0
17.0,15.0,25.0,-21.0,1.0,7.0,13.0,7.0,52.0,0.0,0.0
18.0,3.0,34.0,-11.0,4.0,11.0,1.0,2.0,48.0,7.0,0.0
17.0,-1.0,30.0,-3.0,-1.0,-11.0,-21.0,-4.0,8.0,-14.0,0.0
1.0,-23.0,28.0,1.0,-4.0,-47.0,-60.0,-13.0,-58.0,-34.0,0.0
6.0,13.0,37.0,23.0,0.0,-16.0,-3.0,-6.0,15.0,-9.0,0.0
20.0,23.0,21.0,33.0,5.0,8.0,12.0,-2.0,52.0,1.0,0.0
23.0,24.0,16.0,34.0,6.0,2.0,8.0,0.0,32.0,5.0,0.0
16.0,15.0,11.0,21.0,8.0,-13.0,-2.0,7.0,15.0,-6.0,0.0
4.0,2.0,0.0,11.0,10.0,-15.0,0.0,11.0,10.0,-15.0,0.0
0.0,-24.0,-33.0,18.0,16.0,4.0,30.0,10.0,8.0,4.0,0.0
-2.0,-17.0,-30.0,20.0,13.0,0.0,32.0,11.0,10.0,0.0,0.0
1.0,-27.0,-34.0,7.0,1.0,-13.0,12.0,1.0,-17.0,0.0,0.0
0.0,-53.0,-46.0,-21.0,-9.0,-52.0,-32.0,-15.0,-73.0,-7.0,0.0
15.0,-15.0,-24.0,-4.0,0.0,-17.0,15.0,13.0,3.0,13.0,0.0
12.0,10.0,-11.0,9.0,10.0,-3.0,25.0,11.0,23.0,12.0,0.0
-1.0,11.0,-12.0,8.0,11.0,0.0,21.0,0.0,14.0,6.0,0.0
0.0,-14.0,-12.0,13.0,7.0,-2.0,8.0,-1.0,-6.0,-11.0,0.0
-1.0,-12.0,-4.0,18.0,10.0,-3.0,8.0,4.0,-13.0,-12.0,0.0
-4.0,9.0,12.0,18.0,8.0,0.0,43.0,19.0,12.0,8.0,0.0
-2.0,14.0,0.0,8.0,10.0,-1.0,37.0,19.0,23.0,8.0,0.0
-13.0,-16.0,-9.0,-5.0,13.0,-10.0,7.0,0.0,-16.0,0.0,0.0
-27.0,-69.0,-10.0,-29.0,14.0,-37.0,-41.0,-6.0,-92.0,-30.0,0.0
-27.0,-20.0,-2.0,-7.0,18.0,-4.0,1.0,23.0,-26.0,-8.0,0.0
-28.0,11.0,8.0,6.0,13.0,4.0,21.0,34.0,1.0,3.0,0.0
-18.0,15.0,6.0,8.0,12.0,-2.0,19.0,31.0,6.0,1.0,0.0
-12.0,10.0,5.0,10.0,16.0,-11.0,11.0,21.0,-15.0,-5.0,0.0
-3.0,18.0,17.0,21.0,17.0,-5.0,3.0,14.0,-18.0,-3.0,0.0
13.0,23.0,23.0,24.0,26.0,5.0,0.0,16.0,17.0,22.0,0.0
21.0,25.0,23.0,24.0,27.0,-8.0,-12.0,12.0,3.0,38.0,0.0
37.0,14.0,23.0,15.0,19.0,-39.0,-41.0,7.0,-39.0,37.0,0.0
42.0,-14.0,2.0,-18.0,7.0,-63.0,-75.0,-13.0,-90.0,24.0,0.0
44.0,28.0,16.0,-10.0,-4.0,-19.0,-35.0,-9.0,-12.0,42.0,0.0
42.0,37.0,9.0,-6.0,0.0,-8.0,-5.0,0.0,2.0,42.0,0.0
28.0,26.0,-3.0,-1.0,0.0,-10.0,1.0,3.0,0.0,44.0,0.0
22.0,0.0,-10.0,-5.0,0.0,-3.0,-15.0,4.0,-20.0,37.0,0.0
3.0,-11.0,-17.0,-23.0,-5.0,6.0,-15.0,0.0,-17.0,25.0,0.0
5.0,4.0,0.0,12.0,7.0,35.0,3.0,10.0,21.0,22.0,0.0
2.0,0.0,3.0,9.0,8.0,32.0,0.0,-1.0,23.0,23.0,0.0
-16.0,-30.0,-6.0,-2.0,21.0,23.0,-11.0,-6.0,-8.0,5.0,0.0
-34.0,-73.0,-24.0,-14.0,24.0,7.0,-25.0,-1.0,-52.0,-36.0,0.0
-28.0,-42.0,-38.0,7.0,19.0,38.0,26.0,25.0,11.0,-17.0,0.0
-32.0,-33.0,-36.0,12.0,15.0,44.0,31.0,30.0,28.0,-7.0,0.0
-25.0,-26.0,-28.0,8.0,19.0,46.0,46.0,27.0,22.0,-9.0,0.0
-30.0,-27.0,-1.0,13.0,15.0,30.0,21.0,23.0,-2.0,-12.0,0.0
-35.0,-17.0,12.0,18.0,12.0,30.0,1.0,17.0,-2.0,-16.0,0.0
-34.0,0.0,4.0,31.0,13.0,44.0,18.0,11.0,15.0,-12.0,0.0
-22.0,-2.0,0.0,20.0,12.0,45.0,15.0,18.0,19.0,-4.0,0.0
-11.0,-19.0,-2.0,3.0,5.0,12.0,-11.0,11.0,-14.0,-14.0,0.0
-9.0,-60.0,-16.0,-20.0,-8.0,-22.0,-57.0,-12.0,-89.0,-30.0,0.0
-3.0,-17.0,-28.0,-10.0,-10.0,11.0,-11.0,-1.0,-21.0,2.0,0.0
10.0,0.0,-27.0,0.0,-11.0,19.0,-3.0,11.0,9.0,28.0,0.0
15.0,1.0,-14.0,2.0,-20.0,25.0,5.0,0.0,22.0,21.0,0.0
6.0,-12.0,-12.0,15.0,-25.0,18.0,-17.0,-13.0,0.0,9.0,0.0
2.0,-11.0,-18.0,23.0,-22.0,18.0,-11.0,-13.0,-5.0,10.0,0.0
-6.0,0.0,-17.0,30.0,-19.0,14.0,4.0,-10.0,14.0,11.0,0.0
2.0,0.0,-19.0,27.0,-15.0,3.0,0.0,-5.0,29.0,4.0,0.0
4.0,-13.0,-19.0,4.0,-14.0,-6.0,-27.0,-11.0,-1.0,-10.0,0.0
-1.0,-48.0,-4.0,-16.0,-18.0,-48.0,-63.0,-25.0,-59.0,-28.0,0.0
-16372.0,-28391.0,25270.0,-1319.0,1745.0,19822.0,26528.0,-17825.0,-10253.0,-11720.0,0.0
996.0,1705.0,-1511.0,70.0,-123.0,-1213.0,-1614.0,1068.0,622.0,709.0,0.0
958.0,1634.0,-1409.0,74.0,-105.0,-1113.0,-1499.0,1007.0,618.0,677.0,0.0
910.0,1544.0,-1314.0,76.0,-98.0,-1040.0,-1411.0,932.0,577.0,636.0,0.0
854.0,1462.0,-1217.0,69.0,-95.0,-985.0,-1340.0,862.0,527.0,586.0,0.0
798.0,1370.0,-1154.0,57.0,-101.0,-944.0,-1275.0,803.0,469.0,545.0,0.0
742.0,1267.0,-1094.0,73.0,-91.0,-873.0,-1179.0,777.0,468.0,523.0,0.0
689.0,1184.0,-1034.0,66.0,-89.0,-812.0,-1091.0,742.0,448.0,490.0,0.0
635.0,1094.0,-981.0,49.0,-82.0,-773.0,-1050.0,703.0,390.0,445.0,0.0
578.0,994.0,-931.0,32.0,-80.0,-759.0,-1019.0,664.0,305.0,409.0,0.0
557.0,984.0,-858.0,43.0,-68.0,-674.0,-907.0,633.0,360.0,405.0,0.0
541.0,966.0,-796.0,45.0,-57.0,-621.0,-818.0,596.0,366.0,392.0,0.0
510.0,907.0,-750.0,37.0,-49.0,-579.0,-767.0,561.0,344.0,373.0,0.0
474.0,822.0,-697.0,28.0,-42.0,-557.0,-741.0,520.0,293.0,354.0,0.0
436.0,760.0,-664.0,37.0,-44.0,-532.0,-724.0,481.0,265.0,333.0,0.0
401.0,712.0,-634.0,32.0,-49.0,-482.0,-656.0,458.0,267.0,316.0,0.0
368.0,672.0,-594.0,2.0,-50.0,-455.0,-608.0,441.0,256.0,301.0,0.0
330.0,621.0,-562.0,-6.0,-40.0,-423.0,-588.0,418.0,247.0,291.0,0.0
310.0,581.0,-520.0,-17.0,-42.0,-409.0,-571.0,376.0,211.0,259.0,0.0
307.0,564.0,-473.0,-15.0,-45.0,-380.0,-537.0,357.0,194.0,227.0,0.0
288.0,549.0,-436.0,13.0,-38.0,-365.0,-480.0,332.0,209.0,229.0,0.0
270.0,511.0,-400.0,20.0,-41.0,-342.0,-456.0,314.0,192.0,218.0,0.0
245.0,459.0,-398.0,10.0,-32.0,-323.0,-444.0,295.0,145.0,195.0,0.0
225.0,402.0,-411.0,9.0,-36.0,-332.0,-464.0,267.0,80.0,159.0,0.0
233.0,452.0,-352.0,23.0,-28.0,-284.0,-363.0,271.0,172.0,181.0,0.0
214.0,414.0,-343.0,14.0,-27.0,-266.0,-339.0,258.0,158.0,174.0,0.0
191.0,364.0,-343.0,9.0,-24.0,-262.0,-331.0,234.0,116.0,165.0,0.0
162.0,300.0,-337.0,9.0,-27.0,-276.0,-364.0,211.0,50.0,141.0,0.0
174.0,317.0,-315.0,24.0,-24.0,-224.0,-301.0,214.0,116.0,158.0,0.0
177.0,328.0,-288.0,29.0,-22.0,-203.0,-262.0,196.0,138.0,158.0,0.0
179.0,328.0,-268.0,24.0,-24.0,-197.0,-265.0,164.0,127.0,153.0,0.0
181.0,318.0,-251.0,22.0,-30.0,-195.0,-293.0,147.0,85.0,144.0,0.0
185.0,308.0,-234.0,21.0,-28.0,-178.0,-271.0,135.0,62.0,126.0,0.0
167.0,303.0,-207.0,27.0,-27.0,-152.0,-233.0,131.0,89.0,121.0,0.0
147.0,282.0,-192.0,29.0,-24.0,-140.0,-227.0,126.0,82.0,106.0,0.0
125.0,257.0,-172.0,19.0,-27.0,-130.0,-211.0,127.0,74.0,108.0,0.0
108.0,213.0,-159.0,22.0,-30.0,-127.0,-204.0,130.0,47.0,88.0,0.0
88.0,200.0,-149.0,23.0,-25.0,-117.0,-189.0,112.0,36.0,71.0,0.0
79.0,188.0,-153.0,22.0,-4.0,-92.0,-148.0,119.0,79.0,66.0,0.0
65.0,177.0,-155.0,23.0,-8.0,-91.0,-121.0,106.0,74.0,80.0,0.0
51.0,124.0,-152.0,8.0,-6.0,-101.0,-138.0,97.0,33.0,57.0,0.0
34.0,79.0,-139.0,9.0,-2.0,-105.0,-161.0,89.0,-9.0,30.0,0.0
44.0,126.0,-114.0,38.0,4.0,-54.0,-107.0,88.0,62.0,31.0,0.0
60.0,134.0,-97.0,38.0,2.0,-44.0,-93.0,92.0,76.0,41.0,0.0
58.0,132.0,-86.0,43.0,2.0,-40.0,-109.0,84.0,64.0,49.0,0.0
50.0,111.0,-87.0,33.0,-8.0,-46.0,-117.0,70.0,38.0,31.0,0.0
47.0,106.0,-83.0,32.0,-5.0,-45.0,-115.0,65.0,34.0,35.0,0.0
42.0,110.0,-78.0,19.0,-3.0,-46.0,-96.0,65.0,50.0,48.0,0.0
48.0,108.0,-66.0,25.0,-10.0,-45.0,-87.0,61.0,33.0,55.0,0.0
42.0,77.0,-64.0,30.0,-16.0,-51.0,-111.0,34.0,-11.0,45.0,0.0
30.0,42.0,-68.0,18.0,-21.0,-74.0,-119.0,14.0,-50.0,28.0,0.0
41.0,82.0,-66.0,37.0,-7.0,-43.0,-70.0,17.0,17.0,43.0,0.0
30.0,75.0,-67.0,40.0,-7.0,-44.0,-56.0,8.0,20.0,42.0,0.0
24.0,51.0,-75.0,20.0,-7.0,-54.0,-84.0,-1.0,-22.0,38.0,0.0
13.0,0.0,-86.0,-1.0,-16.0,-82.0,-120.0,7.0,-94.0,17.0,0.0
23.0,30.0,-57.0,21.0,-13.0,-25.0,-46.0,20.0,4.0,45.0,0.0
18.0,42.0,-52.0,33.0,-20.0,-5.0,-14.0,29.0,32.0,54.0,0.0
16.0,47.0,-66.0,28.0,-25.0,-4.0,-16.0,22.0,34.0,44.0,0.0
22.0,29.0,-57.0,23.0,-16.0,-28.0,-36.0,7.0,19.0,20.0,0.0
36.0,32.0,-43.0,16.0,-8.0,-31.0,-35.0,15.0,29.0,16.0,0.0
44.0,62.0,-36.0,28.0,-14.0,-21.0,-30.0,20.0,52.0,36.0,0.0
44.0,57.0,-43.0,18.0,-16.0,-17.0,-25.0,22.0,48.0,27.0,0.0
35.0,55.0,-57.0,10.0,-12.0,-33.0,-33.0,7.0,40.0,16.0,0.0
38.0,36.0,-67.0,1.0,-16.0,-39.0,-61.0,10.0,12.0,1.0,0.0
42.0,27.0,-59.0,12.0,-18.0,-35.0,-52.0,16.0,5.0,-2.0,0.0
38.0,42.0,-41.0,23.0,-19.0,-8.0,-24.0,27.0,27.0,-5.0,0.0
31.0,44.0,-30.0,21.0,-15.0,-3.0,-15.0,22.0,23.0,-8.0,0.0
30.0,33.0,-32.0,9.0,-6.0,-20.0,-27.0,17.0,-16.0,-11.0,0.0
20.0,26.0,-32.0,-7.0,-2.0,-27.0,-41.0,13.0,-42.0,-24.0,0.0
27.0,62.0,-24.0,6.0,3.0,-1.0,11.0,14.0,24.0,-8.0,0.0
30.0,54.0,-20.0,9.0,-11.0,-5.0,5.0,17.0,32.0,4.0,0.0
32.0,44.0,-21.0,22.0,-11.0,-17.0,-5.0,14.0,26.0,4.0,0.0
32.0,27.0,-34.0,26.0,-9.0,-31.0,-31.0,-1.0,-4.0,-9.0,0.0
37.0,21.0,-27.0,20.0,-2.0,-26.0,-17.0,0.0,-1.0,-5.0,0.0
29.0,22.0,-25.0,14.0,-8.0,-8.0,-11.0,2.0,19.0,14.0,0.0
23.0,20.0,-20.0,21.0,-7.0,-4.0,-4.0,15.0,31.0,12.0,0.0
13.0,-2.0,-18.0,8.0,-8.0,-23.0,-39.0,14.0,-7.0,0.0,0.0
12.0,-21.0,-23.0,-9.0,-19.0,-51.0,-72.0,-3.0,-70.0,-11.0,0.0
24.0,15.0,-12.0,10.0,-14.0,-14.0,-5.0,11.0,5.0,13.0,0.0
15.0,13.0,4.0,11.0,-8.0,-19.0,2.0,19.0,23.0,16.0,0.0
8.0,10.0,-1.0,13.0,-1.0,-18.0,16.0,23.0,24.0,12.0,0.0
0.0,1.0,-8.0,6.0,-7.0,-16.0,0.0,28.0,-2.0,7.0,0.0
-2.0,-8.0,-1.0,18.0,-6.0,-4.0,5.0,23.0,-8.0,3.0,0.0
0.0,3.0,1.0,13.0,-4.0,-5.0,13.0,38.0,19.0,5.0,0.0
0.0,10.0,-15.0,12.0,10.0,0.0,20.0,34.0,24.0,0.0,0.0
-6.0,-6.0,-19.0,0.0,3.0,-20.0,-3.0,17.0,-24.0,-13.0,0.0
-9.0,-37.0,-15.0,-19.0,3.0,-41.0,-42.0,3.0,-76.0,-29.0,0.0
3.0,15.0,0.0,5.0,9.0,-6.0,16.0,12.0,12.0,2.0,0.0
5.0,35.0,8.0,16.0,12.0,-1.0,34.0,18.0,34.0,14.0,0.0
3.0,30.0,18.0,18.0,6.0,-2.0,23.0,15.0,17.0,12.0,0.0
1.0,16.0,13.0,4.0,-11.0,-3.0,9.0,9.0,-7.0,2.0,0.0
10.0,2.0,-4.0,7.0,-4.0,-5.0,14.0,3.0,-9.0,0.0,0.0
20.0,43.0,26.0,-13.0,-5.0,-15.0,13.0,-11.0,8.0,-5.0,0.0
24.0,46.0,22.0,-28.0,-9.0,-26.0,9.0,-1.0,13.0,-11.0,0.0
15.0,21.0,6.0,-26.0,-5.0,-32.0,-12.0,1.0,-26.0,-21.0,0.0
1.0,-3.0,18.0,-36.0,-5.0,-46.0,-46.0,4.0,-78.0,-32.0,0.0
3.0,30.0,31.0,-22.0,5.0,-6.0,0.0,29.0,-23.0,-10.0,0.0
13.0,53.0,34.0,-12.0,10.0,0.0,9.0,13.0,0.0,-13.0,0.0
6.0,66.0,45.0,-3.0,-4.0,-4.0,10.0,-8.0,-6.0,-21.0,0.0
-5.0,52.0,55.0,0.0,-11.0,-10.0,3.0,-11.0,-23.0,-10.0,0.0
4.0,42.0,54.0,9.0,-9.0,-5.0,-8.0,-8.0,-27.0,2.0,0.0
14.0,3.0,14.0,18.0,0.0,29.0,4.0,19.0,10.0,18.0,0.0
14.0,-2.0,-9.0,6.0,-3.0,15.0,12.0,15.0,23.0,22.0,0.0
6.0,-10.0,-16.0,-3.0,-14.0,-17.0,-16.0,4.0,-10.0,4.0,0.0
7.0,-15.0,-10.0,-13.0,-20.0,-47.0,-50.0,2.0,-67.0,-15.0,0.0
23.0,27.0,7.0,-15.0,-13.0,-11.0,-2.0,17.0,19.0,15.0,0.0
43.0,33.0,-6.0,-19.0,-7.0,7.0,11.0,21.0,47.0,27.0,0.0
41.0,21.0,-23.0,-17.0,-1.0,10.0,10.0,19.0,47.0,31.0,0.0
36.0,-2.0,-6.0,0.0,5.0,5.0,-12.0,5.0,24.0,24.0,0.0
21.0,-5.0,0.0,21.0,10.0,15.0,11.0,11.0,21.0,25.0,0.0
8.0,7.0,-6.0,22.0,26.0,30.0,53.0,25.0,46.0,16.0,0.0
20.0,19.0,-16.0,7.0,22.0,21.0,33.0,9.0,33.0,24.0,0.0
27.0,17.0,-8.0,-2.0,5.0,-2.0,0.0,-7.0,-5.0,7.0,0.0
19.0,-10.0,-15.0,-8.0,-6.0,-35.0,-41.0,-12.0,-64.0,-15.0,0.0
15.0,11.0,-15.0,-11.0,5.0,3.0,6.0,16.0,12.0,14.0,0.0
8.0,23.0,-11.0,-18.0,0.0,15.0,22.0,10.0,29.0,22.0,0.0
-2.0,4.0,-4.0,-14.0,4.0,6.0,26.0,23.0,36.0,19.0,0.0
-1.0,-8.0,0.0,-15.0,13.0,-4.0,13.0,22.0,8.0,-1.0,0.0
-2.0,-7.0,0.0,0.0,17.0,-4.0,9.0,20.0,5.0,-4.0,0.0
12.0,-2.0,-19.0,11.0,17.0,4.0,27.0,14.0,35.0,16.0,0.0
13.0,0.0,-5.0,14.0,6.0,0.0,32.0,14.0,39.0,17.0,0.0
4.0,-15.0,8.0,8.0,8.0,-6.0,-2.0,15.0,-1.0,1.0,0.0
2.0,-49.0,9.0,-6.0,12.0,-19.0,-58.0,5.0,-74.0,-24.0,0.0
9.0,-5.0,18.0,3.0,18.0,18.0,-20.0,13.0,10.0,-6.0,0.0
5.0,9.0,25.0,3.0,9.0,23.0,6.0,10.0,28.0,-11.0,0.0
-6.0,1.0,26.0,-3.0,6.0,7.0,-9.0,1.0,4.0,-15.0,0.0
-4.0,-13.0,20.0,0.0,0.0,-15.0,-30.0,-5.0,-13.0,-19.0,0.0
-8.0,0.0,14.0,8.0,-5.0,-11.0,-26.0,-2.0,-4.0,-15.0,0.0
-17.0,17.0,16.0,0.0,-7.0,-11.0,-15.0,-5.0,15.0,-2.0,0.0
-15.0,15.0,14.0,-23.0,0.0,-5.0,6.0,-13.0,13.0,-9.0,0.0
-10.0,18.0,16.0,-30.0,-4.0,0.0,-3.0,-16.0,9.0,-10.0,0.0
-9.0,4.0,15.0,-17.0,-4.0,-16.0,-9.0,-12.0,-12.0,-8.0,0.0
-1.0,1.0,12.0,-2.0,1.0,-9.0,-4.0,7.0,-9.0,-6.0,0.0
5.0,3.0,-1.0,-3.0,11.0,-9.0,14.0,3.0,17.0,3.0,0.0
10.0,-4.0,-8.0,-6.0,4.0,-12.0,7.0,9.0,21.0,12.0,0.0
10.0,-25.0,-10.0,-13.0,0.0,-25.0,-12.0,-3.0,-13.0,9.0,0.0
-4.0,-47.0,-5.0,-26.0,0.0,-48.0,-63.0,-11.0,-79.0,-14.0,0.0
0.0,3.0,14.0,-15.0,1.0,-5.0,-4.0,0.0,-5.0,12.0,0.0
3.0,9.0,2.0,-14.0,-11.0,13.0,4.0,13.0,21.0,16.0,0.0
-4.0,17.0,-12.0,-15.0,-4.0,12.0,12.0,6.0,19.0,5.0,0.0
-8.0,-4.0,11.0,-13.0,1.0,-1.0,-10.0,6.0,-9.0,-6.0,0.0
-6.0,5.0,32.0,-4.0,2.0,2.0,-10.0,7.0,-17.0,-4.0,0.0
19.0,11.0,7.0,16.0,21.0,10.0,-2.0,-9.0,13.0,6.0,0.0
12.0,-2.0,-4.0,23.0,27.0,9.0,-3.0,-13.0,-2.0,9.0,0.0
-14.0,-29.0,-14.0,4.0,23.0,-12.0,-28.0,-18.0,-48.0,-2.0,0.0
-20.0,-64.0,-22.0,-16.0,20.0,-36.0,-64.0,-30.0,-99.0,-24.0,0.0
-16.0,-26.0,-26.0,-13.0,16.0,13.0,11.0,-7.0,-9.0,-5.0,0.0
-5.0,-13.0,-30.0,-6.0,16.0,26.0,23.0,3.0,15.0,-3.0,0.0
-3.0,8.0,-22.0,2.0,9.0,19.0,37.0,1.0,25.0,4.0,0.0
-24.0,-11.0,-27.0,0.0,3.0,8.0,24.0,-6.0,5.0,-4.0,0.0
-23.0,-14.0,-23.0,-18.0,6.0,7.0,22.0,-2.0,1.0,-1.0,0.0
-18.0,-14.0,-26.0,-18.0,14.0,9.0,30.0,1.0,20.0,9.0,0.0
-16.0,-15.0,-30.0,-26.0,6.0,12.0,18.0,0.0,31.0,13.0,0.0
-20.0,-32.0,-31.0,-19.0,-4.0,-9.0,-4.0,-9.0,-7.0,4.0,0.0
-34.0,-71.0,-24.0,-35.0,0.0,-33.0,-34.0,-20.0,-73.0,-12.0,0.0
-26.0,-22.0,-20.0,-16.0,7.0,13.0,13.0,1.0,4.0,13.0,0.0
-14.0,-7.0,-5.0,-10.0,4.0,28.0,27.0,-2.0,10.0,26.0,0.0
-8.0,-4.0,2.0,3.0,-4.0,30.0,33.0,-6.0,10.0,26.0,0.0
-19.0,-16.0,5.0,7.0,-7.0,19.0,19.0,-20.0,-8.0,10.0,0.0
-20.0,-6.0,11.0,31.0,-4.0,20.0,25.0,-18.0,-4.0,6.0,0.0
-8.0,25.0,17.0,47.0,-6.0,36.0,45.0,-9.0,24.0,7.0,0.0
-3.0,27.0,13.0,40.0,-14.0,46.0,38.0,-20.0,20.0,3.0,0.0
-10.0,7.0,6.0,20.0,-14.0,43.0,28.0,-30.0,15.0,8.0,0.0
-15.0,-9.0,8.0,1.0,-18.0,13.0,14.0,-26.0,-14.0,-2.0,0.0
-8.0,-12.0,13.0,0.0,-22.0,12.0,24.0,-31.0,-6.0,7.0,0.0
8.0,1.0,13.0,10.0,-7.0,18.0,13.0,-27.0,28.0,28.0,0.0
4.0,2.0,15.0,0.0,-10.0,14.0,-5.0,-15.0,19.0,35.0,0.0
2.0,-23.0,7.0,-15.0,-19.0,-5.0,-35.0,-14.0,-35.0,24.0,0.0
-1.0,-71.0,-15.0,-13.0,-23.0,-34.0,-85.0,-23.0,-104.0,-5.0,0.0
-5.0,-9.0,0.0,15.0,-10.0,17.0,-21.0,-18.0,-7.0,16.0,0.0
-4.0,1.0,20.0,22.0,0.0,30.0,1.0,-7.0,22.0,11.0,0.0
-17.0,2.0,27.0,23.0,9.0,33.0,15.0,7.0,31.0,11.0,0.0
-26.0,-10.0,20.0,15.0,16.0,20.0,-3.0,0.0,7.0,6.0,0.0
-2.0,8.0,24.0,19.0,10.0,7.0,-1.0,-6.0,-6.0,-11.0,0.0
18.0,38.0,21.0,20.0,8.0,16.0,13.0,0.0,17.0,0.0,0.0
19.0,37.0,26.0,17.0,11.0,33.0,39.0,10.0,28.0,20.0,0.0
20.0,42.0,16.0,16.0,3.0,40.0,45.0,15.0,26.0,25.0,0.0
25.0,21.0,7.0,8.0,0.0,19.0,17.0,19.0,-1.0,16.0,0.0
20.0,17.0,-3.0,8.0,-8.0,18.0,10.0,28.0,3.0,13.0,0.0
6.0,19.0,17.0,22.0,5.0,26.0,10.0,20.0,14.0,-2.0,0.0
14.0,22.0,25.0,8.0,-3.0,8.0,3.0,-3.0,17.0,3.0,0.0
24.0,-5.0,14.0,-1.0,-6.0,-31.0,-31.0,-5.0,-27.0,-7.0,0.0
21.0,-19.0,4.0,-11.0,-12.0,-46.0,-60.0,-2.0,-67.0,-24.0,0.0
30.0,16.0,23.0,4.0,3.0,26.0,4.0,13.0,32.0,7.0,0.0
13.0,4.0,-1.0,-5.0,0.0,25.0,-8.0,8.0,25.0,0.0,0.0
0.0,-35.0,-10.0,-16.0,-9.0,13.0,-30.0,6.0,-21.0,-15.0,0.0
-6.0,-69.0,-10.0,-21.0,-16.0,-14.0,-71.0,8.0,-89.0,-35.0,0.0
24.0,-11.0,-5.0,5.0,-21.0,23.0,-7.0,27.0,9.0,0.0,0.0
32.0,14.0,-19.0,9.0,-18.0,34.0,2.0,20.0,32.0,7.0,0.0
29.0,19.0,-25.0,-5.0,-18.0,31.0,10.0,11.0,36.0,4.0,0.0
22.0,-13.0,-31.0,-40.0,-12.0,19.0,0.0,13.0,9.0,4.0,0.0
12.0,-15.0,-20.0,-36.0,-10.0,19.0,1.0,10.0,13.0,-4.0,0.0
5.0,8.0,-6.0,-20.0,-12.0,18.0,8.0,6.0,23.0,-4.0,0.0
6.0,16.0,2.0,-7.0,-10.0,11.0,2.0,7.0,21.0,-3.0,0.0
13.0,12.0,4.0,0.0,-7.0,3.0,2.0,5.0,20.0,2.0,0.0
9.0,-2.0,-4.0,0.0,-7.0,-18.0,-16.0,-6.0,-4.0,-4.0,0.0
4.0,-5.0,-10.0,11.0,-13.0,-7.0,-11.0,-8.0,-5.0,-14.0,0.0
-3.0,-18.0,-32.0,0.0,-19.0,-3.0,-4.0,-10.0,18.0,-9.0,0.0
-9.0,-32.0,-50.0,-5.0,-12.0,-8.0,-4.0,0.0,25.0,-11.0,0.0
-4.0,-57.0,-55.0,-15.0,-14.0,-34.0,-41.0,-3.0,-20.0,-22.0,0.0
0.0,-61.0,-53.0,-25.0,-17.0,-49.0,-65.0,-20.0,-49.0,-36.0,0.0
-13953.0,-14759.0,4003.0,1677.0,10825.0,5449.0,32257.0,-23942.0,-10237.0,10860.0,0.0
838.0,872.0,-276.0,-110.0,-673.0,-345.0,1964.0,1427.0,636.0,-666.0,0.0
788.0,829.0,-245.0,-90.0,-635.0,-328.0,1847.0,1340.0,620.0,-626.0,0.0
749.0,790.0,-229.0,-86.0,-595.0,-313.0,1754.0,1263.0,582.0,-600.0,0.0
697.0,734.0,-204.0,-89.0,-559.0,-296.0,1644.0,1185.0,534.0,-572.0,0.0
652.0,679.0,-189.0,-82.0,-523.0,-285.0,1525.0,1109.0,477.0,-543.0,0.0
609.0,644.0,-174.0,-71.0,-478.0,-236.0,1461.0,1036.0,481.0,-487.0,0.0
568.0,608.0,-168.0,-77.0,-455.0,-226.0,1357.0,968.0,450.0,-468.0,0.0
530.0,555.0,-158.0,-90.0,-435.0,-238.0,1245.0,905.0,378.0,-453.0,0.0
485.0,504.0,-154.0,-103.0,-413.0,-260.0,1138.0,840.0,294.0,-442.0,0.0
482.0,542.0,-115.0,-87.0,-394.0,-197.0,1124.0,802.0,343.0,-379.0,0.0
466.0,536.0,-95.0,-65.0,-362.0,-169.0,1078.0,769.0,341.0,-344.0,0.0
425.0,499.0,-86.0,-51.0,-324.0,-156.0,1015.0,731.0,326.0,-337.0,0.0
400.0,449.0,-88.0,-47.0,-304.0,-160.0,922.0,683.0,281.0,-323.0,0.0
382.0,410.0,-70.0,-48.0,-288.0,-149.0,863.0,647.0,257.0,-294.0,0.0
350.0,392.0,-82.0,-57.0,-268.0,-134.0,851.0,618.0,271.0,-257.0,0.0
325.0,350.0,-107.0,-57.0,-244.0,-123.0,811.0,587.0,250.0,-229.0,0.0
308.0,301.0,-114.0,-62.0,-238.0,-133.0,745.0,550.0,226.0,-226.0,0.0
288.0,281.0,-105.0,-61.0,-219.0,-115.0,706.0,519.0,224.0,-218.0,0.0
271.0,265.0,-95.0,-45.0,-206.0,-99.0,667.0,484.0,214.0,-201.0,0.0
250.0,259.0,-99.0,-36.0,-195.0,-86.0,642.0,472.0,220.0,-188.0,0.0
237.0,242.0,-96.0,-32.0,-178.0,-96.0,598.0,449.0,206.0,-178.0,0.0
227.0,227.0,-82.0,-23.0,-173.0,-96.0,561.0,413.0,179.0,-170.0,0.0
209.0,207.0,-64.0,-31.0,-164.0,-98.0,509.0,376.0,135.0,-171.0,0.0
203.0,203.0,-46.0,-29.0,-144.0,-85.0,468.0,358.0,139.0,-153.0,0.0
199.0,200.0,-35.0,-59.0,-120.0,-65.0,471.0,363.0,165.0,-140.0,0.0
165.0,167.0,-33.0,-58.0,-112.0,-73.0,444.0,336.0,154.0,-136.0,0.0
145.0,127.0,-37.0,-55.0,-105.0,-97.0,388.0,301.0,92.0,-143.0,0.0
129.0,93.0,-34.0,-59.0,-89.0,-105.0,326.0,278.0,24.0,-149.0,0.0
130.0,137.0,-23.0,-38.0,-74.0,-50.0,370.0,269.0,120.0,-120.0,0.0
133.0,152.0,-24.0,-44.0,-75.0,-53.0,340.0,258.0,133.0,-103.0,0.0
137.0,172.0,-14.0,-41.0,-82.0,-65.0,311.0,243.0,119.0,-91.0,0.0
149.0,160.0,-3.0,-44.0,-87.0,-75.0,285.0,224.0,92.0,-95.0,0.0
140.0,143.0,3.0,-33.0,-89.0,-60.0,262.0,210.0,89.0,-97.0,0.0
130.0,139.0,12.0,14.0,-85.0,-45.0,275.0,194.0,119.0,-62.0,0.0
113.0,128.0,18.0,20.0,-74.0,-35.0,262.0,183.0,114.0,-52.0,0.0
100.0,105.0,20.0,20.0,-70.0,-50.0,221.0,165.0,51.0,-71.0,0.0
90.0,88.0,17.0,23.0,-66.0,-57.0,172.0,151.0,-10.0,-95.0,0.0
85.0,131.0,9.0,31.0,-62.0,-19.0,227.0,152.0,69.0,-72.0,0.0
74.0,125.0,-4.0,23.0,-57.0,-16.0,217.0,142.0,87.0,-53.0,0.0
65.0,100.0,-12.0,10.0,-56.0,-11.0,209.0,143.0,75.0,-48.0,0.0
62.0,57.0,-34.0,5.0,-57.0,-18.0,177.0,145.0,47.0,-45.0,0.0
52.0,38.0,-46.0,10.0,-48.0,-15.0,167.0,151.0,52.0,-33.0,0.0
52.0,70.0,-20.0,18.0,-26.0,-1.0,161.0,134.0,80.0,0.0,0.0
53.0,81.0,1.0,18.0,-19.0,4.0,163.0,124.0,80.0,8.0,0.0
46.0,43.0,-16.0,5.0,-8.0,-20.0,136.0,117.0,27.0,-25.0,0.0
37.0,-3.0,-33.0,-5.0,-16.0,-46.0,99.0,105.0,-12.0,-56.0,0.0
33.0,31.0,-32.0,6.0,-17.0,9.0,136.0,113.0,65.0,-22.0,0.0
33.0,54.0,-16.0,0.0,-20.0,6.0,131.0,110.0,70.0,-41.0,0.0
43.0,73.0,-13.0,-17.0,-25.0,0.0,115.0,101.0,65.0,-53.0,0.0
38.0,51.0,-44.0,-31.0,-25.0,0.0,110.0,85.0,47.0,-51.0,0.0
35.0,33.0,-57.0,-29.0,-27.0,0.0,115.0,88.0,62.0,-39.0,0.0
32.0,9.0,-28.0,-2.0,-17.0,0.0,106.0,88.0,73.0,-46.0,0.0
33.0,26.0,-8.0,0.0,-14.0,2.0,77.0,84.0,67.0,-41.0,0.0
37.0,24.0,0.0,-9.0,-20.0,-24.0,41.0,66.0,5.0,-66.0,0.0
38.0,30.0,-2.0,-20.0,-28.0,-45.0,-3.0,34.0,-63.0,-80.0,0.0
42.0,90.0,5.0,0.0,-27.0,-4.0,44.0,38.0,15.0,-44.0,0.0
44.0,80.0,0.0,9.0,-32.0,16.0,62.0,52.0,42.0,-29.0,0.0
39.0,56.0,-3.0,9.0,-29.0,20.0,57.0,57.0,54.0,-16.0,0.0
35.0,37.0,-3.0,6.0,-11.0,2.0,51.0,42.0,35.0,-15.0,0.0
37.0,37.0,12.0,12.0,-6.0,0.0,69.0,40.0,39.0,-10.0,0.0
29.0,41.0,5.0,19.0,-9.0,15.0,76.0,53.0,56.0,-9.0,0.0
24.0,42.0,-16.0,15.0,-12.0,12.0,77.0,40.0,56.0,-13.0,0.0
14.0,28.0,-9.0,6.0,-21.0,0.0,57.0,27.0,29.0,-8.0,0.0
9.0,9.0,-5.0,-6.0,-16.0,-21.0,40.0,22.0,7.0,-11.0,0.0
3.0,14.0,-11.0,-3.0,-17.0,-21.0,28.0,8.0,12.0,-9.0,0.0
-2.0,8.0,1.0,16.0,0.0,0.0,44.0,12.0,23.0,-21.0,0.0
-13.0,6.0,5.0,10.0,-2.0,-4.0,45.0,14.0,16.0,-28.0,0.0
-21.0,-22.0,0.0,-3.0,-11.0,-32.0,27.0,10.0,-31.0,-42.0,0.0
-14.0,-18.0,-8.0,-4.0,4.0,-37.0,5.0,9.0,-51.0,-39.0,0.0
22.0,41.0,-5.0,13.0,1.0,-23.0,40.0,3.0,28.0,-26.0,0.0
31.0,46.0,3.0,3.0,-3.0,-31.0,21.0,-9.0,19.0,-23.0,0.0
25.0,9.0,-7.0,-9.0,-16.0,-55.0,-14.0,-25.0,-27.0,-32.0,0.0
14.0,-19.0,-14.0,-20.0,-11.0,-67.0,-53.0,-30.0,-54.0,-41.0,0.0
30.0,22.0,4.0,2.0,7.0,-25.0,13.0,-1.0,31.0,-5.0,0.0
38.0,22.0,-11.0,2.0,9.0,-14.0,28.0,9.0,49.0,2.0,0.0
28.0,18.0,-3.0,-12.0,6.0,-4.0,21.0,6.0,41.0,-5.0,0.0
16.0,6.0,8.0,-25.0,4.0,-12.0,10.0,2.0,0.0,-13.0,0.0
18.0,14.0,-3.0,-32.0,1.0,-11.0,11.0,-6.0,13.0,-9.0,0.0
16.0,29.0,-16.0,-30.0,-3.0,-17.0,20.0,-8.0,36.0,1.0,0.0
14.0,26.0,-15.0,-29.0,-17.0,-11.0,33.0,-7.0,26.0,0.0,0.0
18.0,30.0,-15.0,-34.0,-22.0,7.0,25.0,-5.0,13.0,-10.0,0.0
10.0,2.0,-16.0,-31.0,-14.0,6.0,8.0,0.0,-18.0,-9.0,0.0
-11.0,-5.0,-13.0,-22.0,-4.0,4.0,19.0,19.0,-5.0,-7.0,0.0
-29.0,-16.0,-31.0,-21.0,2.0,13.0,44.0,22.0,10.0,-9.0,0.0
-27.0,-18.0,-32.0,-18.0,-3.0,18.0,26.0,13.0,4.0,-16.0,0.0
-31.0,-46.0,-41.0,-18.0,-11.0,-9.0,-10.0,11.0,-56.0,-34.0,0.0
-36.0,-70.0,-25.0,-24.0,-12.0,-43.0,-55.0,2.0,-127.0,-58.0,0.0
-23.0,-4.0,-1.0,12.0,-6.0,6.0,16.0,16.0,-20.0,-22.0,0.0
-14.0,5.0,6.0,16.0,-17.0,17.0,24.0,11.0,10.0,-3.0,0.0
2.0,2.0,10.0,-5.0,-16.0,17.0,28.0,9.0,18.0,0.0,0.0
0.0,-3.0,14.0,-9.0,-9.0,1.0,6.0,4.0,-10.0,-1.0,0.0
9.0,7.0,23.0,0.0,-14.0,8.0,3.0,2.0,3.0,24.0,0.0
24.0,27.0,37.0,21.0,-20.0,17.0,35.0,12.0,29.0,52.0,0.0
18.0,46.0,33.0,24.0,-21.0,11.0,33.0,2.0,23.0,58.0,0.0
4.0,42.0,20.0,17.0,-9.0,17.0,38.0,-5.0,13.0,35.0,0.0
-15.0,7.0,2.0,0.0,-6.0,0.0,28.0,-8.0,-15.0,2.0,0.0
-27.0,-3.0,-6.0,-11.0,-7.0,-10.0,28.0,-8.0,-12.0,12.0,0.0
-25.0,13.0,-24.0,19.0,0.0,4.0,32.0,5.0,-3.0,19.0,0.0
-23.0,9.0,-28.0,27.0,-7.0,0.0,15.0,-2.0,-15.0,14.0,0.0
-29.0,-22.0,-33.0,20.0,-3.0,-29.0,-7.0,-18.0,-75.0,-12.0,0.0
-33.0,-27.0,-42.0,16.0,3.0,-34.0,-19.0,-24.0,-82.0,-10.0,0.0
-15.0,7.0,-28.0,25.0,3.0,-2.0,29.0,-16.0,-3.0,13.0,0.0
-10.0,6.0,-14.0,25.0,0.0,2.0,21.0,-17.0,2.0,14.0,0.0
-14.0,8.0,0.0,21.0,-3.0,-4.0,20.0,-21.0,-9.0,15.0,0.0
-11.0,-3.0,-1.0,10.0,4.0,-24.0,-1.0,-27.0,-32.0,4.0,0.0
-3.0,-2.0,-2.0,-9.0,5.0,-16.0,1.0,-29.0,-25.0,0.0,0.0
0.0,13.0,12.0,-14.0,-12.0,-12.0,10.0,-15.0,-6.0,1.0,0.0
-4.0,-8.0,1.0,-3.0,2.0,0.0,25.0,-13.0,-1.0,-17.0,0.0
-12.0,-32.0,-18.0,-17.0,-2.0,-28.0,-18.0,-20.0,-46.0,-30.0,0.0
-16.0,-37.0,-26.0,-20.0,-9.0,-41.0,-44.0,-14.0,-71.0,-22.0,0.0
5.0,0.0,-15.0,11.0,-10.0,-11.0,-1.0,5.0,7.0,11.0,0.0
20.0,14.0,-7.0,8.0,-7.0,-13.0,3.0,2.0,20.0,5.0,0.0
23.0,16.0,-4.0,10.0,-9.0,-11.0,1.0,-10.0,13.0,-12.0,0.0
10.0,5.0,-2.0,-1.0,-15.0,-14.0,-27.0,-15.0,-27.0,-32.0,0.0
14.0,12.0,-5.0,5.0,-9.0,-8.0,-10.0,-14.0,0.0,-24.0,0.0
17.0,24.0,7.0,13.0,-24.0,2.0,19.0,2.0,5.0,3.0,0.0
13.0,13.0,13.0,15.0,-12.0,2.0,18.0,0.0,0.0,-1.0,0.0
0.0,-15.0,-5.0,17.0,-11.0,-14.0,-29.0,-8.0,-50.0,-16.0,0.0
5.0,-34.0,-13.0,11.0,-9.0,-31.0,-44.0,0.0,-65.0,-23.0,0.0
14.0,17.0,2.0,15.0,-6.0,11.0,2.0,26.0,15.0,4.0,0.0
11.0,25.0,7.0,7.0,4.0,20.0,4.0,30.0,26.0,0.0,0.0
10.0,7.0,0.0,9.0,0.0,10.0,4.0,14.0,27.0,1.0,0.0
5.0,-11.0,-10.0,8.0,-1.0,-3.0,-13.0,4.0,-3.0,5.0,0.0
19.0,1.0,-9.0,13.0,-5.0,3.0,0.0,3.0,9.0,13.0,0.0
35.0,13.0,-16.0,4.0,-16.0,9.0,20.0,7.0,34.0,26.0,0.0
33.0,14.0,-14.0,-8.0,-18.0,10.0,19.0,6.0,24.0,28.0,0.0
26.0,-20.0,-24.0,-23.0,-22.0,-5.0,-21.0,-4.0,-34.0,15.0,0.0
16.0,-33.0,-14.0,-21.0,-13.0,-15.0,-46.0,5.0,-56.0,4.0,0.0
25.0,2.0,-9.0,1.0,-1.0,17.0,5.0,10.0,15.0,25.0,0.0
24.0,13.0,-21.0,5.0,5.0,20.0,23.0,5.0,26.0,23.0,0.0
13.0,25.0,-6.0,-5.0,0.0,16.0,10.0,10.0,28.0,14.0,0.0
15.0,5.0,-12.0,-27.0,3.0,-4.0,-6.0,14.0,0.0,5.0,0.0
13.0,1.0,-19.0,-13.0,25.0,7.0,14.0,25.0,18.0,10.0,0.0
8.0,16.0,5.0,5.0,28.0,1.0,10.0,22.0,31.0,7.0,0.0
9.0,12.0,4.0,16.0,29.0,0.0,0.0,9.0,28.0,11.0,0.0
-3.0,-34.0,-4.0,-7.0,32.0,-18.0,-38.0,0.0,-28.0,-4.0,0.0
-11.0,-57.0,-9.0,-23.0,24.0,-29.0,-56.0,-4.0,-61.0,-3.0,0.0
-11.0,-6.0,0.0,12.0,19.0,3.0,-22.0,-5.0,20.0,33.0,0.0
-3.0,26.0,16.0,6.0,6.0,9.0,-4.0,2.0,27.0,34.0,0.0
6.0,54.0,25.0,-16.0,-9.0,8.0,14.0,9.0,25.0,19.0,0.0
0.0,43.0,13.0,-14.0,-13.0,6.0,10.0,8.0,7.0,5.0,0.0
-20.0,41.0,11.0,-12.0,3.0,23.0,41.0,25.0,32.0,13.0,0.0
-48.0,-1.0,-3.0,6.0,7.0,35.0,51.0,16.0,37.0,19.0,0.0
-37.0,-3.0,-17.0,-5.0,1.0,26.0,41.0,20.0,28.0,8.0,0.0
-38.0,-27.0,-14.0,-29.0,-8.0,-9.0,-6.0,7.0,-22.0,-6.0,0.0
-36.0,-29.0,-6.0,-25.0,-3.0,-41.0,-47.0,-8.0,-68.0,-8.0,0.0
-20.0,29.0,2.0,6.0,8.0,3.0,14.0,8.0,13.0,22.0,0.0
-15.0,15.0,13.0,13.0,15.0,0.0,5.0,-4.0,18.0,21.0,0.0
-10.0,3.0,26.0,-3.0,3.0,-15.0,5.0,-5.0,14.0,22.0,0.0
-2.0,-6.0,27.0,6.0,-5.0,-30.0,-17.0,-7.0,-7.0,18.0,0.0
4.0,-1.0,31.0,18.0,0.0,-18.0,-17.0,-16.0,-1.0,25.0,0.0
9.0,6.0,15.0,29.0,0.0,8.0,-1.0,-15.0,16.0,13.0,0.0
-4.0,-3.0,8.0,34.0,5.0,0.0,-11.0,-20.0,11.0,1.0,0.0
-14.0,-34.0,-4.0,11.0,12.0,-30.0,-47.0,-18.0,-48.0,-15.0,0.0
-4.0,-29.0,-9.0,-10.0,3.0,-34.0,-67.0,-21.0,-69.0,-36.0,0.0
1.0,4.0,-17.0,-7.0,1.0,8.0,-15.0,-14.0,3.0,-5.0,0.0
-11.0,-1.0,-18.0,-7.0,-9.0,13.0,4.0,-9.0,17.0,7.0,0.0
-10.0,5.0,-4.0,-2.0,-3.0,16.0,-2.0,-16.0,11.0,6.0,0.0
-2.0,-10.0,4.0,-18.0,-1.0,11.0,-10.0,-16.0,-9.0,1.0,0.0
-1.0,5.0,-10.0,-14.0,6.0,22.0,19.0,-1.0,12.0,11.0,0.0
13.0,14.0,5.0,4.0,4.0,29.0,10.0,1.0,20.0,17.0,0.0
-2.0,12.0,11.0,10.0,17.0,27.0,7.0,-1.0,4.0,4.0,0.0
-24.0,-25.0,5.0,-2.0,22.0,-7.0,-34.0,-7.0,-49.0,-6.0,0.0
-35.0,-43.0,0.0,-10.0,22.0,-26.0,-50.0,-9.0,-70.0,-14.0,0.0
-24.0,-15.0,8.0,4.0,22.0,17.0,-2.0,3.0,5.0,9.0,0.0
-17.0,-14.0,6.0,-2.0,15.0,31.0,-4.0,2.0,21.0,7.0,0.0
-5.0,9.0,26.0,3.0,5.0,21.0,5.0,8.0,22.0,-10.0,0.0
-15.0,2.0,32.0,-6.0,0.0,3.0,5.0,3.0,1.0,-18.0,0.0
-17.0,10.0,31.0,-8.0,2.0,11.0,-2.0,-6.0,15.0,-9.0,0.0
-14.0,14.0,28.0,-9.0,7.0,22.0,17.0,-6.0,25.0,-7.0,0.0
-19.0,1.0,10.0,-3.0,12.0,38.0,27.0,-4.0,30.0,-13.0,0.0
-29.0,-6.0,1.0,-20.0,9.0,32.0,14.0,-10.0,25.0,-25.0,0.0
-28.0,-16.0,-9.0,-44.0,-5.0,19.0,8.0,-5.0,0.0,-26.0,0.0
-20.0,9.0,6.0,-53.0,-12.0,38.0,7.0,12.0,19.0,-9.0,0.0
-10.0,31.0,27.0,-56.0,-21.0,38.0,21.0,28.0,41.0,0.0,0.0
-10.0,29.0,26.0,-56.0,-24.0,48.0,6.0,22.0,39.0,3.0,0.0
-23.0,-22.0,18.0,-65.0,-24.0,16.0,-29.0,1.0,-22.0,-6.0,0.0
-23.0,-24.0,16.0,-60.0,-21.0,3.0,-33.0,-5.0,-32.0,-4.0,0.0
-25.0,-8.0,-2.0,-22.0,-9.0,23.0,27.0,18.0,31.0,22.0,0.0
-29.0,-23.0,-8.0,7.0,-9.0,17.0,10.0,3.0,14.0,4.0,0.0
-35.0,-50.0,-10.0,5.0,-20.0,-4.0,-30.0,-23.0,-46.0,-18.0,0.0
-26.0,-48.0,-17.0,-14.0,-31.0,-21.0,-48.0,-41.0,-74.0,-24.0,0.0
2.0,4.0,-26.0,-8.0,-29.0,12.0,5.0,-20.0,15.0,11.0,0.0
8.0,-6.0,-37.0,-17.0,-22.0,1.0,-10.0,-10.0,-10.0,10.0,0.0
10.0,-5.0,-36.0,-9.0,-12.0,9.0,-7.0,-14.0,0.0,19.0,0.0
4.0,-19.0,-37.0,-11.0,-23.0,7.0,-8.0,-26.0,-9.0,13.0,0.0
13.0,17.0,-21.0,-1.0,-32.0,6.0,-6.0,-26.0,1.0,11.0,0.0
17.0,39.0,0.0,7.0,-17.0,11.0,-9.0,-20.0,16.0,19.0,0.0
13.0,19.0,0.0,0.0,-13.0,4.0,-20.0,-33.0,-1.0,2.0,0.0
7.0,17.0,3.0,-5.0,-15.0,22.0,14.0,-29.0,16.0,10.0,0.0
2.0,-11.0,-4.0,-25.0,-17.0,-3.0,-10.0,-29.0,-3.0,5.0,0.0
11.0,-25.0,-11.0,-23.0,-16.0,-12.0,-7.0,-4.0,9.0,8.0,0.0
18.0,-27.0,-15.0,-18.0,-17.0,2.0,9.0,1.0,27.0,11.0,0.0
16.0,-24.0,-32.0,-20.0,-18.0,7.0,3.0,-3.0,27.0,16.0,0.0
12.0,-16.0,-35.0,-17.0,-13.0,9.0,7.0,0.0,23.0,13.0,0.0
-1.0,-37.0,-31.0,-13.0,-6.0,-1.0,6.0,8.0,-9.0,-12.0,0.0
-14.0,-39.0,-17.0,-4.0,-6.0,10.0,22.0,13.0,-6.0,-14.0,0.0
0.0,13.0,-11.0,20.0,-4.0,-1.0,21.0,-7.0,5.0,3.0,0.0
0.0,23.0,-16.0,29.0,-2.0,5.0,20.0,-13.0,-12.0,-8.0,0.0
-7.0,-19.0,-12.0,6.0,-1.0,-21.0,-11.0,-15.0,-82.0,-44.0,0.0
-8.0,-44.0,-10.0,-6.0,0.0,-45.0,-30.0,-11.0,-103.0,-44.0,0.0
1.0,6.0,-1.0,12.0,0.0,0.0,26.0,19.0,0.0,-3.0,0.0
11.0,24.0,8.0,20.0,-5.0,5.0,13.0,17.0,11.0,9.0,0.0
15.0,16.0,9.0,27.0,-5.0,6.0,18.0,14.0,11.0,4.0,0.0
9.0,10.0,6.0,11.0,-5.0,0.0,9.0,22.0,-17.0,-14.0,0.0
-3.0,23.0,9.0,5.0,-3.0,10.0,25.0,35.0,10.0,-20.0,0.0
-10.0,13.0,2.0,-4.0,2.0,4.0,28.0,32.0,18.0,-3.0,0.0
-8.0,10.0,2.0,-2.0,0.0,-4.0,20.0,36.0,13.0,-1.0,0.0
0.0,19.0,0.0,2.0,0.0,1.0,8.0,25.0,8.0,-4.0,0.0
-9.0,8.0,6.0,2.0,0.0,-7.0,0.0,28.0,-7.0,-6.0,0.0
-19.0,23.0,18.0,4.0,-3.0,16.0,23.0,39.0,17.0,0.0,0.0
-17.0,32.0,26.0,6.0,-8.0,25.0,31.0,43.0,40.0,11.0,0.0
-28.0,27.0,28.0,9.0,8.0,27.0,34.0,41.0,37.0,14.0,0.0
-28.0,11.0,25.0,24.0,19.0,26.0,40.0,33.0,25.0,3.0,0.0
-8.0,-8.0,31.0,23.0,22.0,4.0,28.0,17.0,-8.0,2.0,0.0
-4.0,12.0,33.0,24.0,21.0,7.0,40.0,20.0,23.0,17.0,0.0
0.0,31.0,47.0,25.0,26.0,19.0,29.0,15.0,35.0,23.0,0.0
15.0,40.0,55.0,22.0,18.0,24.0,1.0,16.0,26.0,25.0,0.0
11.0,42.0,41.0,14.0,7.0,17.0,6.0,8.0,26.0,25.0,0.0
5.0,22.0,29.0,14.0,-5.0,-11.0,-23.0,-4.0,-9.0,12.0,0.0
3.0,35.0,34.0,9.0,-14.0,-10.0,-19.0,6.0,34.0,21.0,0.0
13.0,57.0,35.0,-4.0,-12.0,-22.0,-22.0,-7.0,25.0,13.0,0.0
15.0,34.0,18.0,-44.0,-18.0,-55.0,-67.0,-27.0,-36.0,-8.0,0.0
3.0,13.0,20.0,-47.0,-14.0,-58.0,-69.0,-32.0,-39.0,-21.0,0.0
0.0,27.0,15.0,-20.0,0.0,-9.0,-15.0,-2.0,38.0,-1.0,0.0
-6.0,11.0,9.0,-1.0,1.0,4.0,8.0,15.0,40.0,8.0,0.0
-6.0,-10.0,17.0,11.0,7.0,11.0,18.0,27.0,39.0,1.0,0.0
-16.0,-27.0,11.0,12.0,7.0,1.0,16.0,24.0,17.0,-15.0,0.0
-27.0,9.0,-26.0,4.0,-11.0,13.0,20.0,15.0,28.0,-10.0,0.0
-14.0,17.0,-28.0,3.0,-11.0,8.0,16.0,14.0,13.0,-2.0,0.0
-16.0,-21.0,-34.0,-18.0,-12.0,-32.0,-11.0,2.0,-53.0,-32.0,0.0
-18.0,-20.0,-27.0,-18.0,-9.0,-37.0,-21.0,6.0,-55.0,-39.0,0.0
-11.0,26.0,-17.0,8.0,-4.0,4.0,29.0,19.0,19.0,-13.0,0.0
-16.0,24.0,-16.0,-8.0,0.0,7.0,35.0,20.0,24.0,-1.0,0.0
-18.0,29.0,-13.0,-6.0,-3.0,2.0,26.0,11.0,26.0,5.0,0.0
-12.0,8.0,-14.0,-10.0,-13.0,-10.0,1.0,-2.0,0.0,-13.0,0.0
-20.0,5.0,3.0,24.0,-7.0,-3.0,22.0,-2.0,15.0,2.0,0.0
-20.0,0.0,7.0,29.0,4.0,-13.0,5.0,-13.0,7.0,-5.0,0.0
-14.0,-24.0,17.0,17.0,0.0,-44.0,-41.0,-25.0,-59.0,-21.0,0.0
0.0,-17.0,20.0,23.0,-9.0,-49.0,-60.0,-31.0,-70.0,-19.0,0.0
18.0,20.0,12.0,28.0,-5.0,-11.0,4.0,-14.0,3.0,6.0,0.0
20.0,8.0,11.0,17.0,3.0,3.0,2.0,-1.0,6.0,20.0,0.0
14.0,5.0,2.0,-5.0,6.0,6.0,-7.0,0.0,7.0,18.0,0.0
9.0,5.0,-5.0,-27.0,0.0,-11.0,-8.0,-3.0,-14.0,0.0,0.0
45.0,64.0,26.0,-7.0,-9.0,-11.0,12.0,-1.0,26.0,25.0,0.0
34.0,58.0,17.0,4.0,-6.0,0.0,0.0,-3.0,18.0,25.0,0.0
10.0,3.0,9.0,-6.0,2.0,-33.0,-38.0,-16.0,-44.0,-2.0,0.0
0.0,-23.0,-3.0,-7.0,9.0,-30.0,-42.0,-12.0,-55.0,-9.0,0.0
-2.0,3.0,-19.0,8.0,9.0,4.0,15.0,1.0,20.0,22.0,0.0
-2.0,-8.0,-24.0,-4.0,14.0,14.0,34.0,10.0,39.0,16.0,0.0
-9.0,-13.0,-16.0,-9.0,18.0,11.0,31.0,17.0,31.0,14.0,0.0
-13.0,-24.0,-29.0,-9.0,16.0,-6.0,9.0,2.0,-5.0,8.0,0.0
-1.0,13.0,-20.0,-2.0,18.0,5.0,39.0,14.0,21.0,53.0,0.0
1.0,12.0,-5.0,2.0,21.0,-7.0,39.0,5.0,13.0,43.0,0.0
0.0,-15.0,-17.0,-1.0,22.0,-43.0,-1.0,-6.0,-49.0,18.0,0.0
-9.0,-17.0,-25.0,-1.0,10.0,-57.0,-23.0,-21.0,-51.0,16.0,0.0
-3.0,32.0,-13.0,13.0,11.0,-19.0,20.0,-17.0,22.0,34.0,0.0
2.0,30.0,-2.0,13.0,7.0,-14.0,23.0,-6.0,25.0,29.0,0.0
8.0,34.0,0.0,-1.0,10.0,-10.0,26.0,0.0,20.0,23.0,0.0
8.0,27.0,1.0,-11.0,7.0,-14.0,17.0,2.0,-7.0,2.0,0.0
22.0,33.0,-7.0,2.0,3.0,3.0,28.0,6.0,22.0,21.0,0.0
7.0,18.0,-9.0,6.0,-1.0,-2.0,4.0,2.0,2.0,18.0,0.0
-9.0,-13.0,-17.0,-25.0,0.0,-32.0,-38.0,-12.0,-66.0,-8.0,0.0
-8.0,-7.0,-11.0,-25.0,6.0,-29.0,-39.0,-17.0,-68.0,-23.0,0.0
-1.0,20.0,9.0,-7.0,8.0,7.0,25.0,5.0,12.0,3.0,0.0
-5.0,11.0,16.0,-10.0,7.0,9.0,27.0,5.0,26.0,5.0,0.0
-12.0,24.0,13.0,3.0,16.0,16.0,33.0,0.0,30.0,-1.0,0.0
-17.0,12.0,-5.0,-1.0,16.0,8.0,7.0,2.0,-3.0,-6.0,0.0
-13.0,20.0,9.0,41.0,19.0,28.0,20.0,6.0,43.0,10.0,0.0
-7.0,17.0,11.0,36.0,1.0,20.0,3.0,-2.0,27.0,8.0,0.0
-19.0,-19.0,-2.0,2.0,-8.0,-23.0,-29.0,-21.0,-46.0,-17.0,0.0
-27.0,-22.0,-9.0,-11.0,4.0,-31.0,-22.0,-27.0,-59.0,-32.0,0.0
-17.0,19.0,7.0,-7.0,16.0,-3.0,38.0,-4.0,14.0,-20.0,0.0
-17.0,21.0,5.0,-12.0,21.0,2.0,41.0,3.0,25.0,-22.0,0.0
-15.0,15.0,4.0,-10.0,16.0,-2.0,29.0,2.0,24.0,-14.0,0.0
-10.0,-10.0,-10.0,-13.0,9.0,-8.0,12.0,2.0,0.0,-6.0,0.0
0.0,7.0,-15.0,5.0,8.0,3.0,30.0,-7.0,8.0,19.0,0.0
-3.0,0.0,-4.0,14.0,7.0,-6.0,28.0,-20.0,-4.0,23.0,0.0
9.0,0.0,2.0,26.0,6.0,-5.0,25.0,-18.0,3.0,10.0,0.0
9.0,16.0,9.0,47.0,5.0,13.0,40.0,3.0,25.0,7.0,0.0
0.0,0.0,7.0,49.0,3.0,2.0,20.0,2.0,4.0,-1.0,0.0
1.0,3.0,-1.0,44.0,11.0,-2.0,25.0,-2.0,14.0,3.0,0.0
0.0,12.0,-10.0,41.0,4.0,-8.0,27.0,5.0,24.0,16.0,0.0
-1.0,-1.0,-11.0,30.0,0.0,-14.0,3.0,1.0,17.0,21.0,0.0
0.0,-17.0,-7.0,19.0,-3.0,-23.0,0.0,-9.0,7.0,14.0,0.0
-1.0,-33.0,-1.0,22.0,-7.0,-25.0,-5.0,-19.0,-24.0,0.0,0.0
-9.0,-22.0,1.0,25.0,-3.0,-4.0,15.0,-13.0,-5.0,5.0,0.0
-4.0,-19.0,-9.0,10.0,-9.0,0.0,8.0,0.0,-7.0,6.0,0.0
-13.0,-23.0,-12.0,-5.0,-12.0,1.0,5.0,-1.0,-6.0,-4.0,0.0
-5.0,-9.0,-6.0,-2.0,-19.0,-2.0,0.0,0.0,-5.0,-2.0,0.0
7.0,-2.0,-4.0,-1.0,-24.0,-20.0,-5.0,-8.0,-29.0,-12.0,0.0
-5.0,-8.0,-4.0,-6.0,-21.0,-10.0,-3.0,-9.0,-32.0,-19.0,0.0
-12.0,-1.0,1.0,0.0,-12.0,8.0,18.0,0.0,-2.0,-11.0,0.0
-2.0,-2.0,0.0,-3.0,-15.0,12.0,7.0,4.0,-7.0,0.0,0.0
-2.0,-6.0,-5.0,-2.0,-13.0,13.0,2.0,4.0,-9.0,4.0,0.0
1.0,-14.0,3.0,13.0,-12.0,3.0,-29.0,-6.0,-20.0,-7.0,0.0
13.0,1.0,15.0,23.0,-17.0,2.0,-24.0,-20.0,-7.0,-10.0,0.0
20.0,12.0,33.0,22.0,-18.0,19.0,-8.0,-24.0,1.0,0.0,0.0
29.0,14.0,41.0,27.0,-16.0,16.0,-11.0,-16.0,-9.0,0.0,0.0
28.0,15.0,43.0,26.0,-18.0,3.0,-15.0,-10.0,1.0,-7.0,0.0
18.0,15.0,32.0,15.0,-24.0,-1.0,-32.0,-7.0,-28.0,-16.0,0.0
20.0,20.0,26.0,7.0,-20.0,8.0,-11.0,-2.0,-8.0,-14.0,0.0
28.0,32.0,34.0,6.0,-24.0,25.0,4.0,0.0,11.0,-10.0,0.0
35.0,30.0,38.0,10.0,-22.0,24.0,21.0,-2.0,15.0,5.0,0.0
29.0,20.0,22.0,6.0,-13.0,16.0,2.0,12.0,22.0,12.0,0.0
22.0,-15.0,21.0,4.0,-11.0,-12.0,-13.0,5.0,1.0,6.0,0.0
17.0,-17.0,19.0,12.0,-13.0,-12.0,-9.0,0.0,3.0,14.0,0.0
12.0,-21.0,10.0,23.0,-10.0,-7.0,6.0,-2.0,10.0,6.0,0.0
3.0,-25.0,24.0,20.0,0.0,1.0,4.0,13.0,0.0,-2.0,0.0
4.0,-31.0,19.0,8.0,-4.0,0.0,-2.0,19.0,-2.0,-3.0,0.0
-2.0,-50.0,12.0,4.0,-2.0,-20.0,-24.0,8.0,-27.0,-13.0,0.0
-13.0,-48.0,21.0,10.0,-3.0,-10.0,-6.0,0.0,-18.0,-10.0,0.0
-21.0,-50.0,10.0,14.0,-11.0,9.0,2.0,-2.0,4.0,-7.0,0.0
-28.0,-58.0,-16.0,-1.0,-5.0,5.0,-2.0,11.0,13.0,-1.0,0.0
-18.0,-55.0,-25.0,-14.0,1.0,4.0,5.0,15.0,15.0,10.0,0.0
-11.0,-16.0,-25.0,-29.0,2.0,-12.0,-19.0,-14.0,-8.0,11.0,0.0
0.0,38.0,-8.0,-25.0,-14.0,-18.0,-19.0,-23.0,2.0,1.0,0.0
5.0,50.0,-7.0,-23.0,-28.0,-3.0,-16.0,-11.0,4.0,-2.0,0.0
6.0,44.0,0.0,-22.0,-25.0,1.0,-9.0,1.0,5.0,-4.0,0.0
5.0,32.0,3.0,-31.0,-20.0,0.0,-10.0,2.0,5.0,-6.0,0.0
-2.0,15.0,9.0,-32.0,-21.0,-5.0,-37.0,-4.0,-14.0,-11.0,0.0
-10.0,2.0,-36.0,5.0,-5.0,13.0,-11.0,-4.0,7.0,-13.0,0.0
-2.0,-2.0,-41.0,1.0,-9.0,3.0,-2.0,8.0,-5.0,0.0,0.0
-10.0,-31.0,-61.0,-13.0,-4.0,-11.0,-36.0,9.0,-52.0,-3.0,0.0
-16.0,-29.0,-46.0,-12.0,-4.0,-4.0,-35.0,-1.0,-37.0,-5.0,0.0
-5.0,6.0,-21.0,10.0,-5.0,28.0,-4.0,15.0,28.0,13.0,0.0
7.0,16.0,-22.0,12.0,-8.0,24.0,-1.0,18.0,26.0,19.0,0.0
20.0,19.0,-20.0,5.0,-11.0,15.0,1.0,9.0,19.0,15.0,0.0
28.0,5.0,-19.0,-15.0,-12.0,8.0,-29.0,-7.0,-14.0,-7.0,0.0
28.0,18.0,-11.0,8.0,-12.0,12.0,16.0,9.0,15.0,10.0,0.0
25.0,4.0,-10.0,10.0,-11.0,11.0,17.0,3.0,8.0,11.0,0.0
16.0,-41.0,-20.0,-7.0,-11.0,-15.0,-31.0,-22.0,-58.0,-17.0,0.0
9.0,-40.0,-26.0,-8.0,-10.0,-17.0,-33.0,-21.0,-61.0,-16.0,0.0
22.0,-2.0,-21.0,9.0,1.0,32.0,13.0,2.0,18.0,10.0,0.0
21.0,-3.0,-23.0,2.0,6.0,35.0,11.0,13.0,21.0,5.0,0.0
16.0,-15.0,-17.0,-4.0,3.0,21.0,3.0,19.0,-1.0,-3.0,0.0
4.0,-24.0,-13.0,-6.0,-6.0,6.0,3.0,13.0,-29.0,-6.0,0.0
4.0,-15.0,0.0,12.0,15.0,13.0,32.0,5.0,4.0,-14.0,0.0
9.0,-8.0,12.0,9.0,14.0,15.0,34.0,-3.0,0.0,-13.0,0.0
-3.0,-39.0,13.0,-3.0,6.0,-13.0,-17.0,-24.0,-62.0,-34.0,0.0
1.0,-25.0,14.0,-4.0,2.0,-13.0,-30.0,-23.0,-59.0,-25.0,0.0
22.0,25.0,24.0,-7.0,3.0,26.0,21.0,-7.0,9.0,7.0,0.0
27.0,28.0,17.0,-28.0,-3.0,34.0,18.0,-6.0,20.0,-2.0,0.0
27.0,25.0,25.0,-26.0,4.0,21.0,10.0,-15.0,9.0,-4.0,0.0
29.0,8.0,24.0,-19.0,13.0,0.0,-14.0,-20.0,-18.0,-7.0,0.0
35.0,18.0,15.0,4.0,8.0,13.0,-7.0,-11.0,11.0,9.0,0.0
32.0,25.0,14.0,7.0,3.0,19.0,15.0,-8.0,19.0,17.0,0.0
28.0,24.0,10.0,0.0,6.0,18.0,32.0,-7.0,18.0,11.0,0.0
22.0,9.0,-10.0,0.0,18.0,19.0,24.0,-8.0,15.0,13.0,0.0
24.0,-8.0,-26.0,-6.0,14.0,22.0,4.0,-8.0,-2.0,8.0,0.0
33.0,15.0,-26.0,-45.0,14.0,46.0,52.0,-1.0,38.0,-7.0,0.0
34.0,20.0,-8.0,-32.0,18.0,31.0,39.0,0.0,27.0,-14.0,0.0
12.0,-6.0,-10.0,-21.0,21.0,15.0,21.0,0.0,12.0,-33.0,0.0
-11.0,-70.0,-27.0,-42.0,15.0,-33.0,-47.0,-18.0,-73.0,-70.0,0.0
-6.0,-61.0,-21.0,-45.0,12.0,-28.0,-27.0,-6.0,-71.0,-60.0,0.0
5.0,-1.0,-6.0,-17.0,23.0,32.0,41.0,23.0,31.0,-13.0,0.0
5.0,16.0,-6.0,-5.0,16.0,40.0,38.0,16.0,35.0,-4.0,0.0
15.0,19.0,-4.0,1.0,17.0,34.0,33.0,16.0,27.0,-4.0,0.0
6.0,0.0,-10.0,12.0,13.0,10.0,2.0,11.0,-13.0,-9.0,0.0
0.0,7.0,8.0,27.0,15.0,7.0,9.0,14.0,3.0,-21.0,0.0
7.0,-1.0,5.0,23.0,5.0,14.0,2.0,15.0,6.0,-17.0,0.0
5.0,-32.0,2.0,1.0,10.0,-20.0,-30.0,-3.0,-53.0,-43.0,0.0
1.0,-31.0,-5.0,2.0,7.0,-33.0,-34.0,-7.0,-50.0,-26.0,0.0
9.0,15.0,2.0,11.0,7.0,5.0,16.0,-6.0,21.0,-13.0,0.0
0.0,20.0,8.0,31.0,11.0,18.0,24.0,5.0,30.0,-4.0,0.0
1.0,12.0,-2.0,16.0,12.0,3.0,19.0,14.0,23.0,-1.0,0.0
13.0,0.0,-5.0,-21.0,5.0,-12.0,0.0,6.0,-9.0,-19.0,0.0
15.0,19.0,5.0,-6.0,3.0,-12.0,17.0,4.0,10.0,-6.0,0.0
21.0,32.0,28.0,20.0,3.0,-1.0,27.0,3.0,26.0,5.0,0.0
11.0,31.0,38.0,29.0,-3.0,0.0,23.0,-1.0,27.0,3.0,0.0
10.0,26.0,29.0,37.0,0.0,-4.0,18.0,-7.0,22.0,1.0,0.0
-2.0,1.0,26.0,27.0,17.0,-19.0,5.0,-10.0,1.0,-1.0,0.0
13.0,13.0,13.0,7.0,0.0,10.0,23.0,14.0,29.0,13.0,0.0
28.0,51.0,12.0,-14.0,-12.0,-4.0,5.0,-1.0,24.0,15.0,0.0
25.0,67.0,7.0,-33.0,-21.0,-25.0,-16.0,-17.0,-1.0,8.0,0.0
0.0,2.0,-19.0,-48.0,-30.0,-56.0,-70.0,-27.0,-87.0,-18.0,0.0
-10.0,-23.0,-16.0,-38.0,-23.0,-51.0,-53.0,-16.0,-68.0,-8.0,0.0
-1.0,5.0,-14.0,-1.0,-9.0,-4.0,17.0,-2.0,25.0,31.0,0.0
2.0,12.0,-27.0,12.0,0.0,-8.0,14.0,-5.0,25.0,43.0,0.0
9.0,9.0,-21.0,14.0,-9.0,-12.0,0.0,-7.0,8.0,36.0,0.0
-4.0,-4.0,-14.0,-1.0,-13.0,-24.0,-25.0,-6.0,2.0,15.0,0.0
-11.0,10.0,-9.0,7.0,-9.0,-17.0,16.0,0.0,35.0,20.0,0.0
-19.0,5.0,-1.0,17.0,-19.0,-1.0,23.0,7.0,57.0,20.0,0.0
-20.0,0.0,6.0,15.0,-17.0,0.0,14.0,7.0,45.0,12.0,0.0
-15.0,0.0,8.0,12.0,-4.0,-4.0,12.0,-2.0,28.0,3.0,0.0
-10.0,-13.0,8.0,2.0,1.0,-12.0,6.0,-3.0,0.0,-7.0,0.0
-17.0,1.0,8.0,26.0,-1.0,-13.0,8.0,10.0,21.0,14.0,0.0
-29.0,-5.0,0.0,22.0,5.0,0.0,11.0,19.0,24.0,22.0,0.0
-37.0,-5.0,3.0,8.0,5.0,2.0,15.0,15.0,13.0,17.0,0.0
-41.0,-48.0,-7.0,-7.0,1.0,-32.0,-47.0,6.0,-79.0,-32.0,0.0
-35.0,-55.0,-2.0,6.0,2.0,-31.0,-48.0,-3.0,-83.0,-51.0,0.0
-22.0,-1.0,5.0,27.0,0.0,14.0,22.0,7.0,21.0,-23.0,0.0
-25.0,-8.0,1.0,24.0,0.0,17.0,11.0,13.0,21.0,-10.0,0.0
-21.0,-13.0,0.0,13.0,14.0,14.0,2.0,5.0,15.0,3.0,0.0
-9.0,-28.0,-2.0,4.0,12.0,0.0,-15.0,3.0,-8.0,2.0,0.0
0.0,-6.0,-1.0,14.0,0.0,12.0,2.0,3.0,14.0,14.0,0.0
13.0,8.0,2.0,5.0,-3.0,3.0,13.0,-8.0,29.0,16.0,0.0
25.0,1.0,7.0,-9.0,-7.0,-4.0,8.0,-11.0,24.0,16.0,0.0
26.0,-3.0,8.0,-9.0,-10.0,-10.0,0.0,-6.0,20.0,22.0,0.0
21.0,-8.0,13.0,0.0,-11.0,-16.0,-7.0,0.0,-2.0,13.0,0.0
26.0,42.0,30.0,18.0,2.0,-11.0,-10.0,11.0,6.0,22.0,0.0
25.0,35.0,12.0,-8.0,3.0,-11.0,-4.0,3.0,12.0,12.0,0.0
23.0,15.0,-21.0,-21.0,0.0,-3.0,-7.0,4.0,15.0,6.0,0.0
13.0,-52.0,-50.0,-50.0,-2.0,-39.0,-61.0,-7.0,-67.0,-31.0,0.0
3.0,-66.0,-60.0,-53.0,2.0,-37.0,-55.0,6.0,-73.0,-20.0,0.0
-3.0,-16.0,-43.0,-34.0,13.0,9.0,11.0,39.0,24.0,25.0,0.0
0.0,-15.0,-48.0,-32.0,18.0,13.0,24.0,37.0,24.0,24.0,0.0
7.0,-14.0,-40.0,-14.0,19.0,14.0,25.0,38.0,19.0,35.0,0.0
9.0,-7.0,-19.0,-8.0,24.0,4.0,7.0,26.0,0.0,33.0,0.0
15.0,-1.0,-4.0,0.0,22.0,8.0,24.0,31.0,22.0,37.0,0.0
15.0,4.0,-7.0,0.0,11.0,4.0,26.0,28.0,21.0,39.0,0.0
14.0,12.0,-5.0,9.0,7.0,6.0,17.0,20.0,16.0,23.0,0.0
14.0,14.0,6.0,7.0,16.0,0.0,13.0,8.0,8.0,10.0,0.0
6.0,0.0,8.0,0.0,30.0,-21.0,1.0,7.0,-21.0,-5.0,0.0
-6.0,13.0,5.0,6.0,33.0,-8.0,13.0,10.0,5.0,8.0,0.0
-11.0,-5.0,1.0,9.0,34.0,-5.0,25.0,17.0,22.0,17.0,0.0
-14.0,0.0,-4.0,6.0,32.0,-2.0,17.0,9.0,15.0,7.0,0.0
0.0,7.0,-3.0,10.0,30.0,13.0,9.0,-11.0,5.0,-6.0,0.0
0.0,0.0,-1.0,18.0,30.0,-2.0,-7.0,-7.0,-16.0,-6.0,0.0
1.0,19.0,17.0,22.0,19.0,-13.0,2.0,-21.0,-4.0,22.0,0.0
7.0,17.0,29.0,3.0,19.0,-15.0,-4.0,-13.0,-12.0,37.0,0.0
15.0,16.0,39.0,0.0,13.0,-20.0,-15.0,-9.0,-15.0,34.0,0.0
-4.0,-39.0,22.0,-14.0,1.0,-76.0,-94.0,-35.0,-131.0,-8.0,0.0
-1.0,-48.0,19.0,-11.0,0.0,-69.0,-83.0,-41.0,-130.0,-5.0,0.0
17.0,23.0,21.0,21.0,14.0,-8.0,12.0,-17.0,0.0,31.0,0.0
9.0,26.0,13.0,16.0,30.0,-7.0,21.0,-7.0,6.0,26.0,0.0
3.0,14.0,6.0,-3.0,28.0,-4.0,9.0,-11.0,-7.0,21.0,0.0
-12.0,-11.0,-7.0,-26.0,22.0,-13.0,0.0,-19.0,-34.0,9.0,0.0
-14.0,-4.0,-11.0,-21.0,19.0,0.0,21.0,-10.0,5.0,12.0,0.0
-2.0,2.0,-19.0,-16.0,25.0,12.0,25.0,3.0,41.0,25.0,0.0
9.0,1.0,-19.0,-15.0,18.0,5.0,23.0,13.0,52.0,21.0,0.0
6.0,-2.0,-20.0,-21.0,10.0,-4.0,23.0,3.0,33.0,14.0,0.0
6.0,-10.0,-20.0,-17.0,5.0,-9.0,3.0,0.0,-4.0,0.0,0.0
11.0,24.0,-8.0,24.0,16.0,7.0,8.0,4.0,19.0,15.0,0.0
9.0,15.0,5.0,32.0,18.0,14.0,8.0,6.0,31.0,22.0,0.0
15.0,12.0,10.0,32.0,23.0,7.0,6.0,-11.0,29.0,12.0,0.0
0.0,-44.0,-9.0,3.0,2.0,-47.0,-54.0,-39.0,-82.0,-24.0,0.0
-10.0,-47.0,-6.0,12.0,-8.0,-44.0,-70.0,-30.0,-97.0,-25.0,0.0
6.0,16.0,5.0,34.0,-4.0,4.0,-6.0,-5.0,12.0,17.0,0.0
12.0,12.0,4.0,17.0,-4.0,-5.0,0.0,-10.0,17.0,26.0,0.0
5.0,-2.0,-16.0,8.0,-13.0,-8.0,-12.0,-4.0,7.0,26.0,0.0
-7.0,-9.0,-21.0,1.0,-5.0,-13.0,-10.0,-9.0,-31.0,12.0,0.0
9.0,19.0,0.0,10.0,0.0,0.0,2.0,-10.0,-2.0,13.0,0.0
21.0,32.0,4.0,14.0,-4.0,12.0,3.0,-3.0,17.0,15.0,0.0
19.0,31.0,3.0,12.0,1.0,20.0,6.0,-8.0,15.0,11.0,0.0
9.0,5.0,-12.0,11.0,-4.0,21.0,8.0,-10.0,-1.0,2.0,0.0
3.0,-18.0,-30.0,9.0,-10.0,16.0,-3.0,-17.0,-24.0,-4.0,0.0
11.0,-5.0,-29.0,14.0,-3.0,28.0,37.0,-13.0,13.0,4.0,0.0
0.0,9.0,-22.0,10.0,-3.0,21.0,28.0,-14.0,15.0,12.0,0.0
-4.0,16.0,-16.0,12.0,0.0,20.0,21.0,-16.0,-1.0,10.0,0.0
-7.0,2.0,-17.0,11.0,4.0,22.0,3.0,-9.0,-3.0,14.0,0.0
2.0,0.0,-1.0,1.0,9.0,20.0,-20.0,-21.0,-32.0,5.0,0.0
10.0,24.0,22.0,19.0,-10.0,15.0,2.0,-10.0,2.0,4.0,0.0
-1.0,2.0,15.0,14.0,-11.0,23.0,3.0,-7.0,2.0,4.0,0.0
-14.0,-8.0,-6.0,3.0,-12.0,26.0,0.0,-14.0,-3.0,7.0,0.0
-31.0,-83.0,-21.0,-29.0,-11.0,-19.0,-82.0,-26.0,-116.0,-32.0,0.0
-25.0,-80.0,-18.0,-24.0,-4.0,-30.0,-77.0,-22.0,-110.0,-24.0,0.0
-6.0,-15.0,0.0,14.0,7.0,23.0,21.0,-3.0,2.0,29.0,0.0
-5.0,-12.0,3.0,25.0,3.0,26.0,16.0,-6.0,10.0,32.0,0.0
-16.0,-6.0,-7.0,29.0,-6.0,25.0,3.0,1.0,18.0,22.0,0.0
-18.0,-18.0,-12.0,22.0,-7.0,28.0,-1.0,4.0,-9.0,7.0,0.0
-6.0,-4.0,-15.0,22.0,-6.0,41.0,16.0,7.0,16.0,22.0,0.0
-12.0,5.0,-15.0,15.0,-9.0,30.0,4.0,4.0,37.0,16.0,0.0
-15.0,0.0,-6.0,11.0,-18.0,25.0,-12.0,-3.0,31.0,-1.0,0.0
-22.0,-10.0,-9.0,12.0,-23.0,26.0,-14.0,1.0,0.0,-8.0,0.0
-17.0,-8.0,3.0,7.0,-16.0,5.0,-37.0,-7.0,-26.0,-9.0,0.0
-4.0,4.0,4.0,3.0,-5.0,21.0,-27.0,-4.0,0.0,0.0,0.0
1.0,6.0,0.0,-2.0,-9.0,23.0,-16.0,-4.0,16.0,11.0,0.0
11.0,7.0,0.0,2.0,-6.0,19.0,-19.0,-11.0,36.0,19.0,0.0
23.0,3.0,-9.0,-4.0,-3.0,14.0,-29.0,-20.0,32.0,29.0,0.0
22.0,-6.0,-9.0,-17.0,-2.0,7.0,-33.0,-15.0,9.0,22.0,0.0
-6.0,3.0,-1.0,-5.0,-2.0,13.0,-10.0,-2.0,50.0,16.0,0.0
-1.0,1.0,3.0,11.0,3.0,14.0,1.0,2.0,44.0,14.0,0.0
-12.0,-22.0,2.0,11.0,1.0,-9.0,-24.0,-12.0,-13.0,-6.0,0.0
-16.0,-50.0,-7.0,-7.0,0.0,-31.0,-66.0,-22.0,-84.0,-40.0,0.0
9.0,16.0,4.0,10.0,0.0,17.0,-4.0,-1.0,8.0,-13.0,0.0
23.0,43.0,13.0,14.0,3.0,19.0,12.0,-6.0,21.0,-8.0,0.0
29.0,44.0,20.0,17.0,0.0,12.0,8.0,10.0,20.0,-6.0,0.0
23.0,24.0,25.0,16.0,-10.0,10.0,10.0,27.0,15.0,-5.0,0.0
11.0,1.0,32.0,11.0,-15.0,-5.0,-1.0,20.0,-5.0,-24.0,0.0
-2.0,5.0,54.0,25.0,-4.0,0.0,17.0,14.0,12.0,-13.0,0.0
-10.0,-4.0,51.0,28.0,4.0,2.0,13.0,15.0,6.0,-9.0,0.0
-24.0,-15.0,44.0,23.0,6.0,-3.0,3.0,12.0,0.0,-2.0,0.0
-35.0,-12.0,35.0,20.0,-5.0,-1.0,19.0,12.0,11.0,-2.0,0.0
-36.0,-25.0,23.0,11.0,-11.0,-9.0,-2.0,0.0,-19.0,-22.0,0.0
-33.0,-21.0,-8.0,11.0,-15.0,5.0,-7.0,3.0,-5.0,-1.0,0.0
-9.0,-16.0,-15.0,-3.0,-13.0,4.0,8.0,8.0,-10.0,6.0,0.0
8.0,13.0,-8.0,-1.0,-6.0,6.0,32.0,20.0,13.0,19.0,0.0
-12.0,-53.0,-4.0,-16.0,-6.0,-50.0,-38.0,-8.0,-76.0,-25.0,0.0
-24.0,-80.0,-5.0,-21.0,-5.0,-70.0,-66.0,-25.0,-106.0,-52.0,0.0
-20.0,-12.0,17.0,2.0,-1.0,-2.0,5.0,-3.0,5.0,-25.0,0.0
-18.0,12.0,23.0,3.0,1.0,23.0,36.0,0.0,30.0,-19.0,0.0
2.0,35.0,39.0,7.0,0.0,15.0,32.0,-3.0,21.0,-16.0,0.0
14.0,34.0,29.0,-2.0,-9.0,-12.0,1.0,-7.0,-7.0,-21.0,0.0
18.0,30.0,18.0,-5.0,-14.0,-16.0,2.0,-2.0,7.0,0.0,0.0
12.0,34.0,6.0,-8.0,-8.0,-9.0,21.0,1.0,21.0,14.0,0.0
0.0,14.0,-8.0,-6.0,-1.0,0.0,21.0,5.0,30.0,22.0,0.0
-8.0,-13.0,-12.0,-5.0,16.0,-7.0,5.0,11.0,9.0,3.0,0.0
-13.0,-23.0,-16.0,-11.0,11.0,-11.0,-4.0,17.0,3.0,0.0,0.0
-8.0,-10.0,-25.0,-14.0,3.0,-4.0,8.0,18.0,26.0,13.0,0.0
-7.0,3.0,-24.0,-23.0,0.0,3.0,-5.0,15.0,37.0,19.0,0.0
-4.0,2.0,-16.0,-18.0,0.0,0.0,-4.0,17.0,32.0,23.0,0.0
-17.0,-1.0,-14.0,-14.0,-5.0,-1.0,9.0,17.0,29.0,19.0,0.0
-32.0,-17.0,-26.0,-14.0,-4.0,-8.0,-3.0,11.0,-11.0,1.0,0.0
-29.0,-7.0,-16.0,1.0,2.0,15.0,20.0,28.0,11.0,6.0,0.0
-28.0,-2.0,-10.0,1.0,3.0,22.0,31.0,33.0,23.0,4.0,0.0
-33.0,-3.0,-11.0,-2.0,-8.0,18.0,38.0,35.0,30.0,0.0,0.0
-33.0,-11.0,-6.0,4.0,-10.0,20.0,28.0,25.0,27.0,-11.0,0.0
-27.0,-19.0,-4.0,3.0,-15.0,9.0,7.0,13.0,-2.0,-26.0,0.0
-9.0,8.0,3.0,6.0,-19.0,16.0,11.0,6.0,17.0,-9.0,0.0
3.0,27.0,11.0,18.0,-18.0,13.0,8.0,6.0,23.0,12.0,0.0
9.0,32.0,18.0,19.0,-9.0,9.0,2.0,1.0,21.0,19.0,0.0
19.0,29.0,17.0,6.0,-2.0,0.0,-6.0,16.0,18.0,8.0,0.0
13.0,15.0,13.0,-1.0,1.0,-12.0,-26.0,10.0,-4.0,3.0,0.0
5.0,25.0,7.0,9.0,0.0,-5.0,0.0,12.0,25.0,8.0,0.0
5.0,24.0,-2.0,0.0,-9.0,4.0,3.0,14.0,50.0,12.0,0.0
-2.0,21.0,-5.0,2.0,-21.0,10.0,15.0,6.0,54.0,6.0,0.0
-3.0,2.0,-9.0,-1.0,-26.0,4.0,17.0,6.0,33.0,-2.0,0.0
-5.0,-20.0,-7.0,-10.0,-27.0,-4.0,7.0,-5.0,5.0,-4.0,0.0
-3.0,-1.0,-7.0,-2.0,-26.0,11.0,12.0,-11.0,41.0,0.0,0.0
3.0,-1.0,6.0,-16.0,-35.0,7.0,4.0,-26.0,26.0,3.0,0.0
19.0,-1.0,-13.0,-34.0,-34.0,-1.0,1.0,-29.0,-4.0,3.0,0.0
5.0,-28.0,-25.0,-40.0,-29.0,-32.0,-36.0,-29.0,-69.0,-19.0,0.0
-4.0,7.0,8.0,7.0,-7.0,10.0,11.0,-4.0,13.0,-9.0,0.0
19.0,8.0,13.0,6.0,0.0,18.0,16.0,-8.0,14.0,7.0,0.0
25.0,-7.0,3.0,-2.0,-1.0,10.0,-4.0,-5.0,-1.0,13.0,0.0
-3.0,-83.0,-29.0,-40.0,-13.0,-54.0,-81.0,-16.0,-123.0,-31.0,0.0
-25.0,-85.0,-45.0,-49.0,-21.0,-42.0,-63.0,-11.0,-109.0,-27.0,0.0
-16.0,-1.0,-28.0,-28.0,-16.0,17.0,18.0,15.0,21.0,22.0,0.0
3.0,18.0,-3.0,-23.0,-15.0,19.0,25.0,17.0,29.0,32.0,0.0
14.0,8.0,-8.0,-12.0,-12.0,24.0,22.0,8.0,21.0,21.0,0.0
