channel0,channel1,channel2,channel3,channel4,channel5,channel6,channel7,channel8,channel9,true_locs
13.0,18.0,-13.0,17.0,9.0,21.0,6.0,4.0,-40.0,-7.0,0.0
21.0,23.0,-11.0,24.0,17.0,11.0,11.0,8.0,-36.0,-5.0,0.0
23.0,28.0,4.0,33.0,12.0,12.0,7.0,-2.0,-41.0,-5.0,0.0
20.0,40.0,9.0,39.0,0.0,5.0,-3.0,-16.0,-42.0,-14.0,0.0
7.0,36.0,18.0,50.0,-1.0,0.0,-16.0,-25.0,-39.0,-29.0,0.0
12.0,33.0,14.0,47.0,-1.0,2.0,-8.0,-26.0,-30.0,-15.0,0.0
26.0,25.0,1.0,28.0,3.0,2.0,-6.0,-16.0,-20.0,10.0,0.0
3.0,-1.0,-4.0,21.0,12.0,9.0,-1.0,-10.0,-22.0,5.0,0.0
-34.0,-17.0,-8.0,12.0,11.0,4.0,-3.0,-14.0,-24.0,-5.0,0.0
-29.0,-23.0,-16.0,-20.0,11.0,0.0,-9.0,-20.0,-11.0,-9.0,0.0
-13.0,-5.0,6.0,-11.0,19.0,-4.0,-7.0,-16.0,-15.0,-26.0,0.0
-21.0,8.0,45.0,35.0,30.0,-7.0,0.0,-14.0,-17.0,-45.0,0.0
-20.0,21.0,60.0,51.0,36.0,-3.0,12.0,-4.0,2.0,-39.0,0.0
-9.0,25.0,28.0,51.0,35.0,12.0,23.0,2.0,-4.0,-24.0,0.0
-8.0,14.0,-6.0,47.0,31.0,19.0,18.0,-9.0,-34.0,-38.0,0.0
-9.0,2.0,-18.0,53.0,41.0,35.0,10.0,-12.0,-48.0,-39.0,0.0
-3.0,4.0,-3.0,85.0,62.0,53.0,1.0,-15.0,-40.0,-7.0,0.0
3.0,1.0,-6.0,67.0,59.0,42.0,-10.0,-23.0,-41.0,25.0,0.0
0.0,0.0,-15.0,40.0,41.0,25.0,-11.0,-32.0,-49.0,26.0,0.0
-7.0,-1.0,-23.0,18.0,22.0,7.0,-14.0,-28.0,-35.0,15.0,0.0
5.0,-1.0,-24.0,0.0,7.0,0.0,-17.0,-25.0,0.0,25.0,0.0
20.0,12.0,-18.0,-11.0,1.0,-1.0,-13.0,-18.0,44.0,31.0,0.0
33.0,19.0,-22.0,-24.0,3.0,2.0,-5.0,-9.0,62.0,29.0,0.0
42.0,39.0,-22.0,22.0,-2.0,12.0,4.0,0.0,46.0,14.0,0.0
28.0,35.0,2.0,63.0,-1.0,11.0,12.0,6.0,34.0,5.0,0.0
12.0,30.0,4.0,55.0,10.0,9.0,4.0,7.0,21.0,-6.0,0.0
17.0,26.0,5.0,39.0,12.0,12.0,1.0,14.0,2.0,0.0,0.0
23.0,12.0,0.0,-6.0,8.0,6.0,8.0,21.0,-19.0,-12.0,0.0
27.0,0.0,-21.0,-53.0,-2.0,-7.0,19.0,31.0,-22.0,-22.0,0.0
44.0,18.0,-33.0,-61.0,-24.0,-17.0,17.0,25.0,1.0,13.0,0.0
55.0,28.0,-16.0,-60.0,-35.0,-12.0,16.0,8.0,16.0,47.0,0.0
37.0,27.0,-4.0,-73.0,-45.0,-9.0,11.0,9.0,16.0,32.0,0.0
33.0,23.0,-16.0,-72.0,-41.0,-18.0,10.0,20.0,33.0,25.0,0.0
34.0,15.0,-14.0,-55.0,-34.0,-23.0,-6.0,20.0,53.0,39.0,0.0
35.0,44.0,18.0,-18.0,-33.0,-8.0,-8.0,14.0,55.0,72.0,0.0
17.0,44.0,49.0,11.0,-18.0,-6.0,5.0,9.0,29.0,79.0,0.0
-10.0,28.0,43.0,16.0,-14.0,-17.0,2.0,5.0,1.0,62.0,0.0
-37.0,22.0,29.0,25.0,-19.0,-28.0,-9.0,0.0,-12.0,29.0,0.0
-45.0,12.0,27.0,10.0,-19.0,-36.0,-16.0,-10.0,-23.0,-3.0,0.0
-52.0,5.0,0.0,-7.0,-17.0,-24.0,-6.0,-4.0,-29.0,-13.0,0.0
-45.0,-7.0,-26.0,-11.0,-18.0,-24.0,5.0,4.0,-16.0,-12.0,0.0
-29.0,-22.0,-64.0,-15.0,-17.0,-19.0,15.0,21.0,-9.0,-9.0,0.0
-34.0,-24.0,-75.0,-25.0,-16.0,-1.0,32.0,25.0,-14.0,-23.0,0.0
-32.0,-11.0,-45.0,-30.0,-9.0,1.0,43.0,15.0,-26.0,-31.0,0.0
-3.0,10.0,26.0,-17.0,7.0,12.0,44.0,-4.0,-31.0,-16.0,0.0
31.0,38.0,81.0,2.0,27.0,14.0,22.0,-20.0,-18.0,42.0,0.0
0.0,21.0,90.0,11.0,37.0,15.0,23.0,-28.0,-32.0,29.0,0.0
-25.0,16.0,67.0,10.0,36.0,22.0,30.0,-23.0,-57.0,-8.0,0.0
-39.0,8.0,37.0,19.0,32.0,18.0,14.0,-25.0,-70.0,-24.0,0.0
-64.0,-18.0,16.0,32.0,34.0,-1.0,-10.0,-44.0,-74.0,-36.0,0.0
-83.0,-48.0,-11.0,55.0,33.0,-11.0,-31.0,-65.0,-74.0,-40.0,0.0
-99.0,-85.0,-62.0,48.0,34.0,-15.0,-25.0,-63.0,-51.0,-36.0,0.0
-96.0,-92.0,-78.0,37.0,29.0,0.0,-6.0,-72.0,-23.0,-37.0,0.0
-80.0,-76.0,-52.0,47.0,27.0,14.0,-4.0,-66.0,2.0,-33.0,0.0
-70.0,-63.0,-32.0,54.0,49.0,30.0,20.0,-47.0,17.0,-33.0,0.0
-35.0,-27.0,-22.0,30.0,41.0,39.0,40.0,-1.0,55.0,-2.0,0.0
26.0,21.0,-4.0,-14.0,-17.0,1.0,39.0,32.0,89.0,38.0,0.0
49.0,54.0,-9.0,-70.0,-50.0,-26.0,40.0,33.0,65.0,38.0,0.0
61.0,83.0,-26.0,-97.0,-48.0,-20.0,43.0,20.0,27.0,17.0,0.0
61.0,88.0,-34.0,-79.0,-34.0,-26.0,30.0,8.0,-8.0,26.0,0.0
55.0,84.0,-38.0,-48.0,-15.0,0.0,33.0,-10.0,-8.0,36.0,0.0
51.0,78.0,-37.0,-29.0,0.0,5.0,44.0,-23.0,3.0,46.0,0.0
65.0,82.0,-20.0,-23.0,0.0,-21.0,29.0,-10.0,13.0,48.0,0.0
68.0,76.0,-14.0,-6.0,3.0,-24.0,17.0,5.0,6.0,52.0,0.0
36.0,42.0,-17.0,-13.0,6.0,-12.0,25.0,3.0,-3.0,31.0,0.0
21.0,24.0,-7.0,-4.0,1.0,-6.0,36.0,3.0,-14.0,18.0,0.0
39.0,25.0,4.0,3.0,4.0,3.0,25.0,9.0,0.0,50.0,0.0
19.0,21.0,8.0,-2.0,24.0,6.0,8.0,-6.0,8.0,54.0,0.0
-2.0,20.0,4.0,17.0,29.0,11.0,5.0,-12.0,-18.0,3.0,0.0
20.0,13.0,-1.0,31.0,16.0,4.0,3.0,-19.0,-29.0,-11.0,0.0
37.0,-9.0,-11.0,24.0,6.0,-1.0,0.0,-22.0,-23.0,0.0,0.0
42.0,-17.0,-2.0,14.0,-7.0,-15.0,4.0,-14.0,-2.0,5.0,0.0
33.0,-10.0,23.0,19.0,-12.0,-9.0,2.0,-9.0,0.0,-19.0,0.0
-5.0,-11.0,36.0,17.0,-14.0,19.0,15.0,-16.0,-19.0,-48.0,0.0
-56.0,-52.0,3.0,-7.0,-12.0,22.0,15.0,-7.0,-30.0,-53.0,0.0
-78.0,-69.0,-13.0,-40.0,-18.0,11.0,2.0,-16.0,-16.0,-16.0,0.0
-78.0,-79.0,-24.0,-77.0,-24.0,-8.0,-16.0,-20.0,-17.0,8.0,0.0
-75.0,-70.0,-30.0,-60.0,-25.0,-15.0,-12.0,-22.0,-13.0,-4.0,0.0
-63.0,-54.0,-36.0,-25.0,-19.0,-9.0,-14.0,-8.0,-1.0,-27.0,0.0
-51.0,-38.0,-34.0,-13.0,-14.0,-6.0,-8.0,-4.0,21.0,-30.0,0.0
-39.0,-25.0,-13.0,-2.0,-8.0,-8.0,-3.0,-7.0,58.0,-21.0,0.0
-48.0,-30.0,0.0,-11.0,-12.0,-2.0,-10.0,-6.0,54.0,-45.0,0.0
-55.0,-28.0,9.0,-5.0,-9.0,1.0,-14.0,0.0,34.0,-50.0,0.0
-69.0,-44.0,5.0,12.0,4.0,13.0,-20.0,-1.0,8.0,-11.0,0.0
-76.0,-58.0,-9.0,22.0,15.0,19.0,-23.0,-17.0,0.0,0.0,0.0
-65.0,-54.0,-20.0,24.0,15.0,20.0,-14.0,-5.0,-16.0,-3.0,0.0
-63.0,-52.0,-30.0,18.0,14.0,28.0,-5.0,-4.0,-39.0,-9.0,0.0
-50.0,-43.0,-33.0,18.0,8.0,32.0,4.0,-15.0,-44.0,-8.0,0.0
-34.0,-24.0,-23.0,12.0,-9.0,13.0,20.0,-10.0,-24.0,3.0,0.0
-29.0,-1.0,2.0,14.0,-12.0,11.0,14.0,5.0,0.0,22.0,0.0
-17.0,2.0,25.0,27.0,-6.0,17.0,-9.0,20.0,4.0,34.0,0.0
-1.0,0.0,44.0,13.0,-14.0,6.0,-2.0,29.0,10.0,39.0,0.0
9.0,6.0,19.0,-15.0,-21.0,-2.0,7.0,40.0,19.0,38.0,0.0
19.0,7.0,-36.0,-30.0,-16.0,0.0,1.0,42.0,30.0,37.0,0.0
14.0,9.0,-21.0,-34.0,-7.0,-3.0,-8.0,37.0,33.0,34.0,0.0
2.0,5.0,10.0,-46.0,-16.0,-6.0,-14.0,27.0,19.0,31.0,0.0
-4.0,16.0,0.0,-35.0,-25.0,-11.0,0.0,19.0,6.0,27.0,0.0
-8.0,11.0,-48.0,-33.0,-15.0,2.0,27.0,24.0,-4.0,14.0,0.0
-11.0,0.0,-89.0,-21.0,-9.0,1.0,32.0,22.0,2.0,3.0,0.0
-31.0,-26.0,-37.0,27.0,-7.0,-4.0,4.0,8.0,-2.0,-10.0,0.0
-43.0,-27.0,-3.0,41.0,0.0,0.0,-13.0,-9.0,-21.0,-28.0,1.0
-38.0,-22.0,-20.0,21.0,-3.0,8.0,-8.0,-9.0,-2.0,-32.0,1.0
-40.0,-18.0,-34.0,7.0,1.0,0.0,-21.0,-14.0,21.0,-43.0,1.0
-34.0,-13.0,-29.0,7.0,8.0,0.0,-20.0,-23.0,38.0,-32.0,1.0
-9.0,-10.0,-33.0,13.0,10.0,3.0,-6.0,-21.0,36.0,-16.0,1.0
-6.0,-2.0,-33.0,9.0,11.0,12.0,10.0,-5.0,32.0,-18.0,1.0
-9.0,8.0,-30.0,1.0,8.0,20.0,17.0,7.0,26.0,-18.0,1.0
8.0,32.0,-22.0,-2.0,1.0,27.0,40.0,22.0,9.0,-9.0,1.0
38.0,49.0,-4.0,33.0,-4.0,16.0,56.0,34.0,-2.0,5.0,1.0
46.0,37.0,-4.0,55.0,2.0,0.0,47.0,25.0,-8.0,-1.0,1.0
28.0,18.0,-8.0,32.0,9.0,-10.0,50.0,17.0,4.0,-18.0,1.0
11.0,16.0,-12.0,18.0,-4.0,-14.0,46.0,7.0,5.0,-19.0,1.0
12.0,15.0,-19.0,20.0,-5.0,-18.0,25.0,-2.0,15.0,-14.0,1.0
22.0,9.0,-5.0,23.0,0.0,-30.0,14.0,-9.0,30.0,-13.0,1.0
25.0,4.0,13.0,8.0,6.0,-21.0,26.0,1.0,24.0,3.0,1.0
28.0,1.0,6.0,-17.0,13.0,-18.0,20.0,4.0,25.0,9.0,1.0
15.0,8.0,5.0,-57.0,-7.0,-23.0,28.0,1.0,27.0,4.0,1.0
13.0,19.0,20.0,-72.0,-21.0,-23.0,30.0,-6.0,15.0,-4.0,1.0
36.0,34.0,33.0,-67.0,-22.0,-24.0,18.0,-15.0,17.0,2.0,0.0
60.0,48.0,18.0,-76.0,-24.0,-21.0,20.0,-15.0,25.0,20.0,0.0
60.0,43.0,-11.0,-76.0,-17.0,-4.0,23.0,-9.0,33.0,30.0,0.0
68.0,34.0,-10.0,-62.0,-7.0,3.0,15.0,-12.0,23.0,45.0,0.0
43.0,28.0,5.0,-37.0,7.0,2.0,4.0,-21.0,10.0,30.0,0.0
26.0,26.0,21.0,1.0,5.0,0.0,-7.0,-22.0,-6.0,9.0,0.0
3.0,17.0,36.0,27.0,7.0,9.0,-14.0,-20.0,-28.0,-2.0,0.0
4.0,1.0,30.0,17.0,9.0,24.0,-1.0,-20.0,-33.0,-14.0,0.0
9.0,-12.0,17.0,14.0,12.0,25.0,9.0,-10.0,-28.0,-7.0,0.0
12.0,7.0,18.0,7.0,10.0,6.0,3.0,-15.0,-8.0,18.0,0.0
8.0,3.0,8.0,3.0,8.0,0.0,6.0,-22.0,-1.0,29.0,0.0
11.0,-4.0,3.0,11.0,17.0,15.0,23.0,-5.0,-13.0,12.0,0.0
16.0,0.0,-13.0,0.0,13.0,11.0,16.0,14.0,-7.0,17.0,0.0
-2.0,-31.0,-26.0,-19.0,-3.0,6.0,26.0,30.0,5.0,16.0,0.0
-44.0,-58.0,-29.0,-26.0,-15.0,9.0,46.0,43.0,11.0,3.0,0.0
-52.0,-38.0,-32.0,-37.0,-29.0,13.0,44.0,52.0,10.0,7.0,0.0
-40.0,-33.0,-31.0,-23.0,-29.0,20.0,28.0,38.0,-1.0,11.0,0.0
-57.0,-48.0,-27.0,-13.0,-14.0,22.0,0.0,22.0,-6.0,0.0,0.0
-60.0,-37.0,-27.0,-7.0,-3.0,7.0,0.0,13.0,17.0,-17.0,0.0
-42.0,-35.0,-24.0,8.0,-8.0,6.0,-11.0,6.0,58.0,-21.0,0.0
-27.0,-24.0,-11.0,11.0,-11.0,6.0,-25.0,11.0,64.0,-21.0,0.0
-26.0,-16.0,-12.0,19.0,-3.0,6.0,-10.0,20.0,53.0,-33.0,0.0
-40.0,-22.0,-13.0,26.0,5.0,14.0,7.0,29.0,34.0,-58.0,0.0
-32.0,-32.0,0.0,24.0,13.0,23.0,8.0,42.0,15.0,-69.0,0.0
-34.0,-33.0,-10.0,22.0,12.0,19.0,12.0,48.0,-19.0,-66.0,0.0
-1.0,-20.0,-20.0,25.0,11.0,9.0,4.0,37.0,-39.0,-33.0,0.0
45.0,9.0,-5.0,31.0,30.0,-8.0,-30.0,5.0,-28.0,17.0,0.0
46.0,31.0,6.0,46.0,34.0,-5.0,-47.0,0.0,-20.0,14.0,0.0
28.0,20.0,11.0,42.0,27.0,5.0,-39.0,3.0,-13.0,-17.0,0.0
24.0,13.0,28.0,52.0,37.0,10.0,-28.0,3.0,0.0,-21.0,0.0
18.0,20.0,46.0,70.0,37.0,8.0,-24.0,2.0,11.0,-14.0,0.0
6.0,1.0,35.0,93.0,47.0,15.0,-28.0,6.0,9.0,-20.0,0.0
2.0,-4.0,28.0,89.0,63.0,42.0,-19.0,16.0,0.0,-23.0,0.0
9.0,0.0,50.0,26.0,47.0,49.0,16.0,32.0,2.0,-29.0,0.0
15.0,6.0,48.0,-10.0,16.0,59.0,36.0,27.0,28.0,-20.0,0.0
30.0,-4.0,19.0,-78.0,-25.0,7.0,-16.0,19.0,26.0,0.0,0.0
27.0,-7.0,0.0,-132.0,-51.0,-31.0,-52.0,4.0,0.0,-8.0,0.0
22.0,-5.0,-9.0,-129.0,-56.0,-36.0,-51.0,-2.0,-24.0,-33.0,0.0
31.0,-1.0,-13.0,-85.0,-32.0,-43.0,-47.0,2.0,-19.0,-35.0,0.0
38.0,14.0,-3.0,-43.0,-7.0,-33.0,-47.0,-5.0,-9.0,-10.0,0.0
43.0,27.0,6.0,-14.0,2.0,-32.0,-36.0,-9.0,-9.0,-11.0,0.0
51.0,38.0,1.0,-10.0,-9.0,-38.0,-26.0,-3.0,-4.0,-15.0,0.0
81.0,40.0,-1.0,-21.0,-19.0,-50.0,-30.0,9.0,8.0,40.0,0.0
84.0,42.0,0.0,-27.0,-22.0,-51.0,-28.0,5.0,4.0,78.0,0.0
62.0,39.0,0.0,-14.0,-13.0,-40.0,-18.0,3.0,-12.0,54.0,0.0
27.0,13.0,-8.0,4.0,-3.0,-36.0,-15.0,-2.0,-16.0,23.0,0.0
12.0,-15.0,3.0,15.0,0.0,-24.0,-17.0,3.0,-17.0,7.0,0.0
-8.0,-28.0,24.0,36.0,9.0,-12.0,-17.0,6.0,-42.0,-1.0,0.0
-39.0,-40.0,24.0,55.0,33.0,1.0,-6.0,8.0,-49.0,-18.0,0.0
-45.0,-57.0,12.0,58.0,38.0,6.0,-11.0,0.0,-48.0,-31.0,0.0
-68.0,-66.0,-7.0,57.0,33.0,13.0,-18.0,-12.0,-65.0,-44.0,0.0
-86.0,-78.0,-11.0,52.0,22.0,11.0,-15.0,-28.0,-65.0,-51.0,0.0
-91.0,-73.0,-3.0,32.0,9.0,-7.0,-25.0,-39.0,-73.0,-60.0,0.0
-69.0,-52.0,0.0,12.0,-2.0,-25.0,-36.0,-36.0,-74.0,-56.0,0.0
-45.0,-37.0,-2.0,25.0,-10.0,-37.0,-33.0,-26.0,-25.0,-38.0,0.0
-28.0,-13.0,-2.0,36.0,-6.0,-34.0,-32.0,-16.0,32.0,-12.0,0.0
-38.0,-7.0,-7.0,23.0,3.0,-28.0,-38.0,-7.0,82.0,-2.0,0.0
-19.0,-1.0,-25.0,-6.0,-11.0,-35.0,-39.0,4.0,130.0,2.0,0.0
-7.0,-16.0,-30.0,-33.0,-23.0,-35.0,-37.0,5.0,121.0,-7.0,0.0
-13.0,-24.0,-5.0,-19.0,-7.0,-33.0,-28.0,12.0,80.0,-1.0,0.0
-16.0,-12.0,29.0,7.0,9.0,-29.0,-16.0,19.0,51.0,6.0,0.0
-4.0,1.0,61.0,26.0,21.0,-12.0,-4.0,26.0,32.0,16.0,0.0
9.0,23.0,67.0,16.0,15.0,-2.0,-1.0,31.0,-19.0,26.0,0.0
30.0,26.0,43.0,-11.0,0.0,0.0,-7.0,26.0,-38.0,32.0,0.0
29.0,18.0,29.0,-30.0,-8.0,-11.0,8.0,25.0,-12.0,57.0,0.0
9.0,9.0,28.0,-16.0,3.0,-16.0,4.0,10.0,4.0,51.0,0.0
0.0,-1.0,4.0,-16.0,14.0,-8.0,2.0,4.0,8.0,37.0,0.0
9.0,-2.0,-29.0,-14.0,9.0,-3.0,1.0,12.0,0.0,34.0,0.0
7.0,2.0,-12.0,11.0,6.0,1.0,2.0,2.0,-14.0,25.0,0.0
-16.0,5.0,15.0,21.0,-3.0,6.0,-3.0,-3.0,-13.0,31.0,0.0
-11.0,0.0,4.0,-2.0,-11.0,0.0,-13.0,0.0,3.0,43.0,0.0
7.0,3.0,1.0,-5.0,-11.0,-4.0,-14.0,-4.0,16.0,44.0,0.0
10.0,10.0,2.0,4.0,-5.0,1.0,-5.0,6.0,17.0,44.0,0.0
20.0,19.0,2.0,4.0,-11.0,-5.0,13.0,13.0,23.0,58.0,0.0
15.0,12.0,8.0,10.0,-6.0,-5.0,28.0,22.0,39.0,63.0,0.0
4.0,19.0,8.0,15.0,0.0,3.0,34.0,18.0,38.0,65.0,0.0
19.0,34.0,28.0,7.0,-7.0,4.0,23.0,17.0,35.0,65.0,0.0
27.0,17.0,47.0,-9.0,-15.0,-7.0,12.0,4.0,33.0,48.0,0.0
8.0,-8.0,49.0,-10.0,-5.0,-9.0,13.0,19.0,22.0,19.0,0.0
-6.0,-9.0,70.0,19.0,-2.0,-7.0,23.0,17.0,22.0,18.0,0.0
8.0,1.0,93.0,19.0,-5.0,-6.0,25.0,0.0,33.0,55.0,0.0
34.0,8.0,8.0,0.0,-10.0,0.0,25.0,-1.0,35.0,73.0,0.0
43.0,0.0,-54.0,-6.0,-6.0,1.0,20.0,6.0,20.0,44.0,0.0
23.0,-4.0,-11.0,3.0,-12.0,-3.0,17.0,-7.0,11.0,24.0,0.0
15.0,3.0,19.0,14.0,-15.0,-7.0,6.0,-19.0,-4.0,28.0,0.0
0.0,8.0,31.0,33.0,-18.0,-5.0,11.0,-23.0,-27.0,0.0,0.0
-13.0,4.0,37.0,28.0,-18.0,-3.0,12.0,-24.0,-33.0,-14.0,0.0
-18.0,4.0,33.0,6.0,-7.0,-1.0,11.0,-10.0,-28.0,3.0,0.0
-19.0,-3.0,9.0,-8.0,1.0,3.0,14.0,-4.0,-16.0,19.0,0.0
-44.0,-31.0,-6.0,-21.0,2.0,6.0,20.0,-12.0,-11.0,26.0,0.0
-62.0,-41.0,-7.0,-25.0,1.0,-2.0,25.0,-12.0,-4.0,0.0,0.0
-44.0,-16.0,-5.0,-31.0,0.0,-9.0,24.0,-3.0,5.0,-12.0,0.0
-14.0,5.0,-6.0,-41.0,-6.0,-23.0,29.0,9.0,22.0,4.0,0.0
3.0,11.0,-6.0,-42.0,-14.0,-29.0,24.0,11.0,47.0,17.0,0.0
6.0,3.0,-5.0,-38.0,-13.0,-34.0,7.0,10.0,64.0,20.0,0.0
3.0,0.0,-10.0,-34.0,-5.0,-15.0,14.0,3.0,68.0,3.0,0.0
6.0,11.0,-7.0,12.0,4.0,-5.0,17.0,2.0,72.0,3.0,0.0
4.0,19.0,3.0,55.0,12.0,3.0,19.0,7.0,59.0,-4.0,0.0
-7.0,11.0,7.0,37.0,12.0,4.0,1.0,2.0,22.0,-34.0,0.0
3.0,20.0,22.0,11.0,16.0,6.0,-10.0,-20.0,-20.0,-40.0,0.0
11.0,33.0,56.0,18.0,23.0,11.0,-14.0,-40.0,-62.0,-43.0,0.0
-20.0,26.0,60.0,14.0,34.0,18.0,-5.0,-33.0,-86.0,-75.0,0.0
-46.0,2.0,58.0,12.0,32.0,23.0,2.0,-29.0,-63.0,-80.0,0.0
-43.0,-18.0,49.0,9.0,29.0,31.0,5.0,-26.0,-37.0,-61.0,0.0
-20.0,-29.0,18.0,-12.0,8.0,17.0,19.0,-19.0,-8.0,11.0,0.0
15.0,-22.0,-7.0,-34.0,-6.0,9.0,39.0,-3.0,14.0,59.0,0.0
14.0,-17.0,-16.0,-33.0,0.0,15.0,30.0,12.0,14.0,48.0,0.0
5.0,-11.0,-20.0,-10.0,3.0,17.0,27.0,11.0,31.0,39.0,0.0
-11.0,-11.0,-46.0,-9.0,0.0,16.0,27.0,15.0,24.0,30.0,0.0
-21.0,-17.0,-58.0,-18.0,-3.0,8.0,10.0,19.0,16.0,22.0,0.0
-3.0,-18.0,-52.0,-29.0,-17.0,7.0,4.0,14.0,25.0,34.0,0.0
5.0,-9.0,-48.0,-22.0,-25.0,10.0,4.0,4.0,37.0,42.0,0.0
18.0,-3.0,-44.0,-13.0,-29.0,15.0,-6.0,4.0,30.0,27.0,0.0
28.0,-5.0,-13.0,3.0,-23.0,8.0,-16.0,-1.0,31.0,44.0,0.0
22.0,-10.0,-2.0,30.0,-5.0,15.0,-9.0,-8.0,24.0,52.0,0.0
0.0,-20.0,3.0,47.0,8.0,26.0,2.0,-9.0,18.0,30.0,0.0
-19.0,-25.0,-2.0,65.0,9.0,29.0,11.0,-1.0,2.0,-6.0,0.0
-35.0,-31.0,-11.0,71.0,-4.0,31.0,2.0,7.0,-3.0,-30.0,0.0
-35.0,-28.0,-5.0,61.0,-17.0,14.0,-7.0,12.0,7.0,-25.0,0.0
-12.0,-13.0,28.0,73.0,-15.0,5.0,-17.0,-2.0,11.0,0.0,0.0
11.0,0.0,57.0,67.0,-3.0,-1.0,-27.0,-25.0,19.0,36.0,0.0
14.0,0.0,50.0,35.0,-4.0,-5.0,-21.0,-16.0,20.0,31.0,0.0
-4.0,-22.0,18.0,9.0,-11.0,-1.0,-3.0,-17.0,0.0,-1.0,0.0
-21.0,-18.0,-13.0,-21.0,1.0,-3.0,-1.0,-11.0,-26.0,-45.0,0.0
-17.0,-10.0,-6.0,-36.0,10.0,15.0,-1.0,4.0,-27.0,-56.0,0.0
-11.0,-2.0,27.0,-26.0,21.0,15.0,5.0,9.0,-33.0,-43.0,0.0
20.0,15.0,24.0,-23.0,14.0,8.0,-6.0,-4.0,-14.0,0.0,0.0
43.0,21.0,-42.0,-55.0,0.0,-1.0,-10.0,-1.0,0.0,33.0,0.0
43.0,13.0,-85.0,-76.0,-10.0,-16.0,-3.0,11.0,-5.0,16.0,0.0
29.0,12.0,-71.0,-62.0,-8.0,-14.0,0.0,13.0,-17.0,0.0,0.0
17.0,8.0,-39.0,-35.0,1.0,-8.0,6.0,10.0,-16.0,-11.0,0.0
16.0,1.0,-20.0,-22.0,-6.0,-6.0,3.0,11.0,-7.0,-3.0,0.0
10.0,-1.0,-19.0,-24.0,-17.0,-8.0,1.0,22.0,2.0,2.0,0.0
21.0,-15.0,-19.0,-14.0,-22.0,0.0,15.0,28.0,5.0,13.0,0.0
31.0,-12.0,-14.0,-3.0,-15.0,7.0,23.0,16.0,-5.0,13.0,0.0
11.0,2.0,0.0,11.0,-4.0,10.0,12.0,-3.0,-37.0,-12.0,0.0
-6.0,-13.0,6.0,15.0,5.0,0.0,-3.0,-19.0,-51.0,-32.0,0.0
6.0,-11.0,4.0,10.0,-3.0,0.0,-9.0,-33.0,-34.0,-14.0,0.0
-4.0,-7.0,25.0,13.0,-9.0,-2.0,0.0,-37.0,-24.0,-19.0,0.0
-34.0,-22.0,42.0,16.0,0.0,-3.0,-7.0,-39.0,-11.0,-51.0,0.0
-18.0,-21.0,25.0,16.0,-2.0,1.0,-10.0,-13.0,15.0,-55.0,0.0
2.0,-28.0,18.0,14.0,-7.0,14.0,-7.0,5.0,45.0,-47.0,0.0
3.0,-21.0,49.0,40.0,2.0,20.0,1.0,10.0,42.0,-34.0,0.0
-2.0,-18.0,63.0,46.0,15.0,24.0,0.0,10.0,23.0,-31.0,0.0
2.0,-21.0,38.0,22.0,5.0,25.0,7.0,7.0,14.0,-19.0,0.0
4.0,-3.0,31.0,4.0,-3.0,31.0,9.0,7.0,-5.0,-8.0,0.0
-17.0,13.0,36.0,0.0,-1.0,21.0,10.0,-3.0,-35.0,-22.0,0.0
-39.0,1.0,17.0,7.0,13.0,30.0,12.0,-16.0,-42.0,-43.0,0.0
-51.0,2.0,-4.0,4.0,32.0,29.0,8.0,-3.0,-13.0,-39.0,0.0
-27.0,13.0,1.0,1.0,22.0,24.0,14.0,-10.0,4.0,-24.0,0.0
3.0,33.0,10.0,-10.0,15.0,34.0,33.0,-3.0,14.0,0.0,0.0
10.0,29.0,21.0,-7.0,7.0,62.0,53.0,26.0,29.0,14.0,0.0
-4.0,0.0,3.0,-24.0,-14.0,36.0,50.0,32.0,42.0,25.0,0.0
-20.0,-31.0,-14.0,-33.0,-14.0,7.0,23.0,28.0,35.0,25.0,0.0
-27.0,-43.0,6.0,-32.0,-11.0,1.0,22.0,13.0,11.0,7.0,0.0
-22.0,-34.0,38.0,-42.0,-21.0,-16.0,9.0,-4.0,-13.0,-4.0,0.0
-14.0,-20.0,32.0,-46.0,-27.0,-30.0,-28.0,-22.0,-34.0,-8.0,0.0
-9.0,-22.0,23.0,-52.0,-29.0,-32.0,-27.0,-15.0,-38.0,-2.0,0.0
-3.0,-26.0,23.0,-52.0,-28.0,-23.0,3.0,5.0,-22.0,0.0,0.0
-2.0,-16.0,14.0,-46.0,-25.0,-14.0,9.0,25.0,11.0,5.0,0.0
-15.0,-12.0,10.0,-36.0,-15.0,-16.0,0.0,29.0,45.0,-9.0,0.0
0.0,-3.0,12.0,-14.0,-4.0,-21.0,-10.0,17.0,57.0,-6.0,0.0
26.0,10.0,25.0,-9.0,-8.0,-24.0,-19.0,10.0,46.0,23.0,0.0
9.0,9.0,32.0,-13.0,-13.0,-25.0,-20.0,3.0,23.0,22.0,0.0
-12.0,-4.0,26.0,-22.0,-17.0,-23.0,-20.0,4.0,9.0,15.0,0.0
-15.0,-1.0,31.0,-22.0,-21.0,-20.0,-23.0,5.0,-2.0,16.0,0.0
-14.0,-2.0,27.0,-20.0,-20.0,-24.0,-16.0,5.0,-23.0,8.0,0.0
-5.0,-7.0,12.0,-12.0,-16.0,-29.0,-19.0,-2.0,-36.0,-1.0,0.0
-20.0,-4.0,-31.0,-8.0,-5.0,-11.0,-23.0,-3.0,-27.0,4.0,0.0
-33.0,-5.0,-32.0,9.0,0.0,-9.0,-19.0,-4.0,4.0,6.0,0.0
-26.0,-10.0,0.0,29.0,1.0,-15.0,-17.0,-8.0,26.0,0.0,0.0
-13.0,-10.0,4.0,22.0,-1.0,-11.0,-19.0,-9.0,26.0,-5.0,0.0
7.0,5.0,3.0,14.0,-3.0,-13.0,-20.0,-7.0,14.0,-5.0,0.0
20.0,22.0,7.0,-12.0,-14.0,-21.0,-8.0,-6.0,2.0,-12.0,0.0
12.0,26.0,20.0,-29.0,-28.0,-24.0,-2.0,-2.0,-11.0,-18.0,0.0
6.0,29.0,36.0,-32.0,-35.0,-10.0,6.0,7.0,-16.0,-14.0,0.0
12.0,37.0,40.0,-28.0,-34.0,-6.0,17.0,25.0,-18.0,-10.0,0.0
9.0,30.0,28.0,-30.0,-28.0,-8.0,27.0,31.0,-13.0,-17.0,0.0
-11.0,2.0,-3.0,-37.0,-32.0,-7.0,23.0,11.0,-22.0,-40.0,0.0
-30.0,-18.0,-21.0,-19.0,-23.0,1.0,10.0,-5.0,-24.0,-62.0,0.0
-29.0,-25.0,-11.0,10.0,2.0,4.0,12.0,-2.0,-21.0,-47.0,0.0
0.0,-27.0,-12.0,22.0,13.0,8.0,20.0,0.0,-3.0,1.0,0.0
10.0,-25.0,1.0,10.0,-6.0,-2.0,2.0,-1.0,8.0,25.0,0.0
-10.0,-16.0,-3.0,9.0,-4.0,0.0,5.0,7.0,10.0,21.0,0.0
-27.0,-29.0,-4.0,21.0,11.0,10.0,23.0,13.0,23.0,20.0,0.0
-27.0,-31.0,-9.0,43.0,2.0,5.0,16.0,18.0,32.0,27.0,0.0
-22.0,-20.0,-20.0,45.0,-11.0,9.0,0.0,12.0,21.0,23.0,0.0
-22.0,-17.0,-14.0,36.0,-14.0,3.0,4.0,5.0,6.0,25.0,0.0
-20.0,-16.0,0.0,43.0,4.0,-11.0,7.0,-3.0,-3.0,2.0,0.0
0.0,-7.0,7.0,58.0,13.0,-12.0,0.0,-11.0,-21.0,-5.0,0.0
12.0,-1.0,5.0,45.0,1.0,-8.0,-2.0,-7.0,-31.0,-1.0,0.0
14.0,8.0,14.0,16.0,-2.0,-6.0,11.0,7.0,-37.0,-1.0,0.0
25.0,17.0,13.0,-10.0,-4.0,-2.0,13.0,19.0,-10.0,1.0,0.0
37.0,38.0,9.0,-27.0,-19.0,-4.0,11.0,27.0,4.0,3.0,0.0
46.0,57.0,0.0,-34.0,-21.0,-10.0,15.0,31.0,17.0,14.0,0.0
40.0,39.0,-9.0,-37.0,-7.0,2.0,3.0,30.0,27.0,22.0,0.0
30.0,21.0,-25.0,-28.0,5.0,16.0,5.0,19.0,33.0,14.0,0.0
33.0,20.0,-27.0,-11.0,-3.0,6.0,3.0,17.0,31.0,12.0,0.0
34.0,16.0,-10.0,29.0,-1.0,1.0,-8.0,2.0,15.0,27.0,0.0
27.0,10.0,17.0,50.0,-5.0,0.0,-12.0,-5.0,19.0,42.0,0.0
21.0,8.0,19.0,49.0,-3.0,6.0,-13.0,-1.0,29.0,39.0,0.0
0.0,4.0,29.0,48.0,-2.0,23.0,-2.0,-6.0,-1.0,7.0,0.0
-19.0,0.0,37.0,40.0,12.0,27.0,6.0,-8.0,-15.0,-24.0,0.0
-18.0,8.0,33.0,12.0,-1.0,19.0,-8.0,-16.0,-31.0,-30.0,0.0
-11.0,8.0,6.0,-14.0,-17.0,0.0,-25.0,-18.0,-29.0,-19.0,0.0
4.0,5.0,-10.0,-35.0,-32.0,-15.0,-28.0,-16.0,-11.0,-12.0,0.0
8.0,-5.0,-24.0,-36.0,-27.0,-22.0,-26.0,-10.0,-2.0,-4.0,0.0
-13.0,-24.0,-42.0,-27.0,-20.0,-18.0,-14.0,-12.0,-4.0,-8.0,0.0
-51.0,-37.0,-36.0,-19.0,-9.0,-14.0,-15.0,-12.0,8.0,-34.0,0.0
-70.0,-35.0,-27.0,-9.0,0.0,-1.0,-11.0,1.0,27.0,-60.0,0.0
-71.0,-33.0,-37.0,-11.0,0.0,-8.0,5.0,16.0,67.0,-62.0,0.0
-55.0,-32.0,-22.0,0.0,-6.0,-10.0,8.0,22.0,95.0,-11.0,0.0
-58.0,-38.0,-19.0,19.0,15.0,3.0,20.0,22.0,84.0,13.0,0.0
-58.0,-31.0,-38.0,33.0,31.0,23.0,30.0,10.0,53.0,17.0,0.0
-30.0,3.0,-14.0,48.0,42.0,18.0,23.0,-17.0,39.0,62.0,0.0
-15.0,16.0,5.0,53.0,43.0,25.0,9.0,-19.0,0.0,52.0,0.0
-26.0,8.0,11.0,53.0,51.0,40.0,5.0,-14.0,-46.0,-6.0,0.0
-32.0,5.0,19.0,45.0,53.0,35.0,7.0,-16.0,-50.0,-21.0,0.0
-19.0,0.0,20.0,32.0,26.0,31.0,7.0,-10.0,-29.0,-12.0,0.0
-2.0,-2.0,45.0,21.0,15.0,31.0,-11.0,-7.0,-24.0,-11.0,0.0
8.0,8.0,42.0,0.0,4.0,25.0,-18.0,4.0,-21.0,0.0,0.0
4.0,-4.0,3.0,-6.0,5.0,12.0,-2.0,29.0,0.0,16.0,0.0
2.0,-2.0,0.0,-1.0,3.0,5.0,1.0,26.0,-5.0,25.0,0.0
6.0,-1.0,4.0,-17.0,-6.0,-1.0,-8.0,8.0,0.0,16.0,0.0
14.0,-5.0,3.0,-28.0,-12.0,0.0,-16.0,10.0,14.0,0.0,0.0
26.0,-2.0,15.0,0.0,-3.0,0.0,-10.0,6.0,26.0,5.0,0.0
38.0,12.0,14.0,43.0,14.0,1.0,10.0,13.0,43.0,23.0,0.0
25.0,12.0,-28.0,39.0,5.0,19.0,11.0,15.0,36.0,24.0,0.0
14.0,5.0,-26.0,16.0,3.0,27.0,-2.0,9.0,5.0,12.0,0.0
4.0,-5.0,-3.0,4.0,15.0,17.0,2.0,-3.0,-14.0,-22.0,0.0
8.0,-6.0,9.0,4.0,11.0,19.0,1.0,-11.0,-27.0,-30.0,0.0
11.0,2.0,7.0,27.0,0.0,11.0,-3.0,-15.0,-44.0,-20.0,0.0
16.0,5.0,1.0,61.0,7.0,17.0,-1.0,-7.0,-46.0,-14.0,0.0
24.0,15.0,2.0,64.0,19.0,32.0,7.0,-5.0,-42.0,-8.0,0.0
20.0,11.0,-1.0,33.0,15.0,46.0,16.0,-1.0,-36.0,-5.0,0.0
32.0,19.0,2.0,6.0,8.0,30.0,3.0,7.0,-32.0,-1.0,0.0
33.0,31.0,20.0,21.0,12.0,33.0,-2.0,-2.0,-32.0,-3.0,0.0
30.0,40.0,23.0,23.0,12.0,44.0,12.0,-8.0,-35.0,-19.0,0.0
28.0,35.0,-10.0,-29.0,-2.0,31.0,13.0,6.0,-21.0,-13.0,0.0
22.0,21.0,-65.0,-83.0,-21.0,5.0,12.0,16.0,-10.0,-7.0,0.0
19.0,2.0,-87.0,-103.0,-16.0,-13.0,6.0,16.0,-23.0,-23.0,0.0
11.0,-9.0,-91.0,-118.0,-26.0,-20.0,3.0,13.0,-33.0,-50.0,0.0
16.0,-10.0,-92.0,-137.0,-62.0,-16.0,3.0,-1.0,-26.0,-37.0,0.0
39.0,6.0,-44.0,-114.0,-82.0,-3.0,1.0,-9.0,10.0,34.0,0.0
48.0,13.0,-10.0,-87.0,-75.0,-30.0,-31.0,-34.0,22.0,83.0,0.0
47.0,21.0,-19.0,-44.0,-64.0,-25.0,-33.0,-43.0,31.0,69.0,0.0
53.0,31.0,-30.0,-15.0,-42.0,-20.0,-37.0,-42.0,70.0,41.0,0.0
48.0,33.0,-17.0,5.0,-23.0,-4.0,-33.0,-31.0,106.0,31.0,0.0
45.0,31.0,-16.0,32.0,-14.0,10.0,-37.0,-23.0,98.0,32.0,0.0
37.0,23.0,-11.0,68.0,-3.0,20.0,-34.0,-22.0,49.0,12.0,0.0
-11.0,-8.0,13.0,103.0,16.0,15.0,-25.0,-20.0,21.0,-27.0,0.0
-56.0,-48.0,14.0,111.0,31.0,28.0,-26.0,-10.0,-13.0,-43.0,0.0
-62.0,-45.0,24.0,97.0,40.0,44.0,-19.0,0.0,-50.0,-52.0,0.0
-52.0,-33.0,17.0,70.0,42.0,59.0,0.0,3.0,-86.0,-42.0,0.0
-39.0,-33.0,-3.0,38.0,26.0,51.0,13.0,11.0,-77.0,-15.0,0.0
-18.0,-17.0,0.0,21.0,13.0,37.0,17.0,11.0,-37.0,-7.0,0.0
5.0,4.0,13.0,-10.0,12.0,30.0,21.0,18.0,-18.0,1.0,0.0
21.0,25.0,13.0,-48.0,1.0,20.0,16.0,11.0,-12.0,-1.0,0.0
31.0,58.0,21.0,-46.0,0.0,13.0,13.0,4.0,-15.0,-6.0,0.0
43.0,76.0,23.0,-51.0,2.0,0.0,13.0,-3.0,-8.0,-7.0,0.0
61.0,75.0,26.0,-60.0,-1.0,-1.0,4.0,-8.0,-7.0,-11.0,0.0
66.0,65.0,6.0,-65.0,1.0,-6.0,6.0,-14.0,-4.0,1.0,0.0
46.0,42.0,-13.0,-68.0,-6.0,-13.0,14.0,-14.0,-10.0,8.0,0.0
7.0,-7.0,-27.0,-58.0,0.0,-11.0,21.0,-6.0,3.0,2.0,0.0
-22.0,-37.0,-21.0,-40.0,2.0,-7.0,5.0,-5.0,2.0,-7.0,0.0
-41.0,-54.0,-1.0,-31.0,4.0,-8.0,-13.0,-6.0,-5.0,-25.0,0.0
-49.0,-64.0,16.0,-25.0,12.0,0.0,-9.0,-3.0,-11.0,-20.0,0.0
-56.0,-71.0,11.0,-24.0,17.0,-2.0,2.0,-8.0,-8.0,-31.0,0.0
-55.0,-71.0,8.0,-9.0,17.0,-7.0,-7.0,-9.0,0.0,-30.0,0.0
-47.0,-56.0,-16.0,0.0,23.0,-2.0,-15.0,-1.0,16.0,-19.0,0.0
-43.0,-56.0,-47.0,8.0,27.0,0.0,-15.0,0.0,12.0,-31.0,0.0
-22.0,-32.0,-20.0,8.0,26.0,5.0,-17.0,-6.0,1.0,-24.0,0.0
-14.0,-2.0,6.0,10.0,34.0,16.0,16.0,0.0,9.0,-21.0,0.0
-19.0,-2.0,14.0,7.0,35.0,19.0,27.0,2.0,2.0,-23.0,0.0
-15.0,-11.0,12.0,-2.0,27.0,7.0,11.0,10.0,-2.0,-20.0,0.0
-4.0,-18.0,-2.0,6.0,22.0,1.0,8.0,15.0,-2.0,-6.0,0.0
20.0,-30.0,-37.0,-3.0,31.0,8.0,12.0,16.0,19.0,17.0,0.0
27.0,-13.0,-68.0,-20.0,41.0,16.0,14.0,27.0,33.0,33.0,0.0
17.0,4.0,-44.0,-21.0,30.0,13.0,10.0,28.0,17.0,6.0,0.0
0.0,14.0,-23.0,-1.0,26.0,7.0,7.0,10.0,-12.0,-19.0,0.0
-15.0,-6.0,-23.0,13.0,28.0,8.0,4.0,-8.0,-21.0,-39.0,0.0
-11.0,-15.0,-23.0,18.0,32.0,8.0,-9.0,-10.0,-25.0,-20.0,0.0
-7.0,-13.0,-14.0,28.0,37.0,0.0,-12.0,-6.0,-28.0,-5.0,0.0
-12.0,-17.0,-18.0,26.0,31.0,-17.0,-1.0,-8.0,-27.0,-6.0,0.0
1.0,-16.0,-17.0,26.0,20.0,-29.0,-6.0,-22.0,-33.0,-13.0,0.0
9.0,-7.0,-10.0,21.0,11.0,-28.0,-25.0,-42.0,-33.0,-19.0,0.0
-4.0,4.0,-11.0,22.0,1.0,-29.0,-37.0,-39.0,-23.0,-13.0,0.0
-16.0,5.0,-17.0,16.0,-3.0,-39.0,-44.0,-37.0,-5.0,-11.0,0.0
-27.0,-11.0,-8.0,3.0,-1.0,-34.0,-36.0,-39.0,15.0,-45.0,0.0
-43.0,-17.0,0.0,9.0,2.0,-27.0,-29.0,-40.0,35.0,-55.0,0.0
-30.0,-13.0,-1.0,2.0,1.0,-38.0,-19.0,-34.0,50.0,-30.0,0.0
-22.0,-26.0,-28.0,-21.0,-12.0,-29.0,-20.0,-18.0,45.0,-8.0,0.0
-13.0,-39.0,-38.0,-30.0,-27.0,-24.0,-29.0,-7.0,46.0,23.0,0.0
-15.0,-38.0,-19.0,-8.0,-6.0,-12.0,-28.0,-19.0,32.0,41.0,0.0
-13.0,-24.0,-7.0,9.0,15.0,-4.0,-14.0,-20.0,0.0,15.0,0.0
-8.0,-11.0,-1.0,0.0,17.0,-13.0,-16.0,-23.0,-18.0,1.0,0.0
-16.0,-1.0,18.0,0.0,17.0,-18.0,-19.0,-30.0,-23.0,-4.0,0.0
-12.0,6.0,39.0,9.0,12.0,-3.0,-19.0,-30.0,-19.0,-9.0,0.0
-7.0,18.0,71.0,14.0,12.0,-5.0,-20.0,-18.0,-24.0,-4.0,0.0
1.0,21.0,68.0,11.0,2.0,2.0,-10.0,-10.0,-6.0,5.0,0.0
6.0,12.0,20.0,14.0,-4.0,0.0,6.0,5.0,11.0,18.0,0.0
-12.0,-2.0,2.0,6.0,2.0,-2.0,2.0,2.0,-12.0,-4.0,0.0
-27.0,-8.0,-9.0,-9.0,18.0,5.0,-3.0,1.0,-21.0,-18.0,0.0
-34.0,-8.0,-23.0,-29.0,14.0,9.0,-13.0,-4.0,-29.0,-14.0,0.0
12.0,20.0,4.0,-22.0,9.0,7.0,-27.0,-22.0,-4.0,48.0,0.0
47.0,44.0,15.0,0.0,12.0,0.0,-29.0,-21.0,16.0,78.0,0.0
39.0,39.0,17.0,5.0,13.0,-2.0,-16.0,-23.0,7.0,48.0,0.0
31.0,29.0,17.0,10.0,8.0,4.0,-3.0,-17.0,-16.0,26.0,0.0
23.0,25.0,4.0,15.0,11.0,7.0,11.0,-14.0,-20.0,17.0,0.0
22.0,28.0,-11.0,2.0,15.0,3.0,20.0,-3.0,-13.0,18.0,0.0
10.0,17.0,-13.0,-6.0,8.0,8.0,27.0,-5.0,-22.0,2.0,0.0
8.0,5.0,-19.0,-11.0,3.0,6.0,14.0,-7.0,-18.0,-1.0,0.0
29.0,25.0,-10.0,-6.0,11.0,-11.0,8.0,-8.0,3.0,36.0,0.0
31.0,28.0,7.0,10.0,22.0,-18.0,19.0,2.0,0.0,40.0,0.0
31.0,20.0,27.0,16.0,22.0,-5.0,22.0,-3.0,-25.0,11.0,0.0
18.0,7.0,35.0,28.0,25.0,11.0,8.0,-6.0,-31.0,-19.0,0.0
7.0,-6.0,30.0,15.0,22.0,17.0,-8.0,-2.0,-35.0,-27.0,0.0
11.0,-7.0,21.0,-1.0,20.0,5.0,-23.0,-7.0,-27.0,13.0,0.0
17.0,-11.0,15.0,-11.0,13.0,-8.0,-32.0,-16.0,-25.0,37.0,0.0
2.0,0.0,-4.0,-17.0,-7.0,-1.0,-26.0,-15.0,-28.0,21.0,0.0
-10.0,7.0,-37.0,-17.0,-15.0,-2.0,-27.0,-12.0,-33.0,17.0,0.0
-18.0,7.0,-35.0,11.0,-13.0,-12.0,-16.0,-21.0,-19.0,8.0,0.0
-15.0,-5.0,-21.0,27.0,-14.0,-15.0,-4.0,-18.0,6.0,0.0,0.0
-16.0,-15.0,-18.0,5.0,-16.0,-15.0,4.0,-3.0,50.0,0.0,0.0
-14.0,-9.0,-13.0,-17.0,-14.0,-19.0,4.0,-14.0,74.0,-10.0,0.0
-13.0,0.0,-4.0,-16.0,-2.0,-14.0,6.0,-12.0,66.0,-30.0,0.0
0.0,19.0,19.0,15.0,9.0,0.0,5.0,-4.0,48.0,-13.0,0.0
35.0,26.0,38.0,44.0,18.0,-6.0,-5.0,-4.0,50.0,30.0,0.0
52.0,17.0,41.0,51.0,17.0,0.0,-12.0,2.0,38.0,37.0,0.0
46.0,7.0,31.0,27.0,18.0,21.0,-10.0,12.0,12.0,21.0,0.0
39.0,3.0,22.0,7.0,11.0,22.0,7.0,8.0,-5.0,17.0,0.0
32.0,3.0,31.0,-5.0,-7.0,6.0,12.0,8.0,-14.0,17.0,0.0
24.0,5.0,31.0,-19.0,-20.0,0.0,-2.0,-7.0,-17.0,8.0,0.0
9.0,-9.0,26.0,-27.0,-14.0,-17.0,-10.0,-24.0,-3.0,1.0,0.0
4.0,-11.0,27.0,-28.0,-7.0,-12.0,-14.0,-27.0,12.0,-7.0,0.0
12.0,0.0,22.0,-18.0,-10.0,-10.0,-18.0,-22.0,46.0,-11.0,0.0
32.0,1.0,23.0,-7.0,-11.0,-8.0,-28.0,-28.0,77.0,-5.0,0.0
68.0,14.0,-14.0,-15.0,-11.0,-5.0,-35.0,-12.0,101.0,15.0,0.0
79.0,28.0,-29.0,-18.0,-8.0,-13.0,-26.0,1.0,82.0,33.0,0.0
69.0,31.0,-12.0,-20.0,-6.0,-18.0,-17.0,4.0,41.0,17.0,0.0
69.0,29.0,-11.0,-15.0,-6.0,-19.0,-5.0,10.0,8.0,10.0,0.0
68.0,21.0,-12.0,-9.0,-4.0,-14.0,10.0,10.0,-14.0,7.0,0.0
64.0,28.0,-14.0,9.0,-1.0,-3.0,13.0,0.0,-46.0,-2.0,0.0
51.0,34.0,-1.0,20.0,0.0,2.0,21.0,0.0,-57.0,-9.0,0.0
16.0,25.0,-6.0,41.0,7.0,3.0,26.0,1.0,-64.0,-37.0,0.0
-28.0,2.0,-10.0,42.0,-6.0,9.0,13.0,-3.0,-79.0,-77.0,0.0
-54.0,-10.0,-10.0,49.0,5.0,23.0,11.0,-14.0,-92.0,-115.0,0.0
-21.0,3.0,-7.0,47.0,19.0,28.0,4.0,-33.0,-68.0,-66.0,0.0
19.0,13.0,-2.0,34.0,25.0,26.0,-14.0,-41.0,-18.0,-1.0,0.0
15.0,7.0,-2.0,1.0,1.0,5.0,-13.0,-24.0,30.0,13.0,0.0
-1.0,-10.0,-13.0,-29.0,-23.0,-9.0,6.0,-21.0,53.0,14.0,0.0
3.0,-24.0,-16.0,-57.0,-27.0,-13.0,-3.0,-17.0,51.0,40.0,0.0
7.0,-16.0,-2.0,-49.0,-26.0,-24.0,-20.0,-15.0,29.0,46.0,0.0
4.0,-15.0,29.0,-6.0,-23.0,-21.0,-7.0,-2.0,16.0,38.0,0.0
-8.0,-19.0,63.0,-1.0,-12.0,1.0,11.0,7.0,-4.0,35.0,0.0
-20.0,-7.0,83.0,0.0,-8.0,15.0,16.0,9.0,-38.0,19.0,0.0
-3.0,5.0,64.0,-11.0,-7.0,18.0,33.0,19.0,-48.0,21.0,0.0
14.0,0.0,-18.0,-23.0,2.0,16.0,40.0,41.0,-23.0,29.0,0.0
17.0,-7.0,-22.0,-18.0,6.0,15.0,21.0,42.0,-22.0,21.0,0.0
11.0,3.0,6.0,-19.0,6.0,15.0,11.0,31.0,-14.0,8.0,0.0
14.0,18.0,13.0,-13.0,10.0,30.0,12.0,46.0,-6.0,0.0,0.0
14.0,20.0,6.0,-28.0,8.0,19.0,9.0,52.0,-6.0,-6.0,0.0
11.0,24.0,0.0,-20.0,0.0,19.0,11.0,39.0,20.0,5.0,0.0
4.0,13.0,0.0,11.0,-2.0,16.0,13.0,23.0,25.0,5.0,0.0
3.0,-1.0,-1.0,18.0,-3.0,7.0,10.0,22.0,1.0,-2.0,0.0
27.0,-4.0,1.0,24.0,1.0,1.0,-10.0,12.0,-8.0,22.0,0.0
47.0,16.0,35.0,25.0,10.0,0.0,-18.0,9.0,-4.0,52.0,0.0
32.0,29.0,38.0,12.0,14.0,5.0,-5.0,11.0,-14.0,24.0,0.0
17.0,28.0,17.0,-12.0,0.0,12.0,-2.0,18.0,-19.0,5.0,0.0
36.0,35.0,18.0,-33.0,-20.0,13.0,-12.0,15.0,-14.0,4.0,0.0
44.0,39.0,9.0,-58.0,-35.0,-14.0,-24.0,0.0,-15.0,18.0,0.0
54.0,37.0,-7.0,-65.0,-36.0,-25.0,-28.0,-2.0,-2.0,34.0,0.0
53.0,25.0,-22.0,-49.0,-21.0,-37.0,-33.0,13.0,15.0,38.0,0.0
7.0,6.0,-10.0,-26.0,-1.0,-37.0,-22.0,4.0,18.0,34.0,0.0
-5.0,-4.0,-14.0,-14.0,0.0,-20.0,8.0,4.0,18.0,33.0,0.0
-3.0,-9.0,-16.0,-8.0,4.0,-10.0,5.0,21.0,18.0,32.0,0.0
-6.0,-9.0,-10.0,0.0,12.0,-18.0,0.0,44.0,27.0,50.0,0.0
3.0,-13.0,-8.0,12.0,14.0,-22.0,5.0,45.0,38.0,66.0,0.0
25.0,-6.0,-14.0,17.0,8.0,-25.0,2.0,42.0,26.0,72.0,0.0
36.0,-16.0,-26.0,14.0,8.0,-31.0,4.0,32.0,16.0,46.0,0.0
30.0,-25.0,-19.0,16.0,12.0,-16.0,7.0,26.0,15.0,26.0,0.0
12.0,-23.0,-5.0,24.0,6.0,-2.0,-1.0,26.0,3.0,15.0,0.0
-15.0,-38.0,-1.0,28.0,2.0,2.0,-5.0,24.0,-2.0,-9.0,0.0
-45.0,-44.0,-13.0,37.0,11.0,0.0,-12.0,18.0,-10.0,-30.0,0.0
-48.0,-33.0,-1.0,47.0,17.0,-7.0,-26.0,1.0,-11.0,-29.0,0.0
-64.0,-28.0,-4.0,51.0,10.0,0.0,-18.0,-10.0,-26.0,-30.0,0.0
-95.0,-37.0,-20.0,39.0,14.0,10.0,-8.0,-18.0,-40.0,-59.0,0.0
-75.0,-24.0,-7.0,24.0,5.0,0.0,-25.0,-23.0,-49.0,-37.0,0.0
-34.0,-17.0,18.0,42.0,0.0,-22.0,-35.0,-33.0,-35.0,-5.0,0.0
-14.0,-20.0,28.0,71.0,26.0,-22.0,-30.0,-24.0,-13.0,2.0,0.0
-21.0,-42.0,24.0,64.0,56.0,-8.0,-16.0,-30.0,6.0,-4.0,0.0
-33.0,-43.0,20.0,47.0,68.0,4.0,-15.0,-25.0,36.0,-6.0,0.0
-25.0,-39.0,16.0,34.0,52.0,-1.0,-9.0,-22.0,58.0,-2.0,0.0
-8.0,-18.0,18.0,23.0,21.0,-4.0,-3.0,-3.0,67.0,9.0,0.0
15.0,0.0,25.0,8.0,9.0,-5.0,-3.0,5.0,64.0,15.0,0.0
12.0,4.0,31.0,-2.0,4.0,0.0,-2.0,10.0,53.0,7.0,0.0
1.0,7.0,13.0,-29.0,-2.0,6.0,1.0,2.0,9.0,-11.0,0.0
14.0,5.0,11.0,-72.0,-17.0,8.0,8.0,5.0,-11.0,-20.0,0.0
10.0,13.0,34.0,-105.0,-34.0,7.0,5.0,3.0,-12.0,0.0,0.0
19.0,25.0,43.0,-104.0,-23.0,-6.0,-2.0,-8.0,-20.0,36.0,0.0
24.0,29.0,39.0,-81.0,-17.0,-14.0,-9.0,-22.0,-26.0,31.0,0.0
16.0,21.0,36.0,-41.0,-7.0,-5.0,-1.0,-18.0,-27.0,26.0,0.0
21.0,25.0,40.0,6.0,0.0,-2.0,-2.0,-19.0,-31.0,17.0,0.0
21.0,27.0,15.0,16.0,0.0,-9.0,-6.0,-11.0,-40.0,10.0,0.0
8.0,18.0,-25.0,-2.0,-6.0,-10.0,-2.0,-7.0,-53.0,-14.0,0.0
-3.0,14.0,-38.0,-11.0,-5.0,-4.0,0.0,0.0,-47.0,-25.0,0.0
11.0,27.0,-35.0,-20.0,-6.0,-3.0,6.0,24.0,-17.0,-4.0,0.0
11.0,29.0,-27.0,-29.0,-16.0,0.0,24.0,23.0,-18.0,0.0,0.0
-5.0,8.0,-4.0,-16.0,-10.0,4.0,43.0,35.0,-13.0,-18.0,0.0
4.0,10.0,3.0,-6.0,-3.0,-6.0,51.0,40.0,11.0,12.0,0.0
28.0,33.0,-1.0,-13.0,-5.0,-14.0,41.0,40.0,13.0,53.0,0.0
27.0,26.0,-17.0,-9.0,-15.0,-8.0,26.0,46.0,0.0,39.0,0.0
14.0,5.0,-37.0,-3.0,-28.0,-2.0,27.0,37.0,-16.0,14.0,0.0
-13.0,-11.0,-51.0,19.0,-14.0,-7.0,34.0,36.0,-18.0,-5.0,0.0
-27.0,-17.0,-39.0,48.0,1.0,-2.0,23.0,45.0,-14.0,-14.0,0.0
-28.0,-20.0,-23.0,50.0,0.0,-4.0,7.0,30.0,-14.0,-16.0,0.0
-26.0,-8.0,-10.0,46.0,5.0,-10.0,-9.0,32.0,-13.0,-28.0,0.0
-33.0,-19.0,4.0,40.0,13.0,-8.0,-24.0,26.0,-18.0,-39.0,0.0
-36.0,-19.0,4.0,33.0,12.0,-10.0,-20.0,22.0,-24.0,-27.0,0.0
-36.0,-24.0,-10.0,14.0,-1.0,-20.0,-17.0,11.0,-32.0,-21.0,0.0
-33.0,-38.0,-16.0,0.0,-8.0,-24.0,-28.0,1.0,-32.0,-26.0,0.0
-23.0,-45.0,-4.0,-17.0,-12.0,-23.0,-25.0,11.0,-18.0,-19.0,0.0
-3.0,-35.0,-2.0,-9.0,-16.0,-10.0,-8.0,17.0,8.0,0.0,0.0
12.0,-26.0,-11.0,-12.0,-22.0,-9.0,1.0,19.0,44.0,12.0,0.0
16.0,-14.0,2.0,-11.0,-28.0,-17.0,-6.0,17.0,63.0,17.0,0.0
24.0,0.0,0.0,7.0,-27.0,-21.0,-11.0,12.0,63.0,20.0,0.0
17.0,-7.0,-6.0,-2.0,-29.0,-26.0,-14.0,22.0,49.0,8.0,0.0
-4.0,-15.0,11.0,-2.0,-20.0,-28.0,-8.0,15.0,46.0,2.0,0.0
-38.0,-20.0,6.0,4.0,-13.0,-23.0,-3.0,19.0,43.0,0.0,0.0
-46.0,-17.0,4.0,2.0,-4.0,-7.0,-6.0,20.0,36.0,5.0,0.0
-23.0,-6.0,-3.0,4.0,-9.0,-3.0,-20.0,11.0,16.0,-1.0,0.0
-13.0,3.0,-9.0,5.0,-6.0,-1.0,-11.0,15.0,-1.0,5.0,0.0
-19.0,-10.0,-2.0,0.0,1.0,3.0,-5.0,21.0,-1.0,0.0,0.0
-19.0,-13.0,-5.0,-9.0,1.0,6.0,-13.0,10.0,-11.0,-22.0,0.0
-31.0,-17.0,-6.0,-6.0,9.0,0.0,-34.0,-11.0,-22.0,-42.0,0.0
-36.0,-16.0,-15.0,-3.0,3.0,-11.0,-31.0,-25.0,-26.0,-54.0,0.0
-34.0,-15.0,-10.0,5.0,-4.0,-5.0,-27.0,-19.0,-25.0,-62.0,0.0
-35.0,-12.0,-7.0,7.0,-12.0,9.0,-27.0,-20.0,-26.0,-73.0,0.0
-36.0,-9.0,7.0,3.0,-12.0,3.0,-28.0,-14.0,-9.0,-79.0,0.0
-23.0,-10.0,38.0,18.0,-7.0,-6.0,-23.0,-3.0,-11.0,-80.0,0.0
-2.0,0.0,49.0,38.0,-17.0,-9.0,-16.0,-6.0,0.0,-64.0,0.0
9.0,6.0,29.0,26.0,-18.0,-1.0,2.0,7.0,-3.0,-47.0,0.0
5.0,7.0,6.0,26.0,-12.0,7.0,21.0,10.0,-12.0,-57.0,0.0
9.0,3.0,15.0,45.0,-3.0,1.0,7.0,14.0,-6.0,-37.0,0.0
20.0,-1.0,16.0,39.0,-5.0,0.0,0.0,13.0,3.0,-24.0,0.0
14.0,-6.0,27.0,31.0,0.0,0.0,0.0,12.0,-1.0,-18.0,0.0
14.0,1.0,35.0,2.0,-9.0,-16.0,-18.0,-1.0,-3.0,8.0,0.0
28.0,21.0,-7.0,-18.0,-12.0,-28.0,-23.0,-13.0,17.0,38.0,0.0
10.0,7.0,-21.0,-25.0,-9.0,-31.0,-21.0,-6.0,12.0,16.0,0.0
-19.0,-6.0,-16.0,-2.0,2.0,-23.0,-21.0,-23.0,-4.0,0.0,0.0
-16.0,0.0,3.0,16.0,21.0,-15.0,-20.0,-30.0,-4.0,14.0,0.0
-15.0,10.0,8.0,18.0,20.0,10.0,-3.0,-16.0,3.0,15.0,0.0
-22.0,12.0,1.0,-11.0,3.0,21.0,-7.0,-13.0,-11.0,12.0,0.0
-26.0,6.0,-36.0,-19.0,0.0,2.0,-11.0,-5.0,-35.0,-1.0,0.0
-11.0,-1.0,-81.0,-5.0,8.0,14.0,4.0,-3.0,-21.0,5.0,0.0
-8.0,2.0,-67.0,-8.0,0.0,15.0,10.0,0.0,-8.0,7.0,0.0
10.0,23.0,-19.0,-14.0,-23.0,-4.0,8.0,8.0,-1.0,23.0,0.0
33.0,54.0,6.0,-39.0,-33.0,-23.0,-3.0,22.0,5.0,34.0,0.0
42.0,51.0,10.0,-51.0,-30.0,-21.0,-5.0,18.0,10.0,38.0,0.0
38.0,44.0,6.0,-35.0,-16.0,-23.0,0.0,22.0,17.0,41.0,0.0
40.0,44.0,-12.0,-46.0,-20.0,-20.0,1.0,30.0,21.0,29.0,0.0
30.0,44.0,-21.0,-47.0,-25.0,-22.0,-11.0,33.0,7.0,22.0,0.0
14.0,32.0,-22.0,-48.0,-21.0,-14.0,-12.0,32.0,2.0,14.0,0.0
-2.0,22.0,-33.0,-47.0,-21.0,-8.0,-3.0,17.0,0.0,-1.0,0.0
23.0,33.0,-21.0,-47.0,-18.0,-11.0,-20.0,5.0,20.0,0.0,0.0
34.0,29.0,-3.0,-35.0,-17.0,-22.0,-31.0,-12.0,44.0,4.0,0.0
23.0,20.0,2.0,-15.0,-18.0,-19.0,-29.0,-30.0,51.0,-13.0,0.0
8.0,19.0,8.0,-7.0,-14.0,1.0,-37.0,-27.0,41.0,-29.0,0.0
-21.0,11.0,23.0,7.0,-4.0,4.0,-55.0,-25.0,33.0,-28.0,0.0
-41.0,-12.0,30.0,21.0,-3.0,0.0,-43.0,-33.0,6.0,-33.0,0.0
-48.0,-28.0,20.0,19.0,2.0,13.0,-12.0,-31.0,-20.0,-38.0,0.0
-64.0,-23.0,21.0,31.0,15.0,35.0,7.0,-31.0,-47.0,-55.0,0.0
-54.0,-25.0,13.0,3.0,15.0,42.0,26.0,-23.0,-59.0,-51.0,0.0
-32.0,-18.0,7.0,-1.0,2.0,34.0,41.0,0.0,-45.0,-33.0,0.0
-14.0,-2.0,5.0,0.0,3.0,29.0,44.0,7.0,-37.0,-16.0,0.0
-13.0,-11.0,2.0,2.0,3.0,26.0,39.0,4.0,-41.0,-31.0,0.0
-17.0,-18.0,-8.0,1.0,8.0,23.0,31.0,0.0,-33.0,-45.0,0.0
-10.0,-32.0,-19.0,-3.0,5.0,15.0,9.0,-5.0,-23.0,-14.0,0.0
-30.0,-42.0,-30.0,-8.0,-4.0,1.0,2.0,-6.0,-26.0,-25.0,0.0
-45.0,-52.0,-42.0,17.0,-7.0,-7.0,-3.0,5.0,-14.0,-33.0,0.0
-36.0,-49.0,-24.0,38.0,-9.0,-14.0,-15.0,-6.0,8.0,-3.0,0.0
-26.0,-25.0,-20.0,29.0,-13.0,-21.0,-31.0,-16.0,35.0,29.0,0.0
-30.0,-19.0,-14.0,3.0,-11.0,-14.0,-34.0,-7.0,56.0,32.0,0.0
-35.0,-19.0,-3.0,0.0,-9.0,0.0,-25.0,2.0,53.0,22.0,0.0
-42.0,-23.0,-6.0,14.0,-1.0,7.0,-20.0,2.0,37.0,5.0,0.0
-55.0,-29.0,7.0,31.0,8.0,17.0,0.0,13.0,15.0,-1.0,0.0
-34.0,-15.0,24.0,32.0,22.0,29.0,24.0,26.0,10.0,1.0,0.0
-10.0,6.0,20.0,16.0,32.0,42.0,28.0,26.0,14.0,8.0,0.0
-1.0,0.0,6.0,-6.0,15.0,45.0,24.0,31.0,5.0,13.0,0.0
-11.0,-2.0,9.0,-4.0,8.0,46.0,39.0,31.0,12.0,1.0,0.0
3.0,4.0,17.0,2.0,2.0,32.0,40.0,24.0,13.0,-12.0,0.0
12.0,9.0,6.0,-2.0,-8.0,16.0,22.0,13.0,10.0,-16.0,0.0
18.0,12.0,5.0,-9.0,-5.0,4.0,32.0,22.0,2.0,-21.0,0.0
12.0,12.0,5.0,-11.0,-3.0,13.0,33.0,38.0,13.0,-11.0,0.0
17.0,26.0,7.0,-3.0,-11.0,9.0,25.0,39.0,5.0,1.0,0.0
26.0,22.0,5.0,-10.0,-18.0,0.0,0.0,23.0,6.0,0.0,0.0
30.0,24.0,-37.0,-35.0,-23.0,-1.0,-10.0,9.0,0.0,7.0,0.0
39.0,28.0,-59.0,-48.0,-20.0,-6.0,-1.0,-1.0,2.0,12.0,0.0
32.0,24.0,-15.0,-21.0,-8.0,1.0,-2.0,2.0,18.0,11.0,0.0
16.0,17.0,33.0,12.0,-3.0,4.0,-7.0,5.0,0.0,-8.0,0.0
13.0,10.0,40.0,19.0,-8.0,-8.0,-27.0,-2.0,-25.0,-23.0,0.0
9.0,6.0,43.0,25.0,-11.0,-6.0,-25.0,-12.0,-32.0,-16.0,0.0
-6.0,0.0,29.0,22.0,-3.0,-4.0,-7.0,-12.0,-26.0,-18.0,0.0
-13.0,5.0,10.0,12.0,6.0,-12.0,-5.0,-3.0,-10.0,-22.0,0.0
-11.0,11.0,-4.0,9.0,11.0,-12.0,-8.0,8.0,-21.0,-11.0,0.0
8.0,16.0,11.0,0.0,0.0,-15.0,0.0,5.0,-15.0,-4.0,0.0
32.0,26.0,9.0,0.0,-13.0,-17.0,-1.0,1.0,2.0,12.0,0.0
33.0,24.0,-8.0,-5.0,-6.0,-12.0,0.0,-3.0,1.0,24.0,0.0
23.0,10.0,-20.0,-1.0,-1.0,2.0,5.0,6.0,13.0,30.0,0.0
31.0,12.0,-25.0,-8.0,2.0,5.0,7.0,14.0,22.0,25.0,0.0
39.0,24.0,-23.0,-23.0,11.0,4.0,8.0,20.0,4.0,23.0,0.0
40.0,38.0,-5.0,-26.0,24.0,2.0,10.0,10.0,-17.0,15.0,0.0
42.0,47.0,4.0,-21.0,24.0,9.0,12.0,10.0,-27.0,1.0,0.0
34.0,36.0,0.0,-2.0,27.0,10.0,8.0,8.0,-23.0,-7.0,0.0
20.0,23.0,-6.0,12.0,28.0,11.0,0.0,2.0,-21.0,-28.0,0.0
-4.0,-4.0,-17.0,32.0,24.0,7.0,-14.0,4.0,-34.0,-35.0,0.0
-19.0,-14.0,-30.0,45.0,13.0,4.0,-23.0,-14.0,-65.0,-42.0,0.0
-25.0,-24.0,-35.0,24.0,19.0,6.0,-24.0,-24.0,-65.0,-28.0,0.0
-37.0,-31.0,-35.0,23.0,32.0,24.0,-21.0,-15.0,-24.0,-22.0,0.0
-42.0,-30.0,-31.0,40.0,26.0,23.0,-22.0,-9.0,19.0,-30.0,0.0
33.0,14.0,-26.0,-24.0,18.0,-1.0,-2.0,18.0,6.0,4.0,0.0
69.0,31.0,-20.0,-29.0,1.0,-19.0,6.0,16.0,21.0,41.0,0.0
69.0,38.0,0.0,-37.0,-10.0,-22.0,5.0,-1.0,1.0,39.0,0.0
42.0,20.0,26.0,-19.0,-13.0,-18.0,16.0,-33.0,-17.0,16.0,0.0
31.0,5.0,37.0,-6.0,-10.0,-9.0,18.0,-24.0,-18.0,24.0,0.0
15.0,-7.0,23.0,21.0,10.0,0.0,15.0,-11.0,-12.0,28.0,0.0
4.0,-3.0,3.0,41.0,19.0,1.0,6.0,-10.0,-13.0,31.0,0.0
0.0,0.0,6.0,27.0,6.0,6.0,-2.0,-20.0,-26.0,26.0,0.0
-4.0,-9.0,23.0,7.0,5.0,10.0,4.0,-20.0,-27.0,0.0,0.0
-17.0,-11.0,16.0,-8.0,-2.0,20.0,-4.0,-22.0,-16.0,-22.0,0.0
-30.0,-16.0,2.0,-30.0,-10.0,17.0,-16.0,-28.0,21.0,-25.0,0.0
-23.0,-3.0,4.0,-47.0,-16.0,22.0,-16.0,-21.0,44.0,-27.0,0.0
-12.0,12.0,8.0,-52.0,-9.0,20.0,-17.0,-17.0,46.0,-20.0,0.0
-2.0,19.0,4.0,-57.0,-12.0,16.0,-11.0,-12.0,47.0,-4.0,0.0
14.0,20.0,5.0,-49.0,-16.0,19.0,-13.0,-6.0,41.0,36.0,0.0
23.0,15.0,0.0,-16.0,-16.0,6.0,-8.0,-7.0,35.0,61.0,0.0
28.0,31.0,0.0,7.0,-6.0,0.0,-9.0,-13.0,14.0,61.0,0.0
34.0,37.0,5.0,8.0,-7.0,-5.0,-14.0,-9.0,-11.0,49.0,0.0
32.0,22.0,-4.0,-6.0,-21.0,-13.0,-14.0,-7.0,-25.0,42.0,0.0
22.0,24.0,-12.0,-21.0,-34.0,-15.0,-17.0,10.0,0.0,56.0,0.0
20.0,36.0,-19.0,0.0,-31.0,-15.0,-15.0,22.0,10.0,57.0,0.0
21.0,29.0,-22.0,25.0,-22.0,-21.0,-10.0,8.0,-1.0,44.0,0.0
10.0,15.0,-32.0,13.0,-9.0,-28.0,-22.0,-7.0,-5.0,29.0,0.0
0.0,3.0,-28.0,6.0,-1.0,-35.0,-22.0,-20.0,-16.0,15.0,0.0
-24.0,-4.0,-6.0,26.0,-3.0,-41.0,-18.0,-31.0,-32.0,-4.0,0.0
-23.0,0.0,12.0,28.0,-16.0,-36.0,-18.0,-34.0,-12.0,-11.0,0.0
-22.0,1.0,21.0,19.0,-14.0,-30.0,-24.0,-27.0,29.0,-9.0,0.0
-22.0,3.0,9.0,22.0,-7.0,-23.0,-18.0,-24.0,50.0,-18.0,0.0
0.0,15.0,8.0,31.0,1.0,-17.0,-16.0,-16.0,30.0,-8.0,0.0
58.0,46.0,13.0,22.0,-10.0,-17.0,-24.0,-11.0,36.0,49.0,0.0
74.0,42.0,4.0,8.0,-24.0,-24.0,-21.0,-15.0,39.0,75.0,0.0
51.0,28.0,1.0,5.0,-11.0,-15.0,-3.0,-18.0,15.0,52.0,0.0
46.0,32.0,0.0,14.0,6.0,-9.0,-3.0,-21.0,-20.0,29.0,0.0
30.0,27.0,9.0,47.0,7.0,0.0,0.0,-4.0,-32.0,29.0,0.0
-6.0,-2.0,6.0,77.0,3.0,0.0,3.0,3.0,-18.0,20.0,0.0
-38.0,-21.0,17.0,58.0,0.0,-5.0,7.0,-2.0,-22.0,11.0,0.0
-43.0,-21.0,26.0,35.0,-1.0,0.0,1.0,0.0,-23.0,-3.0,0.0
-37.0,-21.0,21.0,18.0,-6.0,3.0,-14.0,2.0,-17.0,-3.0,0.0
-34.0,-35.0,22.0,11.0,-10.0,3.0,-32.0,-3.0,-23.0,-23.0,0.0
-22.0,-24.0,37.0,8.0,-4.0,-3.0,-36.0,-8.0,-37.0,-38.0,0.0
14.0,7.0,43.0,7.0,-3.0,-4.0,-29.0,-16.0,-26.0,-16.0,0.0
49.0,38.0,36.0,1.0,8.0,-7.0,-24.0,-30.0,-17.0,-7.0,0.0
56.0,53.0,41.0,3.0,0.0,13.0,-28.0,-18.0,-19.0,-15.0,0.0
45.0,66.0,4.0,-3.0,-15.0,18.0,-29.0,8.0,-10.0,-4.0,0.0
26.0,53.0,-48.0,-6.0,-3.0,36.0,-10.0,7.0,5.0,7.0,0.0
-24.0,15.0,-32.0,-1.0,7.0,27.0,-1.0,-17.0,0.0,-8.0,0.0
-44.0,-18.0,-24.0,-24.0,0.0,-2.0,-12.0,-15.0,5.0,-2.0,0.0
-57.0,-52.0,-42.0,-42.0,-21.0,-5.0,-3.0,10.0,29.0,28.0,0.0
-83.0,-89.0,-45.0,-60.0,-31.0,-5.0,19.0,33.0,36.0,22.0,0.0
-75.0,-82.0,-27.0,-59.0,-33.0,-5.0,23.0,23.0,34.0,8.0,0.0
-62.0,-55.0,-13.0,-45.0,-15.0,-16.0,7.0,4.0,20.0,16.0,0.0
-54.0,-43.0,-12.0,-43.0,0.0,-14.0,-9.0,-4.0,-5.0,12.0,0.0
-48.0,-42.0,-22.0,-40.0,7.0,-1.0,-16.0,0.0,-13.0,-13.0,0.0
-29.0,-30.0,-3.0,-26.0,12.0,6.0,-10.0,-4.0,-16.0,-23.0,0.0
-16.0,-9.0,16.0,-17.0,26.0,13.0,8.0,-7.0,-33.0,-15.0,0.0
-11.0,-3.0,16.0,-19.0,21.0,8.0,17.0,-6.0,-24.0,-16.0,0.0
-15.0,-6.0,10.0,-21.0,9.0,-6.0,24.0,-12.0,-22.0,-17.0,0.0
-28.0,-9.0,9.0,-12.0,7.0,0.0,26.0,-10.0,-21.0,-25.0,0.0
-46.0,-6.0,21.0,-3.0,21.0,7.0,15.0,-3.0,-20.0,-32.0,0.0
-48.0,-7.0,20.0,-1.0,12.0,5.0,9.0,-4.0,-20.0,-12.0,0.0
-35.0,-7.0,1.0,-10.0,1.0,2.0,7.0,-7.0,-24.0,8.0,0.0
-18.0,-4.0,-30.0,-11.0,3.0,1.0,11.0,-11.0,-23.0,16.0,0.0
-23.0,-5.0,-48.0,-11.0,5.0,-5.0,8.0,-22.0,-34.0,18.0,0.0
-26.0,-7.0,-32.0,3.0,8.0,10.0,16.0,-23.0,-37.0,14.0,0.0
-32.0,-8.0,-16.0,29.0,4.0,1.0,24.0,-17.0,-35.0,2.0,0.0
-34.0,0.0,-2.0,45.0,10.0,-5.0,32.0,-15.0,-36.0,7.0,0.0
-21.0,9.0,-16.0,29.0,13.0,3.0,31.0,-8.0,-36.0,11.0,0.0
0.0,1.0,-23.0,9.0,14.0,-2.0,19.0,-6.0,-32.0,25.0,0.0
3.0,0.0,2.0,-4.0,6.0,-8.0,15.0,-15.0,-28.0,39.0,0.0
0.0,1.0,21.0,1.0,-4.0,-27.0,12.0,-10.0,-27.0,30.0,0.0
-24.0,-15.0,16.0,-9.0,-22.0,-40.0,3.0,-14.0,-48.0,2.0,0.0
-31.0,-37.0,-8.0,-19.0,-24.0,-45.0,-9.0,-14.0,-36.0,-2.0,0.0
-35.0,-20.0,-27.0,1.0,-8.0,-32.0,-4.0,-23.0,6.0,1.0,0.0
-39.0,2.0,-16.0,9.0,-1.0,-15.0,1.0,-23.0,70.0,-7.0,0.0
-28.0,8.0,-6.0,0.0,3.0,-8.0,1.0,-12.0,115.0,-7.0,0.0
-34.0,18.0,0.0,0.0,3.0,-5.0,9.0,-2.0,112.0,-10.0,0.0
-39.0,2.0,2.0,-2.0,3.0,0.0,4.0,-1.0,72.0,-18.0,0.0
-46.0,-21.0,-11.0,3.0,10.0,3.0,-9.0,0.0,32.0,-23.0,0.0
-39.0,-16.0,-16.0,6.0,7.0,11.0,-11.0,-6.0,8.0,-16.0,0.0
-27.0,-15.0,-5.0,4.0,10.0,12.0,-1.0,-12.0,-30.0,-6.0,0.0
-6.0,-2.0,8.0,21.0,24.0,16.0,6.0,-9.0,-62.0,-11.0,0.0
20.0,20.0,8.0,41.0,28.0,6.0,12.0,-6.0,-70.0,-6.0,0.0
45.0,35.0,4.0,42.0,10.0,-8.0,14.0,-4.0,-39.0,9.0,0.0
57.0,34.0,22.0,41.0,-5.0,-27.0,8.0,7.0,-35.0,6.0,0.0
63.0,26.0,36.0,23.0,-7.0,-38.0,0.0,19.0,-53.0,-1.0,0.0
68.0,31.0,29.0,-3.0,-17.0,-37.0,-6.0,6.0,-59.0,-7.0,0.0
63.0,19.0,19.0,-15.0,-13.0,-42.0,-3.0,0.0,-50.0,-16.0,0.0
14.0,-11.0,-3.0,-6.0,-4.0,-30.0,-1.0,1.0,-31.0,-16.0,0.0
-13.0,-37.0,-28.0,-17.0,-10.0,-29.0,-2.0,6.0,-16.0,8.0,0.0
-14.0,-37.0,-34.0,-37.0,-15.0,-31.0,5.0,6.0,-5.0,18.0,0.0
-32.0,-42.0,-37.0,-51.0,-12.0,-15.0,16.0,-3.0,-6.0,9.0,0.0
-65.0,-47.0,-36.0,-54.0,-7.0,-3.0,18.0,0.0,-4.0,-8.0,0.0
-68.0,-31.0,-34.0,-42.0,-3.0,-8.0,6.0,-12.0,-3.0,-28.0,0.0
-50.0,-11.0,-17.0,-35.0,0.0,-16.0,-15.0,-18.0,5.0,-27.0,0.0
-32.0,1.0,-3.0,-28.0,0.0,-16.0,-28.0,-19.0,28.0,-22.0,0.0
-21.0,12.0,5.0,-31.0,1.0,-3.0,-33.0,-21.0,45.0,-23.0,0.0
-26.0,5.0,-1.0,-40.0,13.0,5.0,-23.0,-10.0,47.0,-60.0,0.0
-9.0,-5.0,-9.0,-28.0,19.0,14.0,-2.0,9.0,23.0,-64.0,0.0
2.0,-12.0,-11.0,-10.0,17.0,8.0,7.0,20.0,16.0,-31.0,0.0
6.0,-6.0,9.0,2.0,28.0,19.0,8.0,19.0,24.0,-9.0,0.0
14.0,15.0,31.0,14.0,45.0,32.0,17.0,14.0,-2.0,-10.0,0.0
47.0,44.0,47.0,7.0,36.0,24.0,12.0,8.0,-20.0,28.0,0.0
54.0,46.0,34.0,3.0,19.0,13.0,13.0,12.0,-20.0,40.0,0.0
33.0,29.0,25.0,9.0,29.0,20.0,9.0,23.0,-21.0,1.0,0.0
23.0,26.0,31.0,-2.0,35.0,29.0,11.0,23.0,0.0,-19.0,0.0
13.0,15.0,17.0,-18.0,10.0,27.0,17.0,33.0,16.0,-7.0,0.0
-5.0,2.0,-1.0,-13.0,4.0,19.0,9.0,36.0,15.0,-8.0,0.0
-12.0,0.0,10.0,0.0,16.0,13.0,4.0,13.0,21.0,-10.0,0.0
-6.0,-1.0,5.0,-7.0,13.0,12.0,-4.0,11.0,24.0,43.0,0.0
-2.0,-15.0,4.0,0.0,12.0,15.0,1.0,13.0,15.0,61.0,0.0
-8.0,-15.0,3.0,10.0,14.0,18.0,0.0,8.0,9.0,32.0,0.0
-19.0,-7.0,-3.0,13.0,10.0,-2.0,-2.0,5.0,17.0,15.0,0.0
0.0,-3.0,6.0,25.0,2.0,-16.0,-10.0,0.0,23.0,25.0,0.0
9.0,-8.0,5.0,14.0,4.0,-3.0,-10.0,-3.0,11.0,13.0,0.0
5.0,-5.0,15.0,12.0,14.0,8.0,0.0,7.0,-4.0,-14.0,0.0
-1.0,-8.0,9.0,23.0,20.0,28.0,11.0,23.0,-17.0,-32.0,0.0
5.0,-15.0,-6.0,60.0,23.0,40.0,10.0,30.0,-31.0,-48.0,0.0
20.0,-4.0,-10.0,78.0,18.0,21.0,2.0,20.0,-22.0,-26.0,0.0
44.0,11.0,-7.0,45.0,4.0,3.0,-2.0,1.0,-11.0,4.0,0.0
44.0,12.0,-13.0,9.0,-8.0,5.0,-1.0,-11.0,-11.0,-1.0,0.0
35.0,8.0,-14.0,-17.0,-17.0,2.0,-3.0,-4.0,2.0,4.0,0.0
40.0,-2.0,-3.0,-20.0,-16.0,0.0,-5.0,-4.0,19.0,14.0,0.0
43.0,5.0,19.0,-12.0,-15.0,-1.0,-17.0,4.0,30.0,7.0,0.0
29.0,0.0,41.0,-4.0,-10.0,1.0,-14.0,4.0,24.0,-1.0,0.0
19.0,-5.0,52.0,-13.0,5.0,24.0,-2.0,18.0,7.0,-7.0,0.0
31.0,0.0,42.0,-24.0,7.0,29.0,-11.0,33.0,10.0,6.0,0.0
45.0,16.0,18.0,-37.0,-6.0,13.0,-16.0,27.0,19.0,29.0,0.0
40.0,16.0,6.0,-38.0,-15.0,1.0,-21.0,25.0,22.0,29.0,0.0
38.0,12.0,5.0,-23.0,-16.0,-4.0,-21.0,6.0,15.0,18.0,0.0
26.0,11.0,9.0,-16.0,-1.0,1.0,-24.0,-4.0,3.0,11.0,0.0
12.0,15.0,11.0,-12.0,4.0,12.0,-53.0,-4.0,-3.0,0.0,0.0
4.0,22.0,15.0,-13.0,5.0,22.0,-51.0,4.0,-4.0,-19.0,0.0
9.0,34.0,4.0,-24.0,-2.0,15.0,-23.0,7.0,15.0,-18.0,0.0
21.0,40.0,-3.0,-28.0,-11.0,18.0,2.0,14.0,22.0,-4.0,0.0
17.0,30.0,6.0,-29.0,-6.0,22.0,13.0,29.0,43.0,3.0,0.0
3.0,10.0,17.0,-25.0,-12.0,-1.0,9.0,39.0,62.0,28.0,0.0
-8.0,-9.0,5.0,-16.0,-24.0,12.0,22.0,44.0,78.0,55.0,0.0
-30.0,-41.0,-10.0,-18.0,-17.0,9.0,18.0,38.0,46.0,34.0,0.0
-41.0,-48.0,-16.0,-2.0,0.0,1.0,11.0,32.0,4.0,1.0,0.0
-39.0,-33.0,-30.0,2.0,3.0,1.0,-4.0,20.0,-11.0,-16.0,0.0
-44.0,-30.0,-16.0,8.0,-1.0,1.0,-19.0,9.0,-15.0,-21.0,0.0
-37.0,-29.0,-12.0,-3.0,-7.0,0.0,-25.0,-1.0,-11.0,-22.0,0.0
-32.0,-20.0,-28.0,-19.0,-18.0,-4.0,-12.0,-5.0,9.0,-19.0,0.0
-41.0,-13.0,-37.0,-6.0,-21.0,3.0,-1.0,-17.0,24.0,-30.0,0.0
-38.0,-9.0,-24.0,9.0,-19.0,3.0,-7.0,-20.0,49.0,-28.0,0.0
-19.0,4.0,-15.0,6.0,-19.0,5.0,-29.0,-16.0,61.0,-22.0,0.0
-4.0,7.0,-17.0,4.0,-18.0,1.0,-31.0,-6.0,48.0,-12.0,0.0
-8.0,11.0,-22.0,-5.0,-7.0,17.0,-14.0,8.0,31.0,-14.0,0.0
-10.0,8.0,-23.0,-9.0,0.0,30.0,0.0,3.0,20.0,-22.0,0.0
0.0,14.0,-14.0,6.0,5.0,25.0,13.0,13.0,4.0,0.0,0.0
9.0,16.0,-6.0,8.0,1.0,22.0,19.0,14.0,-21.0,10.0,0.0
16.0,14.0,-7.0,17.0,3.0,12.0,26.0,22.0,-37.0,0.0,0.0
21.0,13.0,-3.0,21.0,4.0,5.0,20.0,15.0,-37.0,5.0,0.0
11.0,15.0,7.0,11.0,-5.0,-10.0,8.0,5.0,-36.0,5.0,0.0
-6.0,9.0,17.0,0.0,0.0,-2.0,-2.0,14.0,-52.0,-13.0,0.0
-20.0,0.0,-13.0,-11.0,-7.0,-6.0,-6.0,-4.0,-80.0,-23.0,0.0
-22.0,-11.0,-28.0,-23.0,-27.0,-29.0,-30.0,-32.0,-78.0,-22.0,0.0
-27.0,-30.0,-22.0,-30.0,-45.0,-45.0,-37.0,-40.0,-54.0,-31.0,0.0
-29.0,-23.0,-28.0,-20.0,-49.0,-48.0,-24.0,-33.0,-19.0,-45.0,0.0
-32.0,-25.0,-47.0,-20.0,-35.0,-35.0,-14.0,-28.0,48.0,-38.0,0.0
-39.0,-19.0,-63.0,-15.0,-25.0,-22.0,-18.0,-24.0,104.0,-26.0,0.0
-37.0,-16.0,-19.0,10.0,-25.0,-16.0,-23.0,-20.0,107.0,-28.0,0.0
-12.0,2.0,21.0,21.0,-19.0,-16.0,-12.0,-16.0,80.0,-4.0,0.0
16.0,22.0,4.0,8.0,-9.0,-16.0,5.0,-18.0,56.0,39.0,0.0
19.0,21.0,-30.0,-11.0,-8.0,-1.0,25.0,-1.0,33.0,42.0,0.0
33.0,10.0,-89.0,-22.0,8.0,25.0,46.0,13.0,-8.0,30.0,0.0
42.0,18.0,-40.0,6.0,24.0,36.0,49.0,5.0,-53.0,13.0,0.0
35.0,34.0,34.0,35.0,29.0,29.0,29.0,-8.0,-71.0,-8.0,0.0
40.0,40.0,52.0,40.0,28.0,19.0,22.0,-14.0,-60.0,-5.0,0.0
31.0,35.0,44.0,17.0,21.0,10.0,31.0,-25.0,-53.0,-16.0,0.0
29.0,40.0,34.0,-8.0,5.0,6.0,21.0,-29.0,-41.0,-24.0,0.0
28.0,36.0,8.0,-21.0,3.0,1.0,9.0,-8.0,-36.0,-46.0,0.0
23.0,29.0,5.0,-8.0,17.0,4.0,9.0,-7.0,-49.0,-75.0,0.0
3.0,21.0,17.0,-2.0,10.0,1.0,3.0,-21.0,-47.0,-64.0,0.0
5.0,19.0,20.0,-1.0,0.0,-1.0,-2.0,-23.0,-42.0,-55.0,0.0
23.0,18.0,13.0,-1.0,1.0,-3.0,0.0,-15.0,-23.0,-41.0,0.0
28.0,11.0,6.0,1.0,5.0,-9.0,-3.0,-24.0,-11.0,-11.0,0.0
3.0,8.0,-1.0,16.0,-5.0,-13.0,1.0,-22.0,-15.0,-8.0,0.0
-41.0,-13.0,9.0,48.0,2.0,-4.0,26.0,-24.0,-14.0,-35.0,0.0
-44.0,-26.0,16.0,54.0,4.0,-16.0,18.0,-18.0,4.0,-53.0,0.0
-47.0,-22.0,25.0,58.0,11.0,-15.0,13.0,-11.0,15.0,-43.0,0.0
-38.0,-32.0,16.0,45.0,25.0,-7.0,11.0,-4.0,13.0,-19.0,0.0
-24.0,-25.0,-17.0,35.0,21.0,-2.0,11.0,-5.0,17.0,12.0,0.0
-6.0,-4.0,-23.0,20.0,14.0,0.0,25.0,-10.0,12.0,36.0,0.0
7.0,8.0,-6.0,21.0,20.0,-14.0,12.0,-15.0,11.0,43.0,0.0
5.0,-3.0,11.0,30.0,24.0,-35.0,8.0,-13.0,-3.0,15.0,0.0
-14.0,-11.0,10.0,23.0,15.0,-27.0,17.0,0.0,-10.0,-4.0,0.0
-37.0,-8.0,11.0,4.0,5.0,-25.0,33.0,13.0,-4.0,-3.0,0.0
-13.0,-7.0,-4.0,-16.0,-10.0,-15.0,43.0,36.0,27.0,3.0,0.0
42.0,13.0,-10.0,-47.0,-31.0,-11.0,37.0,42.0,52.0,42.0,0.0
90.0,40.0,-7.0,-52.0,-44.0,-20.0,11.0,31.0,37.0,75.0,0.0
106.0,60.0,-4.0,-47.0,-42.0,-33.0,-5.0,9.0,23.0,94.0,0.0
86.0,54.0,-18.0,-54.0,-45.0,-44.0,-11.0,-2.0,1.0,82.0,0.0
44.0,26.0,-17.0,-51.0,-46.0,-32.0,-11.0,-13.0,-11.0,55.0,0.0
-10.0,-20.0,-27.0,-38.0,-43.0,-13.0,-10.0,-23.0,-4.0,37.0,0.0
-69.0,-54.0,-19.0,-20.0,-26.0,-3.0,12.0,-8.0,4.0,22.0,0.0
-104.0,-65.0,-23.0,-6.0,-17.0,8.0,27.0,6.0,18.0,0.0,0.0
-107.0,-59.0,-40.0,0.0,-12.0,5.0,24.0,18.0,21.0,-12.0,0.0
-93.0,-53.0,-48.0,11.0,-5.0,5.0,25.0,24.0,39.0,1.0,0.0
-66.0,-40.0,-26.0,12.0,-4.0,7.0,15.0,18.0,58.0,25.0,0.0
-23.0,-23.0,-10.0,8.0,-9.0,1.0,8.0,14.0,57.0,51.0,0.0
-7.0,-4.0,-13.0,-1.0,-12.0,0.0,4.0,20.0,35.0,57.0,0.0
-4.0,6.0,-13.0,-7.0,-11.0,-5.0,3.0,28.0,33.0,38.0,0.0
0.0,24.0,-9.0,-4.0,-16.0,-12.0,4.0,17.0,18.0,30.0,0.0
16.0,43.0,-5.0,26.0,-4.0,-15.0,6.0,19.0,-6.0,29.0,0.0
23.0,42.0,8.0,67.0,0.0,-19.0,11.0,25.0,-11.0,38.0,0.0
29.0,47.0,15.0,106.0,11.0,-15.0,0.0,6.0,-8.0,63.0,0.0
14.0,42.0,23.0,107.0,26.0,0.0,-4.0,5.0,-12.0,61.0,0.0
-14.0,23.0,3.0,66.0,24.0,6.0,3.0,10.0,-25.0,14.0,0.0
-44.0,1.0,6.0,48.0,33.0,12.0,-8.0,-3.0,-48.0,-37.0,0.0
-60.0,-13.0,35.0,49.0,40.0,21.0,-15.0,-30.0,-55.0,-44.0,0.0
-56.0,-35.0,26.0,51.0,32.0,18.0,-1.0,-29.0,-49.0,-33.0,0.0
-42.0,-38.0,7.0,50.0,33.0,12.0,11.0,-4.0,-43.0,-26.0,0.0
-42.0,-21.0,21.0,33.0,27.0,24.0,2.0,0.0,-37.0,-21.0,0.0
-52.0,-22.0,28.0,3.0,9.0,31.0,9.0,-3.0,-16.0,-33.0,0.0
-50.0,-12.0,39.0,-20.0,-4.0,21.0,10.0,-2.0,24.0,-33.0,0.0
-43.0,-12.0,41.0,-19.0,-5.0,14.0,34.0,4.0,58.0,-34.0,0.0
-20.0,-10.0,4.0,-18.0,1.0,25.0,36.0,4.0,77.0,-19.0,0.0
22.0,10.0,-42.0,-39.0,-10.0,25.0,17.0,0.0,95.0,22.0,0.0
34.0,11.0,-28.0,-45.0,-15.0,10.0,3.0,-4.0,82.0,30.0,0.0
30.0,1.0,9.0,-34.0,0.0,8.0,0.0,-6.0,48.0,16.0,0.0
37.0,15.0,4.0,-20.0,16.0,12.0,9.0,0.0,11.0,16.0,0.0
28.0,20.0,0.0,-8.0,21.0,21.0,20.0,-1.0,-10.0,15.0,0.0
0.0,1.0,-4.0,7.0,14.0,14.0,21.0,-11.0,-23.0,1.0,0.0
-5.0,-14.0,-2.0,13.0,2.0,15.0,11.0,-6.0,-25.0,-6.0,0.0
6.0,-6.0,7.0,25.0,8.0,13.0,0.0,-2.0,-12.0,-6.0,0.0
4.0,0.0,20.0,30.0,19.0,9.0,4.0,-7.0,-5.0,0.0,0.0
5.0,0.0,20.0,8.0,14.0,6.0,0.0,-9.0,5.0,13.0,0.0
19.0,-5.0,10.0,0.0,4.0,13.0,-7.0,-13.0,12.0,13.0,0.0
23.0,-8.0,10.0,-5.0,-5.0,4.0,-13.0,-15.0,5.0,12.0,0.0
9.0,-12.0,18.0,-21.0,-18.0,-8.0,-18.0,-28.0,-4.0,15.0,0.0
2.0,-17.0,17.0,-38.0,-21.0,-12.0,-15.0,-42.0,-20.0,7.0,0.0
0.0,-18.0,33.0,-25.0,-7.0,-8.0,-8.0,-46.0,-13.0,-2.0,0.0
6.0,2.0,33.0,-2.0,-7.0,0.0,0.0,-34.0,11.0,0.0,0.0
30.0,7.0,23.0,13.0,-16.0,-6.0,-7.0,-13.0,50.0,17.0,0.0
26.0,-1.0,10.0,4.0,-25.0,-15.0,-21.0,0.0,69.0,33.0,0.0
18.0,-14.0,0.0,-11.0,-9.0,-14.0,-10.0,6.0,66.0,42.0,0.0
13.0,-23.0,-8.0,-13.0,0.0,-13.0,8.0,17.0,50.0,41.0,0.0
14.0,-26.0,-20.0,4.0,21.0,-7.0,11.0,30.0,39.0,29.0,0.0
4.0,-24.0,-51.0,13.0,31.0,4.0,8.0,36.0,10.0,30.0,0.0
0.0,-3.0,-38.0,15.0,33.0,16.0,12.0,13.0,-33.0,19.0,0.0
-7.0,4.0,-21.0,26.0,34.0,17.0,13.0,-2.0,-45.0,-2.0,0.0
-12.0,5.0,1.0,29.0,46.0,26.0,-6.0,-5.0,-53.0,-25.0,0.0
-12.0,13.0,17.0,18.0,48.0,36.0,-17.0,-2.0,-51.0,-27.0,0.0
-2.0,17.0,35.0,21.0,44.0,38.0,-16.0,-12.0,-45.0,-11.0,0.0
-2.0,15.0,35.0,27.0,41.0,31.0,-3.0,-13.0,-30.0,-5.0,0.0
2.0,10.0,22.0,4.0,46.0,25.0,1.0,1.0,-12.0,-2.0,0.0
3.0,0.0,2.0,-17.0,39.0,23.0,4.0,11.0,-6.0,1.0,0.0
-8.0,3.0,-8.0,-27.0,33.0,19.0,12.0,20.0,-5.0,4.0,0.0
-23.0,-2.0,-12.0,-31.0,32.0,17.0,7.0,10.0,-17.0,-17.0,0.0
-26.0,-1.0,-20.0,-32.0,20.0,11.0,4.0,-8.0,-31.0,-20.0,0.0
-24.0,-4.0,-32.0,-35.0,2.0,0.0,-2.0,-10.0,-29.0,-5.0,0.0
-10.0,-9.0,-33.0,-42.0,-14.0,-12.0,-15.0,-15.0,-25.0,-18.0,0.0
8.0,-4.0,-30.0,-40.0,-20.0,-8.0,-13.0,-4.0,11.0,-5.0,0.0
4.0,3.0,-31.0,-27.0,-20.0,9.0,-10.0,0.0,63.0,11.0,0.0
0.0,0.0,-33.0,-21.0,-26.0,-10.0,-21.0,-9.0,79.0,25.0,0.0
17.0,-2.0,-25.0,-7.0,-28.0,-8.0,-17.0,-3.0,96.0,12.0,0.0
0.0,-2.0,-12.0,0.0,-19.0,7.0,-1.0,8.0,76.0,-23.0,0.0
-24.0,0.0,20.0,5.0,-24.0,11.0,4.0,8.0,28.0,-56.0,0.0
-24.0,0.0,41.0,10.0,-30.0,21.0,-3.0,0.0,0.0,-51.0,0.0
-3.0,5.0,46.0,17.0,-11.0,29.0,-8.0,-11.0,-10.0,-25.0,0.0
-18.0,-8.0,50.0,21.0,9.0,32.0,1.0,-23.0,-47.0,-51.0,0.0
-25.0,-7.0,30.0,30.0,14.0,28.0,15.0,-36.0,-69.0,-66.0,0.0
3.0,7.0,-9.0,25.0,18.0,28.0,24.0,-30.0,-50.0,-47.0,0.0
31.0,21.0,-57.0,3.0,7.0,25.0,38.0,-7.0,-17.0,-22.0,0.0
36.0,16.0,-26.0,-10.0,0.0,14.0,40.0,7.0,-9.0,-4.0,0.0
16.0,3.0,-9.0,-9.0,-5.0,10.0,26.0,2.0,-16.0,24.0,0.0
-1.0,-11.0,-6.0,-3.0,-2.0,9.0,25.0,5.0,-21.0,21.0,0.0
2.0,-15.0,-10.0,-13.0,5.0,5.0,37.0,15.0,-19.0,3.0,0.0
1.0,-24.0,-22.0,-10.0,12.0,5.0,29.0,13.0,-26.0,-16.0,0.0
28.0,-18.0,-28.0,-9.0,14.0,-6.0,18.0,2.0,-15.0,5.0,0.0
53.0,-2.0,-25.0,-13.0,8.0,-10.0,0.0,-10.0,11.0,56.0,0.0
37.0,7.0,-13.0,-12.0,6.0,-2.0,-4.0,-5.0,20.0,71.0,0.0
16.0,5.0,-5.0,2.0,4.0,-2.0,-4.0,-1.0,14.0,45.0,0.0
8.0,4.0,7.0,11.0,-8.0,-3.0,-18.0,-11.0,-1.0,24.0,0.0
-7.0,5.0,13.0,6.0,-17.0,-1.0,-24.0,-13.0,-13.0,11.0,0.0
-7.0,8.0,27.0,13.0,-8.0,-2.0,-20.0,-26.0,-10.0,-3.0,0.0
-10.0,-4.0,16.0,27.0,0.0,11.0,-12.0,-21.0,-12.0,-13.0,0.0
-28.0,-13.0,7.0,34.0,13.0,14.0,-1.0,-13.0,-27.0,-18.0,0.0
-31.0,-18.0,2.0,26.0,11.0,21.0,13.0,-14.0,-34.0,-13.0,0.0
-37.0,-33.0,-17.0,3.0,10.0,17.0,11.0,-22.0,-31.0,-21.0,0.0
-36.0,-41.0,-17.0,2.0,11.0,16.0,12.0,-16.0,-32.0,-24.0,0.0
-15.0,-29.0,-6.0,5.0,10.0,3.0,7.0,-11.0,2.0,-19.0,0.0
12.0,-20.0,2.0,11.0,1.0,-21.0,1.0,4.0,47.0,0.0,0.0
36.0,-10.0,7.0,9.0,-3.0,-34.0,-4.0,17.0,75.0,12.0,0.0
48.0,0.0,9.0,-1.0,-3.0,-30.0,-1.0,31.0,80.0,16.0,0.0
37.0,-9.0,10.0,-2.0,16.0,-15.0,6.0,40.0,87.0,15.0,0.0
31.0,-1.0,9.0,-7.0,7.0,-12.0,-11.0,41.0,79.0,15.0,0.0
18.0,7.0,25.0,-3.0,-5.0,-20.0,-14.0,42.0,40.0,10.0,0.0
8.0,25.0,69.0,25.0,-8.0,-9.0,-11.0,51.0,8.0,3.0,0.0
6.0,30.0,58.0,61.0,-3.0,7.0,-10.0,43.0,-12.0,-3.0,0.0
-2.0,12.0,40.0,58.0,23.0,15.0,-11.0,30.0,-26.0,-14.0,0.0
-20.0,-6.0,32.0,31.0,22.0,16.0,-9.0,27.0,-35.0,-20.0,0.0
-20.0,-19.0,20.0,6.0,12.0,21.0,-16.0,10.0,-43.0,-21.0,0.0
3.0,-5.0,20.0,-4.0,8.0,10.0,-23.0,-1.0,-23.0,17.0,0.0
16.0,4.0,28.0,-9.0,3.0,-5.0,-21.0,0.0,-23.0,22.0,0.0
10.0,-5.0,9.0,-23.0,-7.0,-7.0,-17.0,5.0,-26.0,0.0,0.0
0.0,0.0,0.0,-33.0,-9.0,-5.0,-15.0,4.0,-25.0,-9.0,0.0
-4.0,0.0,2.0,-50.0,-17.0,-6.0,-2.0,-2.0,-19.0,6.0,0.0
-5.0,-8.0,-13.0,-51.0,-27.0,-6.0,-1.0,1.0,-14.0,14.0,0.0
-18.0,-36.0,-14.0,-53.0,-25.0,-9.0,-10.0,1.0,-19.0,-4.0,0.0
-14.0,-49.0,-31.0,-61.0,-26.0,-28.0,-23.0,3.0,-14.0,-5.0,0.0
-10.0,-47.0,-44.0,-57.0,-31.0,-36.0,-25.0,5.0,-2.0,-8.0,0.0
-10.0,-38.0,-32.0,-49.0,-32.0,-33.0,-31.0,0.0,-18.0,-16.0,0.0
-18.0,-32.0,-22.0,-43.0,-33.0,-32.0,-43.0,-8.0,-31.0,-22.0,0.0
-16.0,-32.0,-27.0,-35.0,-22.0,-26.0,-42.0,-12.0,-27.0,-22.0,0.0
-9.0,-20.0,-20.0,-33.0,-17.0,-29.0,-34.0,-8.0,5.0,-4.0,0.0
-26.0,-6.0,-10.0,-28.0,-19.0,-34.0,-29.0,5.0,39.0,-3.0,0.0
-35.0,-5.0,-17.0,-25.0,-24.0,-22.0,-23.0,29.0,46.0,-1.0,0.0
-28.0,1.0,-18.0,-26.0,-21.0,-17.0,-9.0,23.0,18.0,-6.0,0.0
-5.0,-6.0,5.0,-16.0,-22.0,-13.0,-19.0,11.0,-10.0,-17.0,0.0
2.0,-7.0,24.0,-1.0,-22.0,0.0,-22.0,2.0,-29.0,-32.0,0.0
27.0,16.0,40.0,0.0,-17.0,-9.0,-32.0,11.0,-44.0,-27.0,0.0
40.0,34.0,83.0,12.0,-14.0,-6.0,-26.0,19.0,-67.0,-29.0,0.0
37.0,35.0,123.0,43.0,-7.0,-10.0,-26.0,0.0,-76.0,-43.0,0.0
21.0,19.0,85.0,45.0,5.0,-3.0,-23.0,1.0,-73.0,-57.0,0.0
0.0,0.0,15.0,16.0,1.0,3.0,-7.0,10.0,-61.0,-55.0,0.0
-13.0,-29.0,-16.0,-1.0,2.0,-1.0,-5.0,7.0,-48.0,-49.0,0.0
-15.0,-50.0,-9.0,-8.0,-3.0,-8.0,-7.0,13.0,-44.0,-45.0,0.0
-16.0,-50.0,-16.0,-17.0,-8.0,-12.0,2.0,5.0,-26.0,-35.0,0.0
-23.0,-73.0,-57.0,-25.0,3.0,-5.0,10.0,9.0,-14.0,-19.0,0.0
-13.0,-56.0,-82.0,-25.0,1.0,11.0,17.0,16.0,2.0,-2.0,0.0
-2.0,-24.0,-48.0,-41.0,-5.0,4.0,24.0,13.0,22.0,32.0,0.0
-4.0,-22.0,-24.0,-52.0,-17.0,-1.0,30.0,24.0,31.0,33.0,0.0
-15.0,-33.0,-29.0,-46.0,-19.0,-8.0,24.0,16.0,19.0,14.0,0.0
-13.0,-34.0,-17.0,-18.0,-14.0,-2.0,19.0,4.0,11.0,2.0,0.0
-12.0,-35.0,5.0,4.0,-8.0,-6.0,14.0,5.0,-2.0,-7.0,0.0
-22.0,-34.0,4.0,8.0,-5.0,0.0,14.0,-4.0,-15.0,-39.0,0.0
-24.0,-26.0,6.0,13.0,7.0,5.0,17.0,-13.0,-20.0,-51.0,0.0
-9.0,-13.0,11.0,21.0,18.0,0.0,10.0,-16.0,-12.0,-37.0,0.0
0.0,-26.0,-2.0,24.0,12.0,-4.0,2.0,-22.0,-6.0,-28.0,0.0
7.0,-22.0,8.0,6.0,2.0,-2.0,7.0,-24.0,-4.0,-11.0,0.0
37.0,-4.0,14.0,-2.0,3.0,-14.0,4.0,-21.0,6.0,-2.0,0.0
52.0,16.0,17.0,-2.0,13.0,-9.0,10.0,-14.0,-3.0,-19.0,0.0
56.0,42.0,23.0,-10.0,8.0,-15.0,14.0,-8.0,-8.0,-30.0,0.0
55.0,50.0,20.0,-3.0,-5.0,-20.0,6.0,-2.0,-6.0,-26.0,0.0
62.0,52.0,12.0,34.0,-2.0,-27.0,0.0,-3.0,0.0,-4.0,0.0
64.0,38.0,-8.0,41.0,2.0,-23.0,-2.0,-4.0,6.0,18.0,0.0
32.0,-7.0,-31.0,33.0,-3.0,-9.0,2.0,-5.0,-2.0,12.0,0.0
-13.0,-35.0,-41.0,32.0,-4.0,-14.0,2.0,-14.0,-22.0,-20.0,0.0
-51.0,-46.0,-45.0,22.0,0.0,-11.0,0.0,-2.0,-29.0,-51.0,0.0
-57.0,-58.0,-54.0,11.0,1.0,3.0,8.0,9.0,-9.0,-58.0,0.0
-38.0,-35.0,-45.0,15.0,1.0,5.0,11.0,12.0,32.0,-33.0,0.0
-32.0,-21.0,-29.0,26.0,9.0,2.0,16.0,-11.0,53.0,-9.0,0.0
-36.0,-6.0,-6.0,32.0,14.0,12.0,9.0,-9.0,60.0,-7.0,0.0
-16.0,12.0,3.0,32.0,-2.0,2.0,-2.0,-12.0,63.0,-7.0,0.0
-7.0,23.0,10.0,17.0,-11.0,5.0,13.0,-7.0,47.0,-20.0,0.0
-13.0,14.0,0.0,-4.0,-13.0,-17.0,-4.0,-3.0,9.0,-26.0,0.0
-11.0,12.0,-7.0,-14.0,-12.0,-22.0,-7.0,-11.0,-29.0,3.0,0.0
7.0,23.0,8.0,-5.0,-2.0,-16.0,-22.0,-30.0,-50.0,51.0,0.0
29.0,27.0,5.0,-3.0,-9.0,-8.0,-34.0,-42.0,-61.0,76.0,0.0
21.0,5.0,6.0,-11.0,-18.0,-7.0,-37.0,-39.0,-30.0,51.0,0.0
10.0,-5.0,13.0,-21.0,-18.0,-10.0,-36.0,-27.0,44.0,39.0,0.0
18.0,1.0,13.0,-19.0,-9.0,-13.0,-33.0,-14.0,85.0,48.0,0.0
5.0,5.0,8.0,-4.0,5.0,2.0,-19.0,-5.0,80.0,31.0,0.0
-4.0,6.0,4.0,2.0,11.0,13.0,-6.0,-2.0,54.0,-1.0,0.0
-26.0,-12.0,-3.0,19.0,23.0,28.0,-3.0,-1.0,22.0,-18.0,0.0
-30.0,-8.0,4.0,37.0,32.0,39.0,-14.0,-12.0,-21.0,-31.0,0.0
8.0,7.0,15.0,55.0,33.0,29.0,-30.0,-37.0,-52.0,-11.0,0.0
27.0,21.0,35.0,67.0,31.0,24.0,-26.0,-42.0,-64.0,1.0,0.0
18.0,27.0,72.0,63.0,27.0,11.0,-23.0,-35.0,-61.0,-7.0,0.0
7.0,27.0,83.0,53.0,11.0,7.0,-19.0,-23.0,-45.0,-9.0,0.0
0.0,32.0,64.0,44.0,17.0,15.0,-9.0,-19.0,-38.0,-21.0,0.0
-6.0,27.0,81.0,52.0,23.0,22.0,-2.0,-19.0,-26.0,-37.0,0.0
-11.0,28.0,94.0,57.0,21.0,18.0,-19.0,-13.0,-28.0,-38.0,0.0
-23.0,19.0,79.0,40.0,21.0,16.0,-29.0,-14.0,-24.0,-30.0,0.0
-30.0,0.0,72.0,26.0,29.0,16.0,-5.0,-5.0,-26.0,-35.0,0.0
-20.0,6.0,55.0,8.0,22.0,1.0,18.0,2.0,-27.0,-31.0,0.0
20.0,34.0,9.0,-22.0,5.0,-10.0,19.0,4.0,-15.0,0.0,0.0
60.0,47.0,-69.0,-50.0,-14.0,-23.0,10.0,10.0,-9.0,22.0,0.0
41.0,46.0,-76.0,-42.0,-3.0,-20.0,7.0,21.0,-19.0,11.0,0.0
0.0,29.0,-54.0,-18.0,0.0,-15.0,11.0,2.0,-24.0,-12.0,0.0
-19.0,17.0,-30.0,16.0,10.0,-5.0,7.0,-6.0,0.0,-31.0,0.0
-19.0,15.0,-5.0,51.0,10.0,6.0,6.0,8.0,41.0,-17.0,0.0
-17.0,0.0,-9.0,33.0,-7.0,-2.0,-1.0,16.0,85.0,-1.0,0.0
-36.0,-32.0,-16.0,-2.0,-9.0,-6.0,-1.0,13.0,84.0,-24.0,0.0
-49.0,-41.0,-28.0,-19.0,-11.0,-17.0,-17.0,6.0,66.0,-31.0,0.0
-43.0,-37.0,-36.0,-19.0,-16.0,-8.0,-20.0,12.0,64.0,-34.0,0.0
-33.0,-34.0,-26.0,2.0,-10.0,5.0,-13.0,28.0,54.0,-17.0,0.0
-14.0,-23.0,-13.0,12.0,-3.0,2.0,-3.0,30.0,38.0,7.0,0.0
2.0,-15.0,-5.0,-1.0,-7.0,-2.0,10.0,28.0,26.0,21.0,0.0
15.0,-21.0,-16.0,-28.0,-13.0,0.0,20.0,20.0,27.0,46.0,0.0
18.0,-11.0,-18.0,-52.0,-17.0,7.0,31.0,17.0,34.0,48.0,0.0
11.0,-9.0,-19.0,-60.0,-27.0,-6.0,25.0,16.0,21.0,42.0,0.0
-5.0,-16.0,-26.0,-62.0,-31.0,-6.0,18.0,12.0,3.0,27.0,0.0
-5.0,-10.0,-36.0,-65.0,-26.0,-2.0,19.0,15.0,3.0,-5.0,0.0
4.0,3.0,-35.0,-83.0,-37.0,-8.0,23.0,14.0,-1.0,-2.0,0.0
15.0,10.0,-29.0,-64.0,-38.0,-4.0,21.0,5.0,4.0,5.0,0.0
-3.0,-7.0,-31.0,-43.0,-34.0,0.0,8.0,0.0,5.0,-2.0,0.0
-8.0,-11.0,-37.0,-25.0,-31.0,-7.0,4.0,0.0,11.0,-1.0,0.0
-17.0,-12.0,-36.0,-10.0,-24.0,2.0,4.0,-9.0,2.0,0.0,0.0
-19.0,-13.0,-24.0,2.0,-18.0,0.0,0.0,-4.0,10.0,12.0,0.0
-19.0,-2.0,-5.0,18.0,-20.0,-3.0,2.0,-5.0,4.0,12.0,0.0
-24.0,1.0,14.0,23.0,-11.0,9.0,-5.0,-6.0,-12.0,-2.0,0.0
-35.0,3.0,24.0,27.0,-6.0,11.0,-13.0,-21.0,-11.0,-19.0,0.0
-39.0,-1.0,16.0,32.0,-4.0,5.0,-6.0,-16.0,0.0,-19.0,0.0
-13.0,-3.0,-3.0,22.0,4.0,4.0,-5.0,-18.0,-1.0,1.0,0.0
8.0,6.0,-14.0,3.0,0.0,19.0,-9.0,-18.0,-14.0,-6.0,0.0
7.0,10.0,-9.0,1.0,3.0,17.0,-16.0,-20.0,-32.0,-31.0,0.0
23.0,25.0,-15.0,-5.0,0.0,-5.0,-19.0,-12.0,-14.0,2.0,0.0
40.0,29.0,-17.0,-15.0,-4.0,-7.0,-4.0,1.0,8.0,46.0,0.0
0.0,20.0,12.0,-9.0,-10.0,5.0,4.0,-4.0,-1.0,31.0,0.0
-7.0,22.0,17.0,0.0,-18.0,7.0,7.0,6.0,2.0,24.0,0.0
11.0,27.0,8.0,-7.0,-26.0,3.0,17.0,10.0,-4.0,27.0,0.0
9.0,28.0,21.0,-18.0,-33.0,-5.0,22.0,3.0,-18.0,21.0,0.0
3.0,13.0,51.0,-25.0,-19.0,-12.0,18.0,-10.0,-29.0,-1.0,0.0
-2.0,16.0,77.0,-5.0,7.0,-12.0,5.0,-11.0,-19.0,-4.0,0.0
0.0,25.0,101.0,11.0,15.0,-1.0,1.0,-22.0,-15.0,-7.0,0.0
2.0,26.0,78.0,28.0,15.0,8.0,13.0,-24.0,-9.0,-13.0,0.0
5.0,20.0,54.0,16.0,9.0,3.0,-7.0,-18.0,-6.0,-8.0,0.0
16.0,9.0,25.0,-6.0,4.0,7.0,-7.0,-16.0,-11.0,-5.0,0.0
19.0,1.0,11.0,-27.0,-1.0,5.0,-2.0,-12.0,-3.0,-3.0,0.0
5.0,4.0,-2.0,-46.0,8.0,2.0,0.0,-3.0,-11.0,-16.0,0.0
3.0,5.0,-38.0,-59.0,11.0,0.0,0.0,9.0,0.0,-16.0,0.0
13.0,14.0,-81.0,-86.0,5.0,-5.0,-2.0,15.0,14.0,5.0,0.0
7.0,31.0,-66.0,-88.0,-9.0,-14.0,-5.0,13.0,9.0,41.0,0.0
9.0,24.0,-33.0,-49.0,-3.0,-23.0,-9.0,9.0,0.0,56.0,0.0
17.0,34.0,0.0,-18.0,2.0,-13.0,-19.0,1.0,-8.0,35.0,0.0
18.0,44.0,11.0,-18.0,5.0,-11.0,-15.0,-8.0,-11.0,24.0,0.0
24.0,28.0,-2.0,-27.0,6.0,0.0,-3.0,6.0,-6.0,23.0,0.0
32.0,20.0,-13.0,-14.0,9.0,0.0,-2.0,11.0,-13.0,25.0,0.0
33.0,17.0,-24.0,6.0,25.0,6.0,-2.0,3.0,-24.0,19.0,0.0
33.0,11.0,-54.0,33.0,36.0,17.0,12.0,1.0,-28.0,8.0,0.0
19.0,17.0,-61.0,30.0,21.0,16.0,8.0,6.0,-19.0,20.0,0.0
10.0,21.0,-37.0,8.0,3.0,2.0,4.0,7.0,-11.0,36.0,0.0
9.0,9.0,-36.0,21.0,2.0,1.0,2.0,-4.0,-21.0,29.0,0.0
-6.0,-14.0,-39.0,31.0,-1.0,6.0,5.0,-15.0,-37.0,15.0,0.0
-29.0,-31.0,-16.0,36.0,-11.0,-8.0,1.0,-24.0,-40.0,4.0,0.0
-31.0,-9.0,21.0,36.0,-16.0,-14.0,-7.0,-25.0,-27.0,9.0,0.0
-15.0,2.0,30.0,21.0,-9.0,-10.0,-5.0,-6.0,-3.0,18.0,0.0
-1.0,4.0,25.0,17.0,-9.0,-2.0,-7.0,5.0,31.0,10.0,0.0
-2.0,-11.0,24.0,26.0,-6.0,-4.0,-21.0,1.0,48.0,4.0,0.0
-10.0,-22.0,22.0,13.0,5.0,0.0,-21.0,14.0,65.0,11.0,0.0
-7.0,-4.0,11.0,27.0,12.0,1.0,0.0,32.0,86.0,15.0,0.0
1.0,-5.0,12.0,34.0,28.0,13.0,29.0,38.0,57.0,12.0,0.0
5.0,0.0,14.0,24.0,31.0,16.0,34.0,47.0,10.0,0.0,0.0
-2.0,-4.0,12.0,19.0,24.0,18.0,38.0,38.0,-10.0,-12.0,0.0
-18.0,-13.0,4.0,25.0,16.0,23.0,55.0,27.0,-45.0,-29.0,0.0
-20.0,-10.0,-9.0,24.0,15.0,16.0,54.0,7.0,-79.0,-29.0,0.0
-3.0,1.0,-3.0,22.0,0.0,2.0,26.0,-11.0,-82.0,-1.0,0.0
-7.0,16.0,-1.0,16.0,-10.0,3.0,4.0,-14.0,-51.0,32.0,0.0
-18.0,-2.0,-16.0,3.0,-8.0,2.0,8.0,-7.0,-15.0,24.0,0.0
-40.0,-25.0,-28.0,0.0,-3.0,5.0,12.0,-4.0,28.0,-1.0,0.0
-64.0,-34.0,-28.0,2.0,4.0,16.0,11.0,1.0,51.0,-30.0,0.0
-41.0,-28.0,-21.0,16.0,7.0,1.0,-3.0,-7.0,48.0,-7.0,0.0
17.0,-7.0,-8.0,26.0,4.0,-5.0,-8.0,-31.0,55.0,51.0,0.0
33.0,-4.0,-12.0,23.0,5.0,-4.0,-1.0,-33.0,55.0,42.0,0.0
22.0,-15.0,-21.0,27.0,7.0,4.0,-3.0,-16.0,61.0,23.0,0.0
16.0,-11.0,-19.0,59.0,20.0,8.0,4.0,-14.0,55.0,18.0,0.0
17.0,3.0,10.0,70.0,31.0,14.0,14.0,-16.0,20.0,4.0,0.0
27.0,7.0,28.0,37.0,28.0,3.0,4.0,-14.0,0.0,0.0,0.0
25.0,1.0,34.0,0.0,0.0,-13.0,-7.0,-10.0,12.0,18.0,0.0
6.0,-3.0,41.0,-4.0,-6.0,-4.0,0.0,-17.0,0.0,17.0,0.0
14.0,-4.0,46.0,11.0,3.0,9.0,8.0,-21.0,-28.0,5.0,0.0
21.0,-5.0,46.0,24.0,11.0,11.0,7.0,-21.0,-14.0,36.0,0.0
32.0,7.0,53.0,36.0,14.0,5.0,6.0,-15.0,-5.0,36.0,0.0
31.0,5.0,61.0,21.0,0.0,20.0,8.0,-8.0,1.0,26.0,0.0
39.0,0.0,63.0,-9.0,-16.0,27.0,32.0,21.0,13.0,46.0,0.0
51.0,15.0,60.0,-15.0,-34.0,25.0,40.0,27.0,13.0,56.0,0.0
52.0,17.0,54.0,9.0,-25.0,17.0,29.0,22.0,1.0,28.0,0.0
26.0,1.0,12.0,17.0,-10.0,8.0,21.0,7.0,4.0,10.0,0.0
17.0,-6.0,-42.0,20.0,0.0,9.0,13.0,4.0,5.0,13.0,0.0
13.0,4.0,-29.0,26.0,-11.0,27.0,27.0,8.0,17.0,25.0,0.0
9.0,-3.0,-15.0,13.0,-23.0,2.0,10.0,2.0,7.0,24.0,0.0
15.0,-6.0,-22.0,15.0,-24.0,-3.0,12.0,7.0,12.0,17.0,0.0
10.0,-3.0,-16.0,9.0,-26.0,0.0,11.0,14.0,14.0,21.0,0.0
19.0,2.0,-10.0,15.0,-10.0,4.0,8.0,11.0,3.0,21.0,0.0
36.0,9.0,-8.0,12.0,-4.0,1.0,7.0,14.0,15.0,27.0,0.0
43.0,6.0,-8.0,-10.0,-2.0,3.0,6.0,25.0,38.0,26.0,0.0
29.0,-6.0,-14.0,-11.0,-4.0,12.0,18.0,35.0,39.0,18.0,0.0
2.0,-24.0,-2.0,0.0,-2.0,21.0,20.0,35.0,19.0,19.0,0.0
-11.0,-47.0,-7.0,-4.0,0.0,18.0,23.0,34.0,2.0,2.0,0.0
-18.0,-36.0,-6.0,-4.0,0.0,18.0,18.0,17.0,7.0,-15.0,0.0
-22.0,-28.0,-3.0,-1.0,0.0,24.0,8.0,2.0,0.0,-29.0,0.0
-24.0,-22.0,-5.0,0.0,5.0,13.0,-6.0,1.0,1.0,-31.0,0.0
-29.0,-16.0,-14.0,8.0,6.0,13.0,-8.0,-8.0,-10.0,-23.0,0.0
-28.0,-7.0,-2.0,20.0,4.0,16.0,-9.0,-18.0,-29.0,-30.0,0.0
-34.0,-4.0,24.0,32.0,17.0,19.0,-4.0,-26.0,-35.0,-41.0,0.0
-29.0,5.0,32.0,47.0,22.0,16.0,6.0,-18.0,-36.0,-39.0,0.0
-1.0,15.0,44.0,41.0,19.0,8.0,13.0,1.0,-22.0,-27.0,0.0
18.0,17.0,45.0,23.0,5.0,-4.0,20.0,4.0,0.0,16.0,0.0
33.0,12.0,29.0,10.0,-4.0,-24.0,14.0,-4.0,3.0,56.0,0.0
32.0,7.0,14.0,4.0,4.0,-23.0,1.0,-15.0,0.0,53.0,0.0
27.0,11.0,-1.0,-10.0,0.0,-21.0,-5.0,-11.0,7.0,46.0,0.0
40.0,7.0,-32.0,-30.0,-4.0,-16.0,0.0,-10.0,13.0,43.0,0.0
46.0,7.0,-57.0,-44.0,-8.0,-5.0,-1.0,-8.0,7.0,32.0,0.0
43.0,1.0,-39.0,-48.0,-17.0,-5.0,-13.0,-9.0,-9.0,15.0,0.0
31.0,2.0,-18.0,-38.0,-3.0,-5.0,-5.0,-17.0,-15.0,3.0,0.0
26.0,6.0,-7.0,-34.0,1.0,-5.0,2.0,-22.0,-14.0,-6.0,0.0
19.0,-6.0,-6.0,-38.0,7.0,3.0,2.0,-12.0,-7.0,-5.0,0.0
-2.0,-23.0,-12.0,-49.0,18.0,1.0,12.0,-15.0,-21.0,-23.0,0.0
-12.0,-25.0,4.0,-41.0,8.0,4.0,18.0,-20.0,-33.0,-40.0,0.0
4.0,-10.0,10.0,-37.0,0.0,-2.0,7.0,-18.0,-27.0,-9.0,0.0
19.0,4.0,9.0,-29.0,0.0,-3.0,-1.0,-27.0,-26.0,22.0,0.0
9.0,12.0,14.0,-29.0,2.0,7.0,-3.0,-36.0,-36.0,5.0,0.0
0.0,5.0,11.0,-28.0,14.0,21.0,-10.0,-33.0,-52.0,-24.0,0.0
2.0,-2.0,-2.0,-12.0,21.0,26.0,-8.0,-33.0,-66.0,-38.0,0.0
-6.0,4.0,-9.0,-6.0,18.0,36.0,-4.0,-23.0,-71.0,-31.0,0.0
-15.0,-1.0,-3.0,-11.0,22.0,37.0,-6.0,-16.0,-67.0,-34.0,0.0
-20.0,1.0,0.0,-29.0,15.0,20.0,-9.0,-12.0,-48.0,-36.0,0.0
-6.0,-12.0,4.0,-40.0,0.0,15.0,-11.0,5.0,-28.0,-27.0,0.0
13.0,-14.0,-3.0,-43.0,5.0,13.0,-6.0,12.0,-14.0,-14.0,0.0
15.0,-3.0,-9.0,-39.0,7.0,10.0,4.0,8.0,-14.0,-9.0,0.0
8.0,-1.0,-13.0,-44.0,-2.0,8.0,13.0,4.0,-3.0,-5.0,0.0
30.0,5.0,-16.0,-42.0,0.0,0.0,8.0,3.0,17.0,14.0,0.0
36.0,2.0,-23.0,-21.0,7.0,-7.0,-1.0,-3.0,22.0,13.0,0.0
39.0,9.0,-16.0,10.0,10.0,-13.0,-8.0,-16.0,9.0,-1.0,0.0
40.0,2.0,1.0,62.0,29.0,1.0,-6.0,-14.0,0.0,-16.0,0.0
29.0,-9.0,19.0,91.0,49.0,19.0,-4.0,-17.0,-8.0,-38.0,0.0
11.0,-3.0,56.0,98.0,51.0,21.0,-3.0,-20.0,-9.0,-43.0,0.0
-11.0,-5.0,60.0,85.0,51.0,26.0,-11.0,-13.0,-14.0,-26.0,0.0
-12.0,-20.0,24.0,53.0,30.0,19.0,-2.0,-4.0,-25.0,-16.0,0.0
-17.0,-30.0,6.0,19.0,1.0,17.0,7.0,7.0,-21.0,-20.0,0.0
-20.0,-44.0,-2.0,1.0,-8.0,14.0,0.0,12.0,-8.0,-24.0,0.0
-17.0,-43.0,-8.0,-8.0,-3.0,-1.0,-8.0,10.0,-5.0,-25.0,0.0
-8.0,-37.0,-19.0,-31.0,4.0,-13.0,-6.0,7.0,6.0,-38.0,0.0
19.0,-9.0,-24.0,-44.0,4.0,-12.0,-5.0,12.0,25.0,-5.0,0.0
40.0,25.0,-14.0,-47.0,-9.0,-8.0,4.0,18.0,32.0,27.0,0.0
58.0,54.0,6.0,-40.0,-13.0,-4.0,22.0,35.0,13.0,25.0,0.0
70.0,52.0,12.0,-36.0,-28.0,-14.0,12.0,30.0,-5.0,29.0,0.0
72.0,25.0,0.0,-42.0,-25.0,-18.0,-2.0,8.0,-15.0,40.0,0.0
58.0,2.0,-5.0,-50.0,-28.0,-27.0,-5.0,-5.0,-23.0,39.0,0.0
29.0,-25.0,-27.0,-47.0,-26.0,-41.0,-7.0,-13.0,-1.0,25.0,0.0
11.0,-42.0,-36.0,-43.0,-21.0,-40.0,-12.0,-5.0,36.0,9.0,0.0
-2.0,-29.0,-32.0,-33.0,-31.0,-40.0,-17.0,-1.0,86.0,1.0,0.0
-28.0,-31.0,-30.0,-14.0,-26.0,-38.0,-14.0,12.0,114.0,-9.0,0.0
-59.0,-34.0,-22.0,-2.0,-11.0,-28.0,-14.0,16.0,87.0,-34.0,0.0
-57.0,-35.0,-11.0,-3.0,-8.0,-23.0,-6.0,37.0,59.0,-51.0,0.0
-67.0,-40.0,-9.0,7.0,7.0,-12.0,4.0,54.0,26.0,-55.0,0.0
-54.0,-21.0,-10.0,30.0,25.0,8.0,20.0,51.0,-32.0,-31.0,0.0
-29.0,1.0,-10.0,41.0,31.0,15.0,25.0,26.0,-83.0,-23.0,0.0
-9.0,8.0,-2.0,57.0,27.0,9.0,20.0,13.0,-67.0,-1.0,0.0
0.0,15.0,6.0,51.0,26.0,3.0,14.0,11.0,-33.0,26.0,0.0
-4.0,6.0,-15.0,36.0,21.0,3.0,33.0,13.0,-21.0,18.0,0.0
-14.0,3.0,-25.0,58.0,33.0,0.0,34.0,13.0,-20.0,-1.0,0.0
-19.0,11.0,-6.0,75.0,25.0,-13.0,23.0,8.0,-16.0,-6.0,0.0
-25.0,-4.0,1.0,60.0,28.0,-16.0,23.0,1.0,-27.0,-23.0,0.0
-33.0,-15.0,0.0,29.0,34.0,-4.0,31.0,0.0,-38.0,-43.0,0.0
-18.0,-7.0,4.0,17.0,33.0,-10.0,16.0,-17.0,-41.0,-30.0,0.0
3.0,0.0,13.0,16.0,45.0,-3.0,-10.0,-38.0,-50.0,-3.0,0.0
-23.0,4.0,15.0,4.0,40.0,1.0,-23.0,-38.0,-52.0,-15.0,0.0
-41.0,12.0,25.0,-17.0,28.0,1.0,-34.0,-30.0,-60.0,-26.0,0.0
-19.0,23.0,11.0,-44.0,9.0,1.0,-34.0,-14.0,-43.0,-10.0,0.0
1.0,40.0,-12.0,-33.0,16.0,4.0,-17.0,9.0,-6.0,2.0,0.0
15.0,49.0,-25.0,-21.0,19.0,7.0,5.0,31.0,44.0,13.0,0.0
32.0,53.0,-31.0,-24.0,24.0,19.0,-1.0,17.0,66.0,0.0,0.0
63.0,62.0,-40.0,-24.0,11.0,11.0,-19.0,4.0,74.0,16.0,0.0
64.0,45.0,-34.0,-51.0,0.0,0.0,-21.0,0.0,74.0,62.0,0.0
52.0,23.0,-37.0,-50.0,-2.0,2.0,-18.0,-6.0,44.0,35.0,0.0
30.0,22.0,-25.0,-43.0,-8.0,4.0,-14.0,5.0,27.0,18.0,0.0
25.0,20.0,2.0,-33.0,-11.0,-4.0,-7.0,18.0,20.0,20.0,0.0
16.0,11.0,33.0,-14.0,0.0,-17.0,-9.0,20.0,-8.0,0.0,0.0
-9.0,-6.0,50.0,-12.0,5.0,-17.0,-7.0,12.0,-36.0,-12.0,0.0
-22.0,-14.0,30.0,-23.0,-3.0,9.0,0.0,10.0,-18.0,-12.0,0.0
-1.0,-31.0,-51.0,-24.0,-5.0,7.0,0.0,31.0,8.0,-3.0,0.0
-2.0,-57.0,-119.0,-6.0,7.0,-20.0,1.0,46.0,6.0,-21.0,0.0
-16.0,-54.0,-95.0,7.0,7.0,-24.0,1.0,23.0,6.0,-19.0,0.0
-6.0,-39.0,-78.0,12.0,1.0,-25.0,-16.0,-1.0,14.0,38.0,0.0
-11.0,-42.0,-59.0,17.0,7.0,-22.0,-18.0,-9.0,2.0,50.0,0.0
-25.0,-35.0,-46.0,20.0,1.0,-18.0,-19.0,-7.0,-20.0,23.0,0.0
-16.0,-27.0,-26.0,10.0,2.0,-12.0,-24.0,-12.0,-23.0,4.0,0.0
-34.0,-23.0,8.0,12.0,4.0,-12.0,-24.0,-4.0,-20.0,-6.0,0.0
-48.0,-21.0,35.0,29.0,5.0,-4.0,-5.0,-4.0,-21.0,-17.0,0.0
-42.0,-26.0,35.0,48.0,18.0,9.0,3.0,0.0,-11.0,-15.0,0.0
-23.0,-24.0,13.0,53.0,30.0,20.0,1.0,15.0,-3.0,-8.0,0.0
-8.0,-19.0,-10.0,44.0,31.0,-5.0,-2.0,13.0,8.0,-4.0,0.0
8.0,-2.0,-7.0,21.0,22.0,-23.0,-5.0,4.0,22.0,16.0,0.0
19.0,12.0,11.0,5.0,13.0,-30.0,-1.0,3.0,10.0,20.0,0.0
22.0,13.0,31.0,0.0,7.0,-37.0,-8.0,1.0,6.0,4.0,0.0
20.0,16.0,37.0,0.0,8.0,-31.0,-7.0,6.0,4.0,3.0,0.0
12.0,14.0,31.0,-3.0,-5.0,-19.0,3.0,19.0,11.0,11.0,0.0
1.0,-5.0,14.0,-5.0,0.0,-14.0,11.0,8.0,4.0,4.0,0.0
-10.0,-18.0,0.0,15.0,9.0,-8.0,10.0,-1.0,-5.0,-20.0,0.0
-9.0,-12.0,-14.0,19.0,10.0,-6.0,7.0,-2.0,-3.0,-31.0,0.0
-5.0,0.0,-32.0,19.0,-3.0,-1.0,14.0,-2.0,4.0,-17.0,0.0
-2.0,7.0,-34.0,18.0,-7.0,0.0,5.0,-3.0,-6.0,-23.0,0.0
-5.0,17.0,-12.0,33.0,-11.0,1.0,-12.0,-17.0,-11.0,-33.0,0.0
-8.0,33.0,20.0,41.0,-11.0,-5.0,-15.0,-14.0,-16.0,-16.0,0.0
10.0,35.0,30.0,37.0,-5.0,-5.0,-9.0,-13.0,-17.0,-2.0,0.0
33.0,52.0,35.0,11.0,-11.0,-6.0,-10.0,-20.0,-1.0,22.0,0.0
60.0,74.0,15.0,-28.0,-30.0,-17.0,-10.0,-3.0,24.0,65.0,0.0
76.0,91.0,2.0,-43.0,-33.0,-17.0,-1.0,5.0,33.0,65.0,0.0
57.0,60.0,-2.0,-34.0,-23.0,-13.0,-2.0,16.0,42.0,51.0,0.0
26.0,29.0,-18.0,-22.0,-20.0,-12.0,0.0,24.0,16.0,35.0,0.0
-15.0,9.0,-17.0,-12.0,-10.0,-20.0,1.0,13.0,4.0,16.0,0.0
-47.0,2.0,-18.0,-10.0,-6.0,-17.0,14.0,15.0,9.0,-2.0,0.0
-58.0,-4.0,-31.0,-19.0,-10.0,-18.0,25.0,15.0,5.0,-20.0,0.0
-52.0,-11.0,-43.0,-23.0,-16.0,-14.0,34.0,5.0,-7.0,-39.0,0.0
-21.0,0.0,-32.0,-22.0,-20.0,-29.0,30.0,0.0,-4.0,-13.0,0.0
-1.0,16.0,-18.0,-16.0,-12.0,-35.0,5.0,-8.0,22.0,18.0,0.0
-24.0,27.0,1.0,-13.0,-15.0,-35.0,-7.0,-18.0,24.0,-2.0,0.0
-42.0,25.0,20.0,-26.0,-13.0,-38.0,-12.0,-23.0,27.0,-11.0,0.0
-47.0,8.0,19.0,-25.0,-6.0,-26.0,-13.0,-22.0,37.0,-22.0,0.0
-44.0,-5.0,15.0,-8.0,6.0,-8.0,0.0,0.0,17.0,-33.0,0.0
-25.0,-2.0,25.0,0.0,24.0,1.0,10.0,8.0,-3.0,-26.0,0.0
-8.0,10.0,36.0,-5.0,30.0,7.0,-5.0,-1.0,-15.0,-12.0,0.0
15.0,9.0,24.0,-4.0,29.0,-1.0,-13.0,-13.0,-34.0,0.0,0.0
9.0,8.0,4.0,-2.0,21.0,-9.0,-11.0,-21.0,-47.0,2.0,0.0
-5.0,11.0,-7.0,-12.0,8.0,-1.0,-5.0,-19.0,-49.0,0.0,0.0
5.0,15.0,2.0,-19.0,7.0,-3.0,-1.0,-26.0,-4.0,7.0,0.0
25.0,29.0,14.0,-25.0,6.0,-14.0,-9.0,-20.0,35.0,3.0,0.0
31.0,31.0,4.0,-31.0,5.0,-22.0,-8.0,-2.0,68.0,1.0,0.0
29.0,26.0,-7.0,-32.0,2.0,-18.0,-15.0,9.0,89.0,10.0,0.0
36.0,22.0,-15.0,-15.0,11.0,-15.0,-11.0,18.0,79.0,14.0,0.0
41.0,24.0,-16.0,0.0,9.0,-4.0,-8.0,12.0,56.0,15.0,0.0
28.0,17.0,-10.0,7.0,14.0,0.0,-7.0,18.0,16.0,15.0,0.0
20.0,9.0,0.0,14.0,21.0,3.0,7.0,14.0,-29.0,-1.0,0.0
9.0,22.0,3.0,24.0,30.0,18.0,8.0,4.0,-56.0,-26.0,0.0
-7.0,22.0,19.0,36.0,17.0,20.0,0.0,-1.0,-64.0,-32.0,0.0
-10.0,16.0,24.0,35.0,17.0,16.0,0.0,1.0,-40.0,-27.0,0.0
-1.0,4.0,-1.0,35.0,14.0,9.0,-4.0,2.0,-4.0,-13.0,0.0
7.0,-4.0,-5.0,29.0,4.0,10.0,-8.0,1.0,-2.0,-6.0,0.0
16.0,0.0,1.0,23.0,8.0,15.0,-2.0,2.0,-8.0,-18.0,0.0
5.0,-6.0,-6.0,34.0,9.0,22.0,-1.0,-12.0,-8.0,-37.0,0.0
-6.0,-18.0,-14.0,36.0,12.0,15.0,11.0,5.0,-7.0,-48.0,0.0
4.0,-20.0,-13.0,21.0,14.0,13.0,25.0,8.0,-9.0,-46.0,0.0
5.0,-14.0,8.0,16.0,18.0,16.0,39.0,2.0,-16.0,-42.0,0.0
-18.0,-30.0,0.0,9.0,9.0,21.0,35.0,2.0,-21.0,-38.0,0.0
-32.0,-28.0,-4.0,-12.0,-6.0,12.0,26.0,8.0,-14.0,-25.0,0.0
-6.0,-17.0,0.0,-16.0,-5.0,2.0,25.0,4.0,-9.0,-24.0,0.0
8.0,-26.0,-13.0,-12.0,-2.0,-1.0,19.0,-7.0,-17.0,4.0,0.0
-4.0,-34.0,-23.0,-14.0,-7.0,3.0,16.0,-13.0,-22.0,37.0,0.0
-9.0,-29.0,-35.0,-10.0,-16.0,-4.0,0.0,-17.0,-22.0,34.0,0.0
-27.0,-33.0,-35.0,21.0,-18.0,-17.0,-17.0,-23.0,-10.0,31.0,0.0
-52.0,-50.0,-11.0,45.0,-20.0,-9.0,-29.0,-29.0,-10.0,33.0,0.0
-68.0,-59.0,-9.0,37.0,-24.0,-7.0,-26.0,-21.0,-3.0,30.0,0.0
-60.0,-54.0,-8.0,40.0,-24.0,-4.0,-19.0,-25.0,32.0,22.0,0.0
-33.0,-36.0,0.0,44.0,-29.0,-13.0,-30.0,-33.0,73.0,42.0,0.0
-31.0,-28.0,7.0,25.0,-17.0,-15.0,-31.0,-24.0,73.0,44.0,0.0
-19.0,-20.0,7.0,-2.0,-5.0,-14.0,-10.0,-7.0,49.0,32.0,0.0
-11.0,-20.0,-18.0,-35.0,-5.0,-3.0,-3.0,14.0,14.0,25.0,0.0
1.0,-2.0,-40.0,-58.0,-7.0,23.0,18.0,20.0,18.0,26.0,0.0
28.0,4.0,-46.0,-74.0,-9.0,33.0,28.0,19.0,-1.0,40.0,0.0
48.0,7.0,-46.0,-77.0,-5.0,36.0,25.0,17.0,-27.0,42.0,0.0
57.0,23.0,-43.0,-76.0,-28.0,29.0,18.0,35.0,-23.0,41.0,0.0
51.0,13.0,-46.0,-98.0,-61.0,17.0,9.0,41.0,0.0,48.0,0.0
30.0,3.0,-41.0,-84.0,-57.0,10.0,6.0,29.0,-1.0,32.0,0.0
13.0,-7.0,-15.0,-46.0,-26.0,18.0,-6.0,10.0,-15.0,6.0,0.0
12.0,0.0,3.0,-9.0,-22.0,26.0,-15.0,2.0,-26.0,-13.0,0.0
35.0,23.0,28.0,4.0,-28.0,15.0,-16.0,1.0,-21.0,0.0,0.0
56.0,28.0,19.0,-1.0,-26.0,3.0,-29.0,-10.0,-8.0,4.0,0.0
43.0,23.0,-7.0,-7.0,-23.0,1.0,-35.0,-12.0,-28.0,-14.0,0.0
28.0,21.0,-20.0,16.0,-13.0,-1.0,-34.0,-11.0,-49.0,-30.0,0.0
19.0,14.0,4.0,39.0,7.0,-2.0,-36.0,-24.0,-53.0,-24.0,0.0
2.0,-7.0,33.0,62.0,15.0,15.0,-26.0,-36.0,-54.0,-18.0,0.0
-34.0,-39.0,49.0,83.0,30.0,40.0,-2.0,-37.0,-47.0,-27.0,0.0
-57.0,-59.0,50.0,78.0,44.0,54.0,-4.0,-30.0,-26.0,-11.0,0.0
-45.0,-47.0,52.0,51.0,31.0,42.0,3.0,-9.0,4.0,8.0,0.0
-12.0,-34.0,33.0,-15.0,-4.0,18.0,13.0,14.0,38.0,52.0,0.0
21.0,-19.0,19.0,-77.0,-48.0,-4.0,24.0,25.0,70.0,85.0,0.0
49.0,2.0,7.0,-80.0,-60.0,-18.0,23.0,33.0,76.0,98.0,0.0
66.0,14.0,-10.0,-83.0,-64.0,-22.0,16.0,39.0,60.0,98.0,0.0
66.0,22.0,-28.0,-96.0,-55.0,-14.0,15.0,39.0,52.0,83.0,0.0
44.0,23.0,-3.0,-53.0,-31.0,-7.0,16.0,14.0,46.0,63.0,0.0
27.0,28.0,55.0,-22.0,-6.0,-4.0,12.0,-4.0,21.0,38.0,0.0
12.0,27.0,89.0,7.0,0.0,-1.0,12.0,-7.0,8.0,25.0,0.0
2.0,10.0,95.0,39.0,7.0,-1.0,6.0,-4.0,-10.0,4.0,0.0
-6.0,12.0,101.0,58.0,20.0,2.0,1.0,-11.0,-16.0,-3.0,0.0
-38.0,1.0,82.0,58.0,26.0,12.0,-13.0,-7.0,-15.0,1.0,0.0
-62.0,-18.0,65.0,32.0,21.0,9.0,-18.0,-1.0,-24.0,-6.0,0.0
-58.0,-15.0,20.0,3.0,9.0,11.0,-14.0,7.0,-27.0,0.0,0.0
-37.0,-1.0,-86.0,-41.0,3.0,21.0,2.0,20.0,-7.0,31.0,0.0
-19.0,0.0,-151.0,-61.0,0.0,23.0,15.0,37.0,19.0,40.0,0.0
-7.0,-3.0,-133.0,-43.0,5.0,15.0,14.0,23.0,23.0,24.0,0.0
-10.0,-1.0,-107.0,-18.0,3.0,11.0,14.0,12.0,28.0,23.0,0.0
-13.0,-1.0,-72.0,-1.0,-10.0,-4.0,3.0,2.0,14.0,17.0,0.0
-10.0,2.0,-42.0,5.0,-17.0,-14.0,1.0,-10.0,5.0,3.0,0.0
-11.0,7.0,-31.0,5.0,-15.0,-3.0,3.0,-6.0,-9.0,-8.0,0.0
-16.0,2.0,-18.0,-1.0,-18.0,-6.0,7.0,9.0,12.0,-6.0,0.0
-13.0,3.0,-20.0,-17.0,-15.0,-5.0,19.0,15.0,64.0,-7.0,0.0
-10.0,17.0,-31.0,-9.0,-4.0,13.0,27.0,3.0,121.0,1.0,0.0
-13.0,14.0,-35.0,-3.0,14.0,12.0,13.0,1.0,112.0,-7.0,0.0
-14.0,-5.0,-29.0,3.0,12.0,-9.0,-1.0,19.0,62.0,-25.0,0.0
-14.0,5.0,-12.0,1.0,10.0,-2.0,-10.0,27.0,35.0,-20.0,0.0
-13.0,19.0,4.0,-25.0,12.0,3.0,-18.0,19.0,3.0,-6.0,0.0
-3.0,24.0,19.0,-22.0,27.0,14.0,-17.0,1.0,-52.0,-6.0,0.0
3.0,25.0,20.0,-6.0,31.0,20.0,-13.0,-5.0,-72.0,-3.0,0.0
0.0,15.0,14.0,1.0,16.0,8.0,-19.0,-9.0,-64.0,-1.0,0.0
-13.0,4.0,1.0,11.0,11.0,1.0,-22.0,-17.0,-42.0,-8.0,0.0
-29.0,-14.0,-8.0,14.0,10.0,-2.0,-15.0,-21.0,-26.0,-13.0,0.0
-27.0,-17.0,-1.0,16.0,9.0,-10.0,-7.0,-14.0,-16.0,-12.0,0.0
-24.0,-3.0,23.0,15.0,16.0,-4.0,0.0,-3.0,-4.0,-24.0,0.0
-20.0,0.0,44.0,10.0,16.0,0.0,-4.0,5.0,-1.0,-20.0,0.0
-14.0,-10.0,38.0,1.0,11.0,15.0,9.0,16.0,26.0,-10.0,0.0
-1.0,-2.0,29.0,-2.0,19.0,23.0,14.0,22.0,35.0,-24.0,0.0
11.0,0.0,30.0,4.0,28.0,27.0,10.0,15.0,21.0,-36.0,0.0
15.0,5.0,14.0,2.0,14.0,21.0,10.0,13.0,16.0,-40.0,0.0
22.0,1.0,0.0,8.0,1.0,2.0,16.0,14.0,19.0,-35.0,0.0
8.0,-5.0,-6.0,13.0,5.0,2.0,26.0,23.0,-1.0,-49.0,0.0
-17.0,-1.0,0.0,6.0,6.0,2.0,20.0,18.0,5.0,-57.0,0.0
-29.0,-8.0,4.0,0.0,5.0,2.0,13.0,6.0,6.0,-73.0,0.0
-36.0,-21.0,4.0,5.0,9.0,4.0,0.0,-4.0,-7.0,-72.0,0.0
-34.0,-24.0,0.0,4.0,11.0,-1.0,-8.0,-19.0,-12.0,-24.0,0.0
-13.0,-12.0,-10.0,4.0,13.0,-3.0,-8.0,-31.0,-8.0,3.0,0.0
-9.0,-9.0,-2.0,-5.0,14.0,-4.0,-4.0,-31.0,-8.0,-2.0,0.0
-14.0,-17.0,8.0,-13.0,23.0,9.0,0.0,-15.0,-4.0,-39.0,0.0
-12.0,-12.0,9.0,-8.0,27.0,18.0,-6.0,-14.0,2.0,-42.0,0.0
-5.0,-7.0,16.0,-6.0,23.0,16.0,-4.0,-12.0,7.0,-39.0,0.0
-8.0,-8.0,16.0,5.0,35.0,35.0,14.0,-2.0,-10.0,-46.0,0.0
-1.0,1.0,17.0,8.0,36.0,60.0,42.0,2.0,-4.0,-13.0,0.0
5.0,-1.0,16.0,-9.0,23.0,41.0,35.0,5.0,-7.0,-1.0,0.0
-3.0,-1.0,14.0,-6.0,20.0,38.0,42.0,11.0,-5.0,-16.0,0.0
5.0,12.0,-1.0,3.0,20.0,27.0,19.0,-1.0,-1.0,0.0,0.0
19.0,25.0,8.0,0.0,14.0,3.0,-12.0,-13.0,18.0,40.0,0.0
36.0,31.0,23.0,21.0,5.0,-24.0,-29.0,-21.0,13.0,56.0,0.0
38.0,20.0,20.0,45.0,12.0,-20.0,-17.0,-21.0,6.0,38.0,0.0
18.0,10.0,12.0,44.0,8.0,-8.0,-4.0,-9.0,-6.0,21.0,0.0
9.0,5.0,-1.0,16.0,1.0,-11.0,-15.0,-4.0,-14.0,7.0,0.0
4.0,-5.0,-13.0,6.0,-17.0,-17.0,-47.0,-2.0,-13.0,7.0,0.0
-11.0,-13.0,-1.0,8.0,-18.0,-5.0,-36.0,-10.0,-18.0,6.0,0.0
-19.0,2.0,10.0,22.0,-12.0,31.0,-16.0,-21.0,-24.0,8.0,0.0
-19.0,3.0,5.0,4.0,-17.0,22.0,-20.0,-19.0,-31.0,16.0,0.0
-5.0,-12.0,-6.0,-6.0,-20.0,-1.0,-17.0,-14.0,-34.0,16.0,0.0
0.0,-11.0,26.0,4.0,-21.0,6.0,-2.0,-13.0,-20.0,17.0,0.0
-2.0,3.0,38.0,14.0,-36.0,6.0,2.0,6.0,-2.0,15.0,0.0
-13.0,-9.0,25.0,18.0,-35.0,1.0,0.0,1.0,3.0,5.0,0.0
-19.0,-24.0,13.0,6.0,-31.0,-1.0,-2.0,-4.0,15.0,5.0,0.0
0.0,-14.0,8.0,-21.0,-16.0,-7.0,5.0,-6.0,52.0,13.0,0.0
23.0,6.0,14.0,-34.0,-29.0,-12.0,3.0,2.0,78.0,10.0,0.0
30.0,17.0,7.0,-29.0,-25.0,-2.0,-4.0,3.0,83.0,16.0,0.0
32.0,18.0,-2.0,-29.0,-18.0,0.0,4.0,-1.0,81.0,24.0,0.0
33.0,21.0,-2.0,-31.0,-18.0,-8.0,10.0,1.0,57.0,17.0,0.0
24.0,28.0,12.0,-22.0,-21.0,-13.0,10.0,-3.0,26.0,5.0,0.0
11.0,29.0,6.0,-10.0,-19.0,-7.0,23.0,-4.0,-1.0,-10.0,0.0
17.0,35.0,5.0,18.0,-6.0,4.0,20.0,-3.0,-21.0,0.0,0.0
28.0,35.0,22.0,62.0,3.0,5.0,2.0,-22.0,-46.0,-10.0,0.0
10.0,20.0,28.0,65.0,8.0,-4.0,-7.0,-33.0,-57.0,-27.0,0.0
-10.0,18.0,7.0,49.0,-1.0,-8.0,-9.0,-16.0,-46.0,-37.0,0.0
-12.0,22.0,3.0,46.0,-5.0,1.0,-8.0,-16.0,-40.0,-42.0,0.0
3.0,21.0,7.0,26.0,-6.0,6.0,-10.0,-12.0,-33.0,-21.0,0.0
11.0,17.0,13.0,3.0,-8.0,-2.0,-17.0,-26.0,-27.0,-11.0,0.0
-5.0,2.0,0.0,-11.0,-9.0,-5.0,-22.0,-30.0,-26.0,-22.0,0.0
-35.0,-14.0,-25.0,-9.0,-12.0,-11.0,-19.0,-25.0,-24.0,-25.0,0.0
-39.0,-26.0,-37.0,-12.0,-17.0,-25.0,-16.0,-19.0,-32.0,-27.0,0.0
-20.0,-11.0,-32.0,-14.0,1.0,-24.0,-11.0,-19.0,-46.0,-24.0,0.0
-13.0,-5.0,-28.0,10.0,29.0,-8.0,-12.0,-32.0,-71.0,-25.0,0.0
-17.0,-4.0,-31.0,44.0,49.0,-5.0,-21.0,-48.0,-82.0,-30.0,0.0
-19.0,-3.0,-31.0,35.0,41.0,-6.0,-23.0,-47.0,-72.0,-38.0,0.0
-21.0,-7.0,-13.0,14.0,36.0,14.0,-11.0,-38.0,-60.0,-58.0,0.0
-48.0,-17.0,-5.0,14.0,35.0,36.0,2.0,-28.0,-53.0,-56.0,0.0
-75.0,-41.0,4.0,12.0,31.0,36.0,14.0,-21.0,-26.0,-49.0,0.0
-51.0,-51.0,-13.0,-6.0,21.0,32.0,25.0,2.0,-10.0,-19.0,0.0
1.0,-3.0,-3.0,-18.0,0.0,37.0,30.0,24.0,13.0,14.0,0.0
53.0,39.0,29.0,-25.0,-34.0,12.0,16.0,30.0,48.0,41.0,0.0
74.0,56.0,27.0,-25.0,-62.0,-19.0,13.0,34.0,79.0,60.0,0.0
58.0,50.0,2.0,-24.0,-66.0,-21.0,21.0,35.0,86.0,34.0,0.0
32.0,21.0,-2.0,-27.0,-55.0,-30.0,26.0,35.0,60.0,-2.0,0.0
27.0,15.0,3.0,-32.0,-59.0,-30.0,10.0,31.0,47.0,-13.0,0.0
19.0,13.0,-16.0,-52.0,-51.0,-19.0,19.0,28.0,50.0,-10.0,0.0
10.0,9.0,5.0,-51.0,-30.0,0.0,18.0,26.0,38.0,-14.0,0.0
-20.0,4.0,52.0,-16.0,-12.0,10.0,18.0,22.0,26.0,-39.0,0.0
-57.0,-8.0,37.0,-15.0,-8.0,38.0,38.0,28.0,41.0,-48.0,0.0
-82.0,-32.0,0.0,-33.0,-4.0,26.0,38.0,43.0,45.0,-31.0,0.0
-70.0,-35.0,-11.0,-36.0,-5.0,7.0,39.0,37.0,38.0,15.0,0.0
-32.0,-23.0,-55.0,-45.0,-15.0,2.0,22.0,29.0,33.0,52.0,0.0
15.0,10.0,-59.0,-26.0,-15.0,-2.0,2.0,4.0,21.0,82.0,0.0
23.0,23.0,-7.0,-4.0,-12.0,-7.0,10.0,-2.0,-16.0,79.0,0.0
0.0,10.0,-4.0,7.0,-3.0,-7.0,2.0,-6.0,-33.0,43.0,0.0
-21.0,5.0,-2.0,0.0,4.0,-6.0,-10.0,-16.0,-25.0,28.0,0.0
-35.0,1.0,-21.0,-8.0,-10.0,-7.0,-4.0,-14.0,-7.0,9.0,0.0
-32.0,11.0,-13.0,2.0,-13.0,0.0,0.0,-4.0,0.0,-1.0,0.0
-19.0,7.0,-13.0,2.0,-12.0,7.0,0.0,5.0,-2.0,0.0,0.0
-13.0,3.0,-22.0,2.0,-13.0,11.0,-3.0,9.0,3.0,1.0,0.0
-11.0,-1.0,-13.0,4.0,-11.0,14.0,8.0,4.0,8.0,-3.0,0.0
-6.0,-2.0,-11.0,0.0,-2.0,10.0,11.0,7.0,14.0,-14.0,0.0
0.0,1.0,-10.0,10.0,-7.0,-2.0,1.0,13.0,11.0,3.0,0.0
4.0,11.0,32.0,21.0,-14.0,-5.0,0.0,7.0,1.0,6.0,0.0
-7.0,22.0,59.0,21.0,-12.0,-1.0,-6.0,2.0,-1.0,-1.0,0.0
-15.0,11.0,54.0,17.0,-4.0,-5.0,0.0,9.0,-10.0,3.0,0.0
-7.0,3.0,38.0,20.0,-1.0,-2.0,8.0,18.0,-5.0,-5.0,0.0
-1.0,12.0,36.0,20.0,4.0,-3.0,24.0,12.0,-14.0,-21.0,0.0
-6.0,7.0,36.0,25.0,8.0,0.0,18.0,8.0,-11.0,-27.0,0.0
-7.0,1.0,27.0,14.0,7.0,4.0,5.0,5.0,-13.0,-28.0,0.0
0.0,1.0,20.0,7.0,1.0,1.0,10.0,7.0,-11.0,-32.0,0.0
6.0,3.0,-14.0,-10.0,-10.0,2.0,19.0,11.0,-21.0,-26.0,0.0
-5.0,2.0,-40.0,-19.0,-3.0,18.0,35.0,9.0,-32.0,-54.0,0.0
-7.0,6.0,-22.0,0.0,8.0,29.0,22.0,0.0,-42.0,-83.0,0.0
-9.0,11.0,14.0,22.0,24.0,34.0,11.0,-14.0,-55.0,-85.0,0.0
-12.0,17.0,11.0,26.0,32.0,30.0,12.0,-16.0,-54.0,-61.0,0.0
-13.0,18.0,20.0,28.0,44.0,22.0,10.0,-11.0,-50.0,-45.0,0.0
-10.0,14.0,25.0,17.0,38.0,22.0,24.0,-8.0,-31.0,-27.0,0.0
-1.0,17.0,12.0,-1.0,25.0,12.0,24.0,12.0,-4.0,-2.0,0.0
7.0,24.0,-8.0,-11.0,9.0,3.0,13.0,20.0,7.0,18.0,0.0
9.0,21.0,6.0,-8.0,-1.0,0.0,9.0,17.0,15.0,21.0,0.0
10.0,23.0,9.0,-9.0,-1.0,0.0,16.0,16.0,11.0,15.0,0.0
14.0,31.0,-2.0,-14.0,5.0,-5.0,11.0,16.0,3.0,15.0,0.0
21.0,13.0,-4.0,7.0,3.0,-18.0,-1.0,12.0,-5.0,0.0,0.0
12.0,-5.0,-5.0,53.0,7.0,0.0,-14.0,9.0,-29.0,-14.0,0.0
-4.0,-20.0,-17.0,60.0,26.0,16.0,-20.0,3.0,-50.0,-30.0,0.0
-23.0,-38.0,-25.0,36.0,36.0,11.0,-12.0,-8.0,-46.0,-49.0,0.0
-36.0,-45.0,-32.0,5.0,15.0,-2.0,-22.0,0.0,-41.0,-45.0,0.0
-33.0,-42.0,-33.0,-11.0,2.0,-12.0,-21.0,-8.0,-32.0,-25.0,0.0
-17.0,-19.0,-27.0,-11.0,5.0,-5.0,-12.0,-11.0,-17.0,2.0,0.0
-9.0,2.0,0.0,0.0,13.0,6.0,-3.0,-7.0,-19.0,2.0,0.0
-4.0,16.0,28.0,-1.0,17.0,19.0,3.0,0.0,-26.0,8.0,0.0
15.0,24.0,50.0,-10.0,9.0,21.0,15.0,14.0,-23.0,18.0,0.0
40.0,29.0,48.0,-28.0,3.0,36.0,27.0,38.0,-4.0,41.0,0.0
52.0,27.0,26.0,-28.0,-5.0,33.0,40.0,39.0,4.0,39.0,0.0
61.0,22.0,3.0,-9.0,-2.0,36.0,46.0,25.0,12.0,30.0,0.0
41.0,22.0,-10.0,-19.0,1.0,31.0,41.0,23.0,2.0,22.0,0.0
39.0,20.0,-16.0,-41.0,3.0,16.0,23.0,10.0,-2.0,34.0,0.0
53.0,16.0,-19.0,-60.0,-20.0,-10.0,13.0,2.0,12.0,62.0,0.0
50.0,9.0,-12.0,-62.0,-21.0,-11.0,13.0,11.0,26.0,56.0,0.0
24.0,-1.0,10.0,-56.0,-23.0,-1.0,10.0,18.0,45.0,42.0,0.0
-3.0,-2.0,27.0,-58.0,-35.0,-1.0,9.0,29.0,78.0,39.0,0.0
-6.0,-18.0,-21.0,-70.0,-34.0,-7.0,0.0,27.0,95.0,33.0,0.0
-23.0,-28.0,-32.0,-60.0,-31.0,-12.0,-12.0,6.0,66.0,7.0,0.0
-44.0,-33.0,-16.0,-37.0,-22.0,-16.0,-22.0,5.0,18.0,-13.0,0.0
-28.0,-32.0,2.0,-7.0,-22.0,-6.0,-29.0,-3.0,26.0,8.0,0.0
-2.0,-24.0,10.0,9.0,-16.0,-9.0,-39.0,-22.0,63.0,41.0,0.0
-13.0,-18.0,12.0,11.0,-10.0,1.0,-22.0,-25.0,60.0,28.0,0.0
-23.0,-7.0,13.0,10.0,0.0,6.0,1.0,-10.0,55.0,4.0,0.0
-19.0,-12.0,12.0,9.0,8.0,16.0,21.0,0.0,62.0,-10.0,0.0
-15.0,-17.0,9.0,0.0,6.0,32.0,32.0,12.0,53.0,6.0,0.0
3.0,-25.0,6.0,8.0,8.0,39.0,26.0,15.0,19.0,41.0,0.0
23.0,-12.0,14.0,18.0,17.0,38.0,35.0,17.0,5.0,40.0,0.0
43.0,1.0,9.0,29.0,21.0,34.0,19.0,13.0,-12.0,36.0,0.0
52.0,16.0,12.0,45.0,22.0,31.0,1.0,-2.0,-28.0,51.0,0.0
38.0,22.0,1.0,52.0,31.0,34.0,14.0,-12.0,-32.0,42.0,0.0
22.0,19.0,-5.0,49.0,41.0,32.0,25.0,-13.0,-31.0,16.0,0.0
24.0,16.0,2.0,43.0,30.0,15.0,7.0,-22.0,-34.0,6.0,0.0
27.0,9.0,11.0,22.0,11.0,1.0,0.0,-25.0,-32.0,2.0,0.0
22.0,11.0,9.0,19.0,-3.0,-1.0,14.0,-16.0,-11.0,0.0,0.0
12.0,23.0,-4.0,32.0,-7.0,1.0,9.0,-18.0,1.0,7.0,0.0
25.0,29.0,6.0,17.0,-9.0,3.0,-1.0,-17.0,10.0,16.0,0.0
44.0,22.0,4.0,7.0,-18.0,-3.0,-11.0,-15.0,17.0,29.0,0.0
45.0,12.0,3.0,6.0,-19.0,-3.0,-10.0,-14.0,18.0,35.0,0.0
47.0,6.0,16.0,18.0,-12.0,-17.0,-17.0,-25.0,37.0,36.0,0.0
47.0,-1.0,2.0,20.0,-10.0,-19.0,-20.0,-20.0,34.0,38.0,0.0
42.0,-12.0,-5.0,24.0,-14.0,-6.0,-16.0,-13.0,22.0,33.0,0.0
16.0,-13.0,0.0,22.0,-6.0,-2.0,-15.0,-9.0,8.0,24.0,0.0
9.0,-7.0,-2.0,16.0,0.0,-5.0,-11.0,-6.0,-1.0,25.0,0.0
30.0,11.0,-3.0,10.0,2.0,-14.0,-9.0,-1.0,10.0,29.0,0.0
50.0,14.0,-4.0,2.0,0.0,-16.0,16.0,11.0,18.0,43.0,0.0
39.0,-14.0,-15.0,8.0,-2.0,-13.0,23.0,15.0,6.0,48.0,0.0
-25.0,-58.0,-18.0,19.0,14.0,-3.0,14.0,11.0,2.0,14.0,0.0
-77.0,-74.0,-17.0,28.0,25.0,1.0,15.0,14.0,-4.0,-20.0,0.0
-95.0,-73.0,-5.0,17.0,30.0,15.0,27.0,25.0,6.0,-33.0,0.0
-72.0,-53.0,3.0,5.0,27.0,13.0,23.0,19.0,25.0,-15.0,0.0
-36.0,-20.0,24.0,-11.0,17.0,8.0,8.0,23.0,41.0,10.0,0.0
-11.0,1.0,30.0,-8.0,5.0,21.0,21.0,14.0,48.0,13.0,0.0
-2.0,3.0,28.0,8.0,6.0,28.0,18.0,19.0,53.0,13.0,0.0
3.0,8.0,33.0,11.0,14.0,21.0,10.0,26.0,50.0,12.0,0.0
-2.0,15.0,33.0,8.0,-1.0,16.0,23.0,29.0,33.0,4.0,0.0
-23.0,0.0,20.0,6.0,-12.0,1.0,21.0,31.0,7.0,-9.0,0.0
-36.0,-18.0,2.0,6.0,-5.0,3.0,7.0,30.0,-7.0,-24.0,0.0
-17.0,-14.0,-20.0,6.0,1.0,7.0,-1.0,21.0,0.0,-2.0,0.0
-6.0,-12.0,-17.0,22.0,4.0,-2.0,0.0,23.0,1.0,-16.0,0.0
4.0,-12.0,-11.0,36.0,15.0,-20.0,-3.0,13.0,23.0,6.0,0.0
18.0,-7.0,-7.0,74.0,28.0,-25.0,-23.0,14.0,36.0,43.0,0.0
9.0,7.0,4.0,79.0,26.0,-21.0,-17.0,17.0,-1.0,11.0,0.0
6.0,22.0,21.0,56.0,19.0,-22.0,-2.0,6.0,-21.0,-18.0,0.0
4.0,14.0,22.0,34.0,4.0,-28.0,5.0,5.0,-15.0,-21.0,0.0
-15.0,-18.0,8.0,24.0,1.0,-23.0,-8.0,6.0,-22.0,-26.0,0.0
-13.0,-30.0,4.0,28.0,5.0,-17.0,-22.0,10.0,-9.0,-19.0,0.0
-3.0,-19.0,6.0,25.0,17.0,7.0,-8.0,-3.0,-1.0,-22.0,0.0
-10.0,-13.0,-5.0,-8.0,29.0,15.0,11.0,-3.0,-8.0,-45.0,0.0
-13.0,-19.0,-18.0,-38.0,32.0,22.0,18.0,7.0,-13.0,-44.0,0.0
-6.0,-25.0,-37.0,-68.0,13.0,10.0,17.0,9.0,-2.0,-16.0,0.0
11.0,-11.0,-45.0,-78.0,-16.0,-18.0,17.0,12.0,0.0,10.0,0.0
31.0,0.0,-39.0,-52.0,-7.0,-27.0,6.0,17.0,7.0,11.0,0.0
41.0,15.0,-18.0,-32.0,-12.0,-19.0,5.0,11.0,12.0,-2.0,0.0
36.0,12.0,-5.0,-24.0,-16.0,-18.0,18.0,6.0,-8.0,-21.0,0.0
37.0,22.0,-1.0,-13.0,-9.0,5.0,20.0,3.0,-5.0,-15.0,0.0
41.0,97.0,12.0,25.0,-18.0,149.0,91.0,1.0,106.0,59.0,0.0
26.0,121.0,23.0,64.0,-15.0,246.0,168.0,7.0,195.0,100.0,0.0
20.0,74.0,28.0,56.0,-11.0,204.0,162.0,16.0,164.0,74.0,0.0
23.0,71.0,33.0,63.0,-2.0,192.0,163.0,31.0,162.0,74.0,0.0
26.0,77.0,24.0,70.0,8.0,225.0,165.0,27.0,170.0,84.0,0.0
21.0,68.0,10.0,58.0,16.0,209.0,147.0,24.0,145.0,61.0,0.0
20.0,60.0,-7.0,67.0,13.0,209.0,130.0,13.0,144.0,79.0,0.0
40.0,59.0,-9.0,58.0,13.0,191.0,119.0,-8.0,152.0,110.0,0.0
31.0,45.0,-6.0,27.0,22.0,153.0,93.0,-2.0,131.0,93.0,0.0
11.0,38.0,13.0,38.0,16.0,155.0,89.0,-11.0,115.0,65.0,0.0
7.0,38.0,25.0,47.0,10.0,143.0,82.0,-11.0,95.0,45.0,0.0
6.0,39.0,13.0,42.0,20.0,133.0,66.0,-9.0,66.0,24.0,0.0
-7.0,43.0,14.0,41.0,25.0,125.0,65.0,-14.0,55.0,13.0,0.0
-28.0,26.0,23.0,42.0,18.0,110.0,53.0,-17.0,40.0,-6.0,0.0
-33.0,7.0,11.0,25.0,5.0,73.0,26.0,-26.0,9.0,-33.0,0.0
-39.0,-52.0,2.0,-51.0,-16.0,-113.0,-62.0,-43.0,-133.0,-101.0,0.0
-36.0,-77.0,-5.0,-88.0,-22.0,-208.0,-102.0,-43.0,-197.0,-142.0,0.0
-19.0,-72.0,-2.0,-88.0,-22.0,-212.0,-93.0,-31.0,-177.0,-129.0,0.0
-15.0,-61.0,-6.0,-85.0,-26.0,-213.0,-92.0,-17.0,-138.0,-103.0,0.0
-3.0,-51.0,-14.0,-73.0,-13.0,-202.0,-101.0,-16.0,-103.0,-84.0,0.0
-1.0,-46.0,-21.0,-67.0,-9.0,-193.0,-92.0,-10.0,-99.0,-85.0,0.0
-6.0,-60.0,-18.0,-74.0,-17.0,-172.0,-73.0,-5.0,-104.0,-87.0,0.0
-23.0,-60.0,-23.0,-75.0,-19.0,-167.0,-66.0,3.0,-109.0,-91.0,0.0
-17.0,-49.0,-29.0,-68.0,-18.0,-157.0,-80.0,1.0,-115.0,-76.0,0.0
-16.0,-40.0,-14.0,-58.0,-28.0,-152.0,-85.0,-4.0,-110.0,-73.0,0.0
-19.0,-35.0,-14.0,-56.0,-32.0,-147.0,-93.0,-16.0,-107.0,-65.0,0.0
-11.0,-40.0,-22.0,-55.0,-30.0,-141.0,-99.0,-28.0,-98.0,-54.0,0.0
-24.0,-43.0,-21.0,-54.0,-27.0,-135.0,-99.0,-32.0,-68.0,-54.0,0.0
-41.0,-42.0,-18.0,-33.0,-19.0,-129.0,-98.0,-22.0,-32.0,-62.0,0.0
-29.0,-47.0,0.0,-29.0,-7.0,-122.0,-90.0,-10.0,5.0,-61.0,0.0
-37.0,-40.0,12.0,-33.0,-2.0,-100.0,-78.0,-5.0,3.0,-58.0,0.0
-30.0,-31.0,10.0,-40.0,1.0,-88.0,-68.0,-3.0,-9.0,-36.0,0.0
-17.0,-26.0,0.0,-42.0,-4.0,-104.0,-56.0,-1.0,-24.0,-19.0,0.0
-2.0,-16.0,-9.0,-41.0,-15.0,-102.0,-58.0,-1.0,-33.0,18.0,0.0
5.0,-9.0,-17.0,-43.0,-21.0,-92.0,-53.0,-4.0,-38.0,30.0,0.0
1.0,0.0,-12.0,-28.0,-20.0,-83.0,-52.0,-13.0,-52.0,16.0,0.0
5.0,13.0,-1.0,-18.0,-10.0,-65.0,-51.0,-12.0,-73.0,0.0,0.0
7.0,3.0,0.0,-20.0,2.0,-66.0,-47.0,0.0,-60.0,-14.0,0.0
5.0,-2.0,7.0,-11.0,0.0,-69.0,-43.0,7.0,-43.0,-32.0,0.0
-6.0,-1.0,30.0,7.0,4.0,-50.0,-40.0,0.0,-47.0,-46.0,0.0
-7.0,6.0,61.0,11.0,14.0,-45.0,-29.0,0.0,-39.0,-43.0,0.0
0.0,17.0,49.0,4.0,21.0,-35.0,-20.0,18.0,-35.0,-30.0,0.0
0.0,13.0,12.0,-6.0,27.0,-25.0,-29.0,20.0,-30.0,-31.0,0.0
5.0,12.0,-29.0,-12.0,28.0,-5.0,-27.0,18.0,-33.0,-38.0,0.0
-8.0,21.0,5.0,6.0,22.0,-11.0,-23.0,5.0,-40.0,-47.0,0.0
-15.0,18.0,27.0,10.0,9.0,-18.0,-23.0,0.0,-41.0,-58.0,0.0
-20.0,16.0,21.0,0.0,11.0,-12.0,-37.0,0.0,-56.0,-65.0,0.0
-11.0,18.0,23.0,8.0,7.0,-12.0,-39.0,0.0,-42.0,-38.0,0.0
-1.0,18.0,27.0,17.0,9.0,-16.0,-38.0,0.0,-10.0,0.0,0.0
0.0,1.0,21.0,1.0,6.0,-21.0,-44.0,-6.0,-10.0,3.0,0.0
7.0,0.0,6.0,-12.0,-4.0,-24.0,-36.0,-7.0,-14.0,-1.0,0.0
18.0,-11.0,-3.0,-24.0,-10.0,-27.0,-26.0,-3.0,-25.0,-15.0,0.0
17.0,-21.0,-9.0,-22.0,-8.0,-24.0,-20.0,12.0,-29.0,-23.0,0.0
22.0,-17.0,-11.0,-14.0,-4.0,-17.0,-19.0,11.0,-9.0,-4.0,0.0
31.0,0.0,-4.0,-1.0,4.0,-18.0,-23.0,20.0,6.0,32.0,0.0
26.0,11.0,-9.0,-9.0,0.0,-23.0,-24.0,25.0,16.0,29.0,0.0
16.0,-2.0,-22.0,-17.0,-11.0,-31.0,-28.0,39.0,5.0,0.0,0.0
21.0,-2.0,-15.0,-18.0,-18.0,-30.0,-33.0,47.0,0.0,-11.0,0.0
8.0,-3.0,-7.0,-10.0,-19.0,-20.0,-17.0,42.0,-11.0,-21.0,0.0
-6.0,2.0,-12.0,-6.0,-18.0,-4.0,-13.0,35.0,-9.0,-22.0,0.0
11.0,8.0,0.0,-2.0,-24.0,-15.0,-20.0,32.0,-6.0,1.0,0.0
43.0,16.0,15.0,4.0,-22.0,-24.0,-30.0,18.0,6.0,38.0,0.0
49.0,35.0,20.0,12.0,-14.0,-31.0,-32.0,-5.0,10.0,46.0,0.0
38.0,45.0,26.0,12.0,-3.0,-28.0,-22.0,-3.0,-7.0,17.0,0.0
31.0,37.0,20.0,13.0,-13.0,-25.0,-26.0,-7.0,-19.0,3.0,0.0
27.0,28.0,18.0,17.0,-14.0,-27.0,-23.0,-8.0,-20.0,5.0,0.0
25.0,21.0,18.0,14.0,-8.0,-17.0,-14.0,8.0,-11.0,0.0,0.0
17.0,13.0,10.0,10.0,-5.0,-2.0,-15.0,17.0,-16.0,7.0,0.0
12.0,2.0,-1.0,3.0,-8.0,5.0,-13.0,16.0,-29.0,21.0,0.0
1.0,-5.0,-8.0,0.0,-7.0,0.0,3.0,12.0,-32.0,11.0,0.0
0.0,-5.0,-16.0,-2.0,4.0,12.0,17.0,18.0,-23.0,10.0,0.0
8.0,-9.0,-25.0,3.0,0.0,16.0,14.0,16.0,-14.0,24.0,0.0
16.0,1.0,-21.0,9.0,-2.0,11.0,10.0,16.0,-13.0,26.0,0.0
21.0,0.0,-22.0,6.0,1.0,-4.0,10.0,12.0,-11.0,10.0,0.0
19.0,-9.0,-33.0,13.0,0.0,-3.0,2.0,10.0,-15.0,-4.0,0.0
9.0,-8.0,-33.0,14.0,-13.0,-2.0,3.0,3.0,-31.0,-16.0,0.0
9.0,6.0,-31.0,0.0,-17.0,1.0,-2.0,-6.0,-38.0,-19.0,0.0
8.0,27.0,-19.0,-7.0,-13.0,-2.0,-7.0,-17.0,-27.0,-19.0,0.0
5.0,41.0,-8.0,0.0,-11.0,-6.0,-10.0,-29.0,-26.0,-19.0,0.0
10.0,48.0,4.0,-8.0,-14.0,-12.0,-16.0,-35.0,-26.0,2.0,0.0
23.0,36.0,6.0,-17.0,-14.0,-16.0,-26.0,-39.0,-10.0,40.0,0.0
21.0,29.0,3.0,-25.0,-24.0,-11.0,-17.0,-41.0,-18.0,42.0,0.0
6.0,10.0,8.0,-26.0,-24.0,-10.0,-3.0,-45.0,-27.0,14.0,0.0
-24.0,-7.0,20.0,-14.0,-21.0,-4.0,4.0,-44.0,-41.0,-5.0,0.0
-50.0,-18.0,22.0,-1.0,-8.0,4.0,8.0,-32.0,-42.0,-27.0,0.0
-58.0,-33.0,5.0,7.0,9.0,15.0,13.0,-15.0,-39.0,-43.0,0.0
-36.0,-30.0,1.0,17.0,6.0,10.0,9.0,-20.0,-37.0,-26.0,0.0
-27.0,-26.0,-9.0,4.0,0.0,-6.0,11.0,-19.0,-27.0,-4.0,0.0
-17.0,-19.0,-6.0,-5.0,-10.0,-12.0,0.0,-20.0,-15.0,-8.0,0.0
8.0,-16.0,-1.0,-7.0,-16.0,-20.0,-5.0,-23.0,-1.0,3.0,0.0
18.0,2.0,4.0,-15.0,-22.0,-19.0,-1.0,-35.0,13.0,-7.0,0.0
5.0,6.0,14.0,2.0,-30.0,-18.0,0.0,-33.0,25.0,-27.0,0.0
-4.0,4.0,14.0,12.0,-29.0,-19.0,-10.0,-27.0,37.0,-25.0,0.0
-1.0,-6.0,8.0,7.0,-31.0,-20.0,-19.0,-26.0,44.0,-18.0,0.0
-19.0,-25.0,2.0,1.0,-42.0,-16.0,-25.0,-14.0,56.0,15.0,0.0
-46.0,-52.0,-16.0,-5.0,-30.0,-10.0,-16.0,-4.0,79.0,50.0,0.0
-56.0,-81.0,-31.0,-14.0,-15.0,0.0,1.0,3.0,100.0,67.0,0.0
-68.0,-78.0,-30.0,2.0,-3.0,0.0,6.0,5.0,101.0,54.0,0.0
-77.0,-71.0,-20.0,8.0,-12.0,11.0,6.0,1.0,64.0,36.0,0.0
-90.0,-63.0,-11.0,7.0,-7.0,23.0,11.0,-3.0,24.0,18.0,0.0
-70.0,-41.0,-7.0,6.0,0.0,29.0,19.0,4.0,30.0,5.0,0.0
-51.0,-26.0,-17.0,9.0,4.0,30.0,14.0,21.0,25.0,-9.0,0.0
-35.0,-16.0,-48.0,5.0,17.0,32.0,26.0,26.0,8.0,-8.0,0.0
-32.0,-13.0,-54.0,-8.0,23.0,29.0,34.0,18.0,-1.0,-20.0,0.0
-31.0,-7.0,-27.0,13.0,20.0,20.0,43.0,18.0,-4.0,-32.0,0.0
-17.0,-13.0,-13.0,31.0,14.0,23.0,35.0,19.0,12.0,-19.0,0.0
-7.0,-4.0,-26.0,54.0,11.0,24.0,21.0,3.0,29.0,14.0,0.0
2.0,10.0,-16.0,82.0,-2.0,30.0,10.0,-3.0,25.0,18.0,0.0
-7.0,0.0,-2.0,69.0,-12.0,29.0,4.0,4.0,25.0,10.0,0.0
-21.0,-6.0,0.0,38.0,-18.0,25.0,2.0,5.0,10.0,2.0,0.0
-30.0,0.0,9.0,17.0,-10.0,12.0,2.0,-4.0,0.0,-23.0,0.0
-42.0,-21.0,12.0,0.0,-13.0,11.0,-9.0,-7.0,-11.0,-56.0,0.0
-34.0,-41.0,14.0,-12.0,-11.0,21.0,-14.0,-4.0,-14.0,-52.0,0.0
-22.0,-24.0,10.0,-25.0,-14.0,13.0,-25.0,0.0,-2.0,-1.0,0.0
-12.0,-14.0,0.0,-40.0,-10.0,18.0,-17.0,-3.0,-3.0,-9.0,0.0
-3.0,-17.0,-21.0,-45.0,-2.0,25.0,-14.0,-2.0,-2.0,-39.0,0.0
5.0,-19.0,-18.0,-59.0,-10.0,24.0,-5.0,-1.0,-8.0,-32.0,0.0
16.0,-5.0,-10.0,-62.0,-7.0,11.0,14.0,4.0,8.0,-7.0,0.0
33.0,12.0,0.0,-50.0,0.0,4.0,18.0,5.0,27.0,16.0,0.0
38.0,0.0,-1.0,-28.0,4.0,6.0,5.0,0.0,31.0,34.0,0.0
32.0,-11.0,-20.0,-29.0,3.0,0.0,0.0,-4.0,20.0,39.0,0.0
33.0,-1.0,3.0,-43.0,-16.0,-26.0,-12.0,1.0,24.0,27.0,0.0
40.0,17.0,3.0,-36.0,-14.0,-22.0,0.0,16.0,29.0,11.0,0.0
29.0,23.0,-17.0,-25.0,-1.0,-6.0,5.0,33.0,45.0,-3.0,0.0
8.0,26.0,-8.0,-2.0,7.0,7.0,13.0,17.0,79.0,-15.0,0.0
-14.0,24.0,7.0,7.0,12.0,19.0,13.0,3.0,70.0,-28.0,0.0
-18.0,16.0,11.0,13.0,13.0,23.0,-2.0,-7.0,46.0,-31.0,0.0
0.0,19.0,13.0,11.0,11.0,11.0,-14.0,-6.0,28.0,-20.0,0.0
20.0,22.0,6.0,7.0,19.0,3.0,-17.0,-3.0,28.0,-5.0,0.0
18.0,12.0,-7.0,-10.0,6.0,-5.0,-26.0,6.0,15.0,-5.0,0.0
12.0,3.0,-11.0,-23.0,-1.0,-5.0,-24.0,14.0,-10.0,-17.0,0.0
6.0,5.0,-12.0,-10.0,9.0,5.0,-15.0,4.0,-46.0,-36.0,0.0
-4.0,-9.0,-22.0,-8.0,8.0,4.0,-6.0,-9.0,-47.0,-52.0,0.0
-3.0,-12.0,-20.0,-15.0,0.0,6.0,1.0,-4.0,-21.0,-48.0,0.0
0.0,-2.0,-7.0,-10.0,4.0,1.0,4.0,6.0,0.0,-47.0,0.0
5.0,-6.0,15.0,1.0,4.0,-9.0,9.0,11.0,2.0,-20.0,0.0
11.0,-3.0,27.0,3.0,3.0,-13.0,4.0,4.0,10.0,29.0,0.0
11.0,10.0,31.0,16.0,7.0,-5.0,4.0,21.0,7.0,30.0,0.0
-9.0,7.0,29.0,27.0,12.0,6.0,22.0,14.0,-11.0,2.0,0.0
-27.0,0.0,15.0,42.0,26.0,5.0,20.0,6.0,-21.0,-29.0,0.0
-22.0,0.0,10.0,68.0,40.0,11.0,26.0,0.0,-8.0,-28.0,0.0
-9.0,25.0,24.0,78.0,34.0,23.0,41.0,-5.0,7.0,0.0,0.0
-17.0,29.0,22.0,40.0,27.0,20.0,34.0,-10.0,-14.0,-9.0,0.0
-30.0,12.0,17.0,24.0,19.0,24.0,13.0,-20.0,-34.0,-24.0,0.0
-43.0,-13.0,5.0,27.0,21.0,30.0,-2.0,-32.0,-46.0,-41.0,0.0
-44.0,-24.0,-10.0,22.0,26.0,37.0,-6.0,-38.0,-37.0,-39.0,0.0
-24.0,-10.0,-15.0,9.0,23.0,23.0,-10.0,-35.0,-11.0,-15.0,0.0
-1.0,15.0,-10.0,-9.0,8.0,9.0,-3.0,-24.0,21.0,-1.0,0.0
9.0,30.0,4.0,-19.0,-9.0,1.0,-3.0,-24.0,23.0,19.0,0.0
23.0,46.0,42.0,-12.0,-19.0,-19.0,-14.0,-28.0,23.0,51.0,0.0
48.0,54.0,60.0,-17.0,-36.0,-24.0,-11.0,-9.0,33.0,63.0,0.0
64.0,50.0,59.0,-23.0,-37.0,-35.0,-5.0,0.0,43.0,63.0,0.0
67.0,44.0,50.0,-21.0,-37.0,-45.0,-13.0,3.0,35.0,49.0,0.0
55.0,28.0,28.0,-21.0,-33.0,-37.0,-23.0,3.0,18.0,38.0,0.0
44.0,20.0,29.0,-25.0,-33.0,-28.0,-23.0,5.0,8.0,32.0,0.0
38.0,16.0,28.0,-16.0,-20.0,-38.0,-10.0,5.0,13.0,33.0,0.0
23.0,8.0,32.0,-2.0,-2.0,-28.0,-11.0,17.0,20.0,30.0,0.0
2.0,3.0,24.0,4.0,11.0,-7.0,-8.0,26.0,10.0,24.0,0.0
5.0,12.0,29.0,8.0,8.0,-6.0,-7.0,21.0,-6.0,7.0,0.0
8.0,17.0,30.0,1.0,3.0,-8.0,-14.0,17.0,-10.0,-11.0,0.0
17.0,29.0,14.0,3.0,6.0,-18.0,-16.0,3.0,1.0,7.0,0.0
46.0,49.0,7.0,-8.0,-2.0,-15.0,-18.0,2.0,1.0,27.0,0.0
41.0,40.0,0.0,-4.0,1.0,-4.0,-27.0,7.0,5.0,36.0,0.0
13.0,22.0,19.0,6.0,14.0,0.0,-17.0,-1.0,-6.0,25.0,0.0
-8.0,18.0,34.0,16.0,22.0,1.0,-10.0,-7.0,-23.0,-13.0,0.0
-23.0,-3.0,23.0,27.0,23.0,4.0,4.0,-9.0,-33.0,-26.0,0.0
-48.0,-31.0,24.0,50.0,26.0,17.0,2.0,0.0,-44.0,-24.0,0.0
-76.0,-61.0,28.0,41.0,27.0,27.0,6.0,9.0,-32.0,-22.0,0.0
-55.0,-61.0,22.0,27.0,18.0,8.0,-3.0,17.0,-35.0,-24.0,0.0
-39.0,-36.0,15.0,19.0,3.0,-3.0,-9.0,20.0,-30.0,-27.0,0.0
-15.0,-30.0,11.0,10.0,6.0,-19.0,-7.0,17.0,-13.0,-22.0,0.0
4.0,-36.0,-50.0,-26.0,2.0,-30.0,5.0,30.0,27.0,2.0,0.0
11.0,-37.0,-85.0,-63.0,-12.0,-30.0,4.0,35.0,83.0,2.0,0.0
12.0,-28.0,-38.0,-48.0,-25.0,-34.0,0.0,23.0,114.0,3.0,0.0
18.0,-16.0,18.0,3.0,-21.0,-34.0,-3.0,19.0,101.0,1.0,0.0
13.0,-17.0,50.0,82.0,-3.0,-32.0,-22.0,12.0,63.0,-3.0,0.0
-12.0,-13.0,51.0,141.0,16.0,-17.0,-19.0,1.0,29.0,-14.0,0.0
-8.0,-8.0,47.0,147.0,40.0,2.0,-10.0,-9.0,-9.0,-32.0,0.0
-11.0,-16.0,27.0,122.0,39.0,22.0,0.0,-10.0,-51.0,-34.0,0.0
-2.0,-12.0,21.0,84.0,38.0,19.0,0.0,-5.0,-74.0,-46.0,0.0
29.0,0.0,51.0,68.0,46.0,6.0,-11.0,-18.0,-56.0,-21.0,0.0
32.0,-9.0,54.0,51.0,44.0,1.0,-14.0,-6.0,-28.0,7.0,0.0
27.0,-24.0,24.0,-19.0,24.0,3.0,4.0,7.0,-11.0,17.0,0.0
21.0,-23.0,9.0,-85.0,-12.0,14.0,24.0,19.0,16.0,33.0,0.0
49.0,-8.0,-41.0,-163.0,-48.0,12.0,41.0,53.0,46.0,62.0,0.0
74.0,25.0,-95.0,-209.0,-63.0,6.0,54.0,79.0,60.0,70.0,0.0
66.0,30.0,-84.0,-162.0,-46.0,2.0,42.0,58.0,37.0,50.0,0.0
34.0,26.0,-56.0,-103.0,-23.0,-5.0,34.0,36.0,11.0,18.0,0.0
32.0,36.0,-51.0,-76.0,-13.0,-2.0,28.0,13.0,11.0,-1.0,0.0
48.0,48.0,-44.0,-67.0,-10.0,-8.0,11.0,-3.0,11.0,11.0,0.0
36.0,29.0,-35.0,-57.0,-3.0,-22.0,-5.0,-12.0,10.0,21.0,0.0
-3.0,-15.0,-45.0,-45.0,-5.0,-23.0,-6.0,-11.0,3.0,11.0,0.0
-43.0,-49.0,-51.0,-19.0,3.0,-3.0,-13.0,1.0,5.0,-8.0,0.0
-30.0,-55.0,-33.0,-4.0,16.0,-2.0,-8.0,19.0,4.0,-6.0,0.0
-21.0,-49.0,7.0,13.0,13.0,2.0,-5.0,34.0,-3.0,-3.0,0.0
-28.0,-37.0,40.0,28.0,8.0,6.0,-12.0,18.0,-27.0,-29.0,0.0
-32.0,-38.0,42.0,31.0,-3.0,2.0,-15.0,-15.0,-36.0,-41.0,0.0
-31.0,-35.0,21.0,24.0,-6.0,12.0,-8.0,-4.0,-30.0,-34.0,0.0
-36.0,-34.0,16.0,23.0,-3.0,8.0,-1.0,-1.0,-30.0,-14.0,0.0
-24.0,-24.0,13.0,11.0,-3.0,7.0,-2.0,9.0,-3.0,29.0,0.0
-23.0,-22.0,12.0,1.0,-3.0,11.0,-2.0,26.0,20.0,45.0,0.0
-23.0,-20.0,3.0,-4.0,-7.0,17.0,0.0,33.0,27.0,36.0,0.0
-4.0,0.0,8.0,12.0,-1.0,15.0,2.0,30.0,16.0,28.0,0.0
12.0,5.0,17.0,23.0,-3.0,13.0,3.0,26.0,9.0,19.0,0.0
19.0,1.0,18.0,20.0,-14.0,-2.0,-8.0,20.0,2.0,37.0,0.0
23.0,0.0,12.0,2.0,-18.0,-5.0,-15.0,12.0,9.0,37.0,0.0
28.0,4.0,10.0,2.0,-13.0,-3.0,-18.0,7.0,9.0,36.0,0.0
33.0,1.0,23.0,0.0,-7.0,-8.0,-17.0,5.0,17.0,23.0,0.0
16.0,-17.0,28.0,0.0,-5.0,3.0,-18.0,11.0,2.0,5.0,0.0
-10.0,-16.0,16.0,10.0,-5.0,0.0,-17.0,20.0,-16.0,-4.0,0.0
-18.0,-13.0,-6.0,14.0,-3.0,1.0,-21.0,18.0,-17.0,-18.0,0.0
-25.0,-9.0,-37.0,8.0,-11.0,3.0,-5.0,6.0,-38.0,-42.0,0.0
-28.0,-7.0,-44.0,19.0,-8.0,-2.0,1.0,-6.0,-31.0,-52.0,0.0
-4.0,0.0,-25.0,29.0,0.0,0.0,-2.0,-18.0,-2.0,-20.0,0.0
10.0,4.0,-20.0,25.0,9.0,5.0,-3.0,-12.0,37.0,-1.0,0.0
20.0,0.0,-30.0,10.0,12.0,10.0,4.0,-12.0,52.0,20.0,0.0
24.0,7.0,-31.0,13.0,23.0,13.0,13.0,-1.0,56.0,14.0,0.0
30.0,31.0,-31.0,27.0,34.0,11.0,14.0,2.0,39.0,17.0,0.0
25.0,33.0,-16.0,27.0,24.0,11.0,12.0,6.0,8.0,10.0,0.0
30.0,33.0,-18.0,16.0,11.0,11.0,10.0,6.0,0.0,14.0,0.0
45.0,31.0,-28.0,8.0,-3.0,2.0,9.0,-2.0,-5.0,31.0,0.0
59.0,34.0,-20.0,0.0,-6.0,-13.0,0.0,0.0,-20.0,50.0,0.0
27.0,9.0,-9.0,-11.0,-2.0,-23.0,-6.0,-16.0,-42.0,38.0,0.0
-17.0,-15.0,-8.0,-25.0,4.0,-21.0,-12.0,-20.0,-37.0,12.0,0.0
-15.0,-11.0,-3.0,-23.0,0.0,-9.0,-10.0,-12.0,-23.0,4.0,0.0
-3.0,2.0,-6.0,-13.0,10.0,3.0,-3.0,-16.0,-13.0,4.0,0.0
2.0,8.0,0.0,0.0,17.0,10.0,1.0,-22.0,-19.0,4.0,0.0
4.0,12.0,16.0,3.0,2.0,10.0,-5.0,-20.0,-18.0,10.0,0.0
-10.0,27.0,32.0,9.0,-9.0,1.0,-15.0,-33.0,-18.0,7.0,0.0
-10.0,42.0,36.0,29.0,4.0,4.0,-8.0,-39.0,-16.0,3.0,0.0
-6.0,30.0,29.0,29.0,14.0,12.0,0.0,-34.0,-22.0,8.0,0.0
0.0,22.0,22.0,9.0,0.0,22.0,7.0,-13.0,-3.0,9.0,0.0
11.0,20.0,-8.0,-23.0,-19.0,25.0,10.0,-5.0,4.0,11.0,0.0
-24.0,1.0,-30.0,-32.0,-35.0,17.0,17.0,1.0,-6.0,1.0,0.0
-69.0,-13.0,-46.0,-6.0,-27.0,13.0,18.0,-10.0,-24.0,-37.0,0.0
-55.0,4.0,-43.0,5.0,-19.0,6.0,16.0,-21.0,-23.0,-19.0,0.0
-25.0,23.0,-24.0,11.0,-9.0,0.0,16.0,-26.0,-20.0,30.0,0.0
-32.0,9.0,-25.0,7.0,-4.0,7.0,22.0,-26.0,-18.0,23.0,0.0
-56.0,-28.0,-43.0,9.0,-5.0,10.0,28.0,-29.0,-27.0,-3.0,0.0
-62.0,-40.0,-47.0,8.0,-14.0,10.0,41.0,-16.0,-34.0,-30.0,0.0
-66.0,-32.0,-43.0,8.0,-10.0,15.0,42.0,-10.0,-26.0,-43.0,0.0
-72.0,-28.0,-24.0,6.0,-6.0,10.0,21.0,-11.0,-42.0,-54.0,0.0
-57.0,-13.0,-6.0,4.0,-9.0,-5.0,-4.0,-32.0,-54.0,-45.0,0.0
-26.0,3.0,5.0,8.0,-12.0,-9.0,-13.0,-58.0,-63.0,-18.0,0.0
-32.0,-4.0,1.0,17.0,-9.0,0.0,-7.0,-57.0,-70.0,-32.0,0.0
-60.0,-28.0,-14.0,28.0,6.0,12.0,-2.0,-50.0,-49.0,-51.0,0.0
-58.0,-27.0,-17.0,35.0,10.0,15.0,-12.0,-40.0,6.0,-32.0,0.0
-29.0,-20.0,-9.0,30.0,4.0,6.0,-23.0,-31.0,67.0,0.0,0.0
-21.0,-16.0,-1.0,32.0,10.0,0.0,-12.0,-22.0,97.0,20.0,0.0
-26.0,-11.0,3.0,34.0,9.0,-1.0,2.0,-9.0,83.0,19.0,0.0
-20.0,-1.0,12.0,21.0,3.0,-9.0,5.0,16.0,62.0,16.0,0.0
2.0,-1.0,37.0,19.0,13.0,2.0,11.0,25.0,30.0,21.0,0.0
18.0,19.0,87.0,30.0,35.0,13.0,17.0,16.0,-7.0,27.0,0.0
39.0,57.0,122.0,19.0,35.0,19.0,30.0,21.0,-45.0,37.0,0.0
53.0,63.0,66.0,0.0,28.0,19.0,35.0,26.0,-34.0,45.0,0.0
55.0,46.0,-51.0,-33.0,14.0,23.0,29.0,34.0,5.0,49.0,0.0
57.0,41.0,-119.0,-47.0,5.0,14.0,22.0,26.0,2.0,39.0,0.0
42.0,28.0,-68.0,-40.0,0.0,0.0,-1.0,-1.0,-12.0,14.0,0.0
18.0,13.0,-45.0,-21.0,-3.0,-9.0,-13.0,-10.0,-24.0,7.0,0.0
10.0,1.0,-24.0,4.0,0.0,-4.0,-17.0,-9.0,-27.0,-11.0,0.0
-3.0,-10.0,-7.0,69.0,2.0,-1.0,-26.0,-19.0,-30.0,-10.0,0.0
-19.0,-22.0,-8.0,99.0,9.0,-4.0,-38.0,-35.0,-44.0,-23.0,0.0
-24.0,-17.0,-8.0,71.0,15.0,-3.0,-28.0,-39.0,-44.0,-38.0,0.0
-23.0,-6.0,-19.0,32.0,2.0,0.0,-13.0,-40.0,-31.0,-28.0,0.0
-16.0,0.0,-15.0,5.0,-12.0,-2.0,-12.0,-15.0,-23.0,-13.0,0.0
8.0,5.0,-11.0,-11.0,-16.0,2.0,-2.0,-1.0,-8.0,-1.0,0.0
23.0,32.0,-2.0,-16.0,-25.0,0.0,15.0,2.0,3.0,26.0,0.0
16.0,47.0,-8.0,-35.0,-22.0,0.0,31.0,9.0,20.0,33.0,0.0
16.0,37.0,-9.0,-68.0,-26.0,9.0,41.0,8.0,24.0,25.0,0.0
29.0,48.0,-7.0,-110.0,-37.0,5.0,26.0,3.0,34.0,16.0,0.0
52.0,50.0,-11.0,-110.0,-40.0,-13.0,19.0,12.0,51.0,19.0,0.0
54.0,33.0,-21.0,-69.0,-39.0,-21.0,8.0,19.0,46.0,25.0,0.0
40.0,39.0,-7.0,-34.0,-34.0,-18.0,8.0,28.0,34.0,13.0,0.0
11.0,38.0,19.0,-18.0,-18.0,-11.0,14.0,17.0,19.0,-5.0,0.0
-19.0,15.0,27.0,-15.0,-19.0,-6.0,11.0,7.0,-6.0,-21.0,0.0
-29.0,6.0,10.0,-6.0,-24.0,0.0,10.0,7.0,-5.0,-39.0,0.0
-31.0,-1.0,-9.0,-3.0,-8.0,-4.0,21.0,2.0,-13.0,-57.0,0.0
-35.0,-20.0,-17.0,3.0,-6.0,0.0,26.0,-12.0,-12.0,-65.0,0.0
-28.0,-25.0,-16.0,23.0,0.0,0.0,8.0,-14.0,-4.0,-60.0,0.0
-23.0,-12.0,-8.0,39.0,0.0,0.0,0.0,-11.0,-7.0,-47.0,0.0
-28.0,-11.0,0.0,46.0,9.0,1.0,-7.0,-10.0,-8.0,-46.0,0.0
-27.0,3.0,9.0,39.0,6.0,6.0,0.0,-3.0,-21.0,-66.0,0.0
-20.0,20.0,14.0,29.0,5.0,3.0,5.0,0.0,-24.0,-76.0,0.0
-10.0,24.0,23.0,16.0,4.0,9.0,18.0,8.0,-16.0,-68.0,0.0
2.0,36.0,23.0,-8.0,-8.0,13.0,21.0,15.0,-7.0,-34.0,0.0
11.0,40.0,11.0,-13.0,-14.0,2.0,7.0,16.0,5.0,17.0,0.0
6.0,50.0,-2.0,-10.0,-6.0,0.0,-1.0,14.0,5.0,15.0,0.0
-10.0,42.0,-12.0,-34.0,-5.0,-4.0,-4.0,17.0,-13.0,-15.0,0.0
-1.0,11.0,-14.0,-60.0,-23.0,0.0,-3.0,25.0,-2.0,-15.0,0.0
3.0,-3.0,-27.0,-67.0,-24.0,10.0,24.0,33.0,12.0,0.0,0.0
0.0,-8.0,-27.0,-52.0,-3.0,23.0,39.0,34.0,7.0,-7.0,0.0
6.0,10.0,10.0,-42.0,9.0,14.0,10.0,32.0,-9.0,-6.0,0.0
-2.0,21.0,39.0,-34.0,17.0,0.0,-12.0,10.0,-16.0,-23.0,0.0
-10.0,33.0,43.0,-9.0,14.0,-1.0,-17.0,-2.0,-40.0,-50.0,0.0
-7.0,36.0,43.0,39.0,21.0,9.0,-18.0,-5.0,-50.0,-64.0,0.0
-2.0,38.0,47.0,67.0,15.0,15.0,-22.0,-8.0,-40.0,-42.0,0.0
11.0,47.0,57.0,62.0,5.0,10.0,-16.0,-14.0,-25.0,-3.0,0.0
6.0,31.0,60.0,47.0,4.0,0.0,-14.0,-20.0,-20.0,4.0,0.0
-2.0,11.0,42.0,38.0,9.0,4.0,-5.0,-14.0,-30.0,-20.0,0.0
-9.0,0.0,40.0,21.0,12.0,12.0,-4.0,-5.0,-44.0,-32.0,0.0
-13.0,-2.0,33.0,-6.0,0.0,11.0,-3.0,-4.0,-50.0,-46.0,0.0
0.0,-9.0,12.0,-26.0,-20.0,-3.0,-16.0,-7.0,-54.0,-34.0,0.0
14.0,-9.0,-17.0,-60.0,-41.0,-26.0,-17.0,-14.0,-29.0,-14.0,0.0
7.0,-7.0,-33.0,-79.0,-46.0,-33.0,8.0,7.0,16.0,-1.0,0.0
-6.0,-6.0,-35.0,-80.0,-39.0,-32.0,10.0,11.0,58.0,4.0,0.0
3.0,3.0,-6.0,-77.0,-41.0,-35.0,-10.0,-5.0,67.0,15.0,0.0
11.0,6.0,-3.0,-67.0,-40.0,-26.0,-9.0,-14.0,56.0,25.0,0.0
11.0,-17.0,-7.0,-40.0,-25.0,-20.0,7.0,-12.0,35.0,23.0,0.0
20.0,-16.0,4.0,-17.0,-6.0,-14.0,16.0,-9.0,40.0,20.0,0.0
18.0,-21.0,12.0,-1.0,-7.0,-8.0,18.0,-12.0,60.0,3.0,0.0
25.0,-8.0,15.0,-2.0,-9.0,0.0,22.0,-12.0,58.0,-11.0,0.0
9.0,-7.0,11.0,6.0,0.0,3.0,31.0,-15.0,7.0,-31.0,0.0
-29.0,-19.0,2.0,16.0,12.0,10.0,15.0,-22.0,-33.0,-57.0,0.0
-40.0,-13.0,9.0,23.0,9.0,-1.0,-12.0,-35.0,-23.0,-30.0,0.0
0.0,0.0,23.0,29.0,4.0,3.0,-23.0,-49.0,-9.0,31.0,0.0
-11.0,-19.0,0.0,27.0,4.0,9.0,-19.0,-27.0,-1.0,39.0,0.0
-46.0,-41.0,-15.0,17.0,8.0,11.0,-7.0,-10.0,20.0,38.0,0.0
-32.0,-43.0,-31.0,6.0,13.0,10.0,-7.0,2.0,50.0,48.0,0.0
-13.0,-42.0,-34.0,-3.0,20.0,4.0,3.0,6.0,43.0,26.0,0.0
-15.0,-40.0,-23.0,11.0,10.0,1.0,19.0,13.0,19.0,-2.0,0.0
-9.0,-33.0,-6.0,38.0,19.0,1.0,19.0,14.0,-3.0,10.0,0.0
-3.0,-12.0,25.0,66.0,44.0,0.0,9.0,-1.0,-13.0,25.0,0.0
-8.0,-2.0,23.0,92.0,56.0,8.0,4.0,0.0,-43.0,9.0,0.0
-8.0,-12.0,13.0,92.0,47.0,1.0,0.0,2.0,-48.0,13.0,0.0
-16.0,-6.0,6.0,74.0,43.0,1.0,-1.0,-3.0,-31.0,16.0,0.0
-21.0,-12.0,10.0,82.0,33.0,5.0,-3.0,-2.0,-15.0,13.0,0.0
-6.0,-12.0,25.0,101.0,34.0,1.0,8.0,5.0,-16.0,10.0,0.0
-2.0,-24.0,24.0,85.0,31.0,-3.0,17.0,6.0,-19.0,2.0,0.0
-7.0,-23.0,9.0,21.0,11.0,-10.0,10.0,8.0,1.0,0.0,0.0
-19.0,-19.0,-10.0,-35.0,-15.0,-19.0,-18.0,0.0,-4.0,-5.0,0.0
-35.0,-25.0,-17.0,-70.0,-31.0,-33.0,-25.0,-6.0,-21.0,-25.0,0.0
-31.0,-24.0,-35.0,-89.0,-29.0,-32.0,-18.0,3.0,-24.0,-26.0,0.0
-13.0,-7.0,-27.0,-74.0,-19.0,-31.0,-19.0,0.0,-4.0,5.0,0.0
-10.0,-19.0,-12.0,-63.0,-12.0,-22.0,-13.0,4.0,-1.0,1.0,0.0
-20.0,-26.0,-4.0,-64.0,-3.0,-19.0,-9.0,18.0,-2.0,-8.0,0.0
-9.0,-13.0,-1.0,-68.0,-8.0,-11.0,-4.0,26.0,7.0,12.0,0.0
18.0,15.0,-11.0,-83.0,-15.0,-5.0,8.0,42.0,45.0,52.0,0.0
32.0,23.0,-37.0,-86.0,-14.0,-2.0,27.0,60.0,69.0,70.0,0.0
24.0,18.0,-33.0,-70.0,-17.0,-12.0,27.0,57.0,59.0,49.0,0.0
4.0,13.0,-16.0,-48.0,-15.0,-9.0,13.0,43.0,48.0,36.0,0.0
4.0,24.0,-8.0,-26.0,-6.0,3.0,-3.0,35.0,33.0,25.0,0.0
16.0,26.0,0.0,-19.0,1.0,4.0,2.0,35.0,21.0,8.0,0.0
2.0,10.0,-6.0,-10.0,0.0,9.0,2.0,26.0,27.0,0.0,0.0
-2.0,1.0,-1.0,-6.0,1.0,14.0,-6.0,10.0,33.0,0.0,0.0
-6.0,3.0,12.0,1.0,-6.0,1.0,-15.0,-6.0,10.0,-2.0,0.0
0.0,17.0,22.0,7.0,-12.0,-6.0,-30.0,-23.0,11.0,0.0,0.0
3.0,15.0,9.0,16.0,-6.0,2.0,-35.0,-30.0,8.0,-7.0,0.0
1.0,4.0,9.0,19.0,6.0,1.0,-35.0,-23.0,-3.0,-7.0,0.0
-1.0,1.0,12.0,12.0,4.0,9.0,-30.0,-18.0,0.0,-11.0,0.0
1.0,11.0,3.0,8.0,5.0,0.0,-37.0,-19.0,-5.0,-20.0,0.0
17.0,12.0,-4.0,-6.0,-9.0,-15.0,-43.0,-15.0,6.0,-21.0,0.0
28.0,15.0,-9.0,-7.0,-22.0,-15.0,-37.0,-16.0,14.0,-9.0,0.0
40.0,28.0,-12.0,-16.0,-19.0,-9.0,-29.0,-18.0,16.0,3.0,0.0
74.0,53.0,-3.0,-11.0,-15.0,-12.0,-21.0,-8.0,24.0,15.0,0.0
96.0,70.0,-1.0,-2.0,-11.0,-18.0,-22.0,0.0,35.0,38.0,0.0
104.0,66.0,-11.0,11.0,-6.0,-19.0,-11.0,0.0,21.0,69.0,0.0
99.0,48.0,-8.0,36.0,2.0,-14.0,-12.0,-2.0,10.0,93.0,0.0
68.0,36.0,1.0,52.0,19.0,-13.0,-13.0,-19.0,0.0,63.0,0.0
44.0,25.0,5.0,62.0,41.0,0.0,-6.0,-26.0,-9.0,18.0,0.0
12.0,9.0,5.0,61.0,48.0,4.0,0.0,-9.0,-16.0,-13.0,0.0
-12.0,-8.0,7.0,43.0,28.0,21.0,0.0,-6.0,-26.0,-24.0,0.0
-22.0,-34.0,0.0,29.0,12.0,19.0,0.0,3.0,-10.0,2.0,0.0
-19.0,-32.0,-6.0,19.0,-1.0,13.0,4.0,9.0,21.0,17.0,0.0
-14.0,-19.0,-30.0,14.0,-6.0,17.0,-7.0,21.0,16.0,11.0,0.0
0.0,-12.0,-19.0,7.0,2.0,19.0,-11.0,0.0,-11.0,-12.0,0.0
0.0,-2.0,5.0,16.0,12.0,15.0,0.0,-6.0,-18.0,-27.0,0.0
1.0,17.0,0.0,29.0,12.0,13.0,11.0,2.0,-14.0,-31.0,0.0
12.0,32.0,5.0,27.0,5.0,13.0,5.0,2.0,2.0,-26.0,0.0
15.0,35.0,19.0,24.0,8.0,7.0,-9.0,1.0,9.0,-15.0,0.0
0.0,8.0,5.0,11.0,17.0,-1.0,-15.0,13.0,-1.0,-12.0,0.0
-4.0,-26.0,0.0,7.0,21.0,-7.0,-14.0,18.0,10.0,-7.0,0.0
0.0,-37.0,-2.0,7.0,22.0,-9.0,-1.0,29.0,12.0,4.0,0.0
8.0,-31.0,0.0,0.0,31.0,-17.0,3.0,35.0,0.0,11.0,0.0
7.0,-13.0,-13.0,8.0,18.0,-9.0,3.0,37.0,0.0,13.0,0.0
12.0,-4.0,-11.0,22.0,2.0,-2.0,-3.0,33.0,1.0,2.0,0.0
11.0,5.0,-2.0,28.0,8.0,3.0,-11.0,32.0,-6.0,-5.0,0.0
16.0,23.0,1.0,27.0,10.0,5.0,-9.0,23.0,-12.0,-12.0,0.0
17.0,22.0,21.0,23.0,11.0,0.0,-8.0,2.0,-17.0,-23.0,0.0
5.0,12.0,33.0,22.0,8.0,-8.0,-7.0,-8.0,-27.0,-29.0,0.0
-5.0,13.0,13.0,22.0,0.0,-10.0,-5.0,0.0,-19.0,-48.0,0.0
-13.0,11.0,11.0,15.0,0.0,-19.0,-5.0,2.0,-25.0,-44.0,0.0
-21.0,0.0,11.0,11.0,-3.0,-26.0,-10.0,-7.0,-32.0,-35.0,0.0
-19.0,-4.0,15.0,-3.0,-5.0,-36.0,-16.0,-16.0,-32.0,-27.0,0.0
-11.0,4.0,33.0,-11.0,-8.0,-47.0,-17.0,-9.0,-26.0,-3.0,0.0
-11.0,-5.0,22.0,-14.0,-19.0,-47.0,-11.0,-5.0,-26.0,9.0,0.0
-2.0,-24.0,14.0,-24.0,-21.0,-44.0,-13.0,-10.0,-24.0,21.0,0.0
-6.0,-26.0,22.0,-36.0,-15.0,-37.0,-9.0,-13.0,-26.0,26.0,0.0
-11.0,-23.0,22.0,-47.0,-24.0,-27.0,-4.0,-2.0,-19.0,35.0,0.0
7.0,-18.0,-41.0,-49.0,-12.0,-12.0,14.0,6.0,10.0,47.0,0.0
28.0,-8.0,-65.0,-35.0,-6.0,-6.0,27.0,21.0,58.0,48.0,0.0
29.0,-2.0,-34.0,-27.0,0.0,-11.0,34.0,27.0,73.0,40.0,0.0
15.0,10.0,0.0,-10.0,4.0,-7.0,23.0,14.0,74.0,22.0,0.0
26.0,25.0,9.0,2.0,-2.0,2.0,15.0,2.0,66.0,25.0,0.0
60.0,56.0,28.0,8.0,-20.0,-2.0,10.0,8.0,53.0,44.0,0.0
69.0,78.0,39.0,3.0,-29.0,-11.0,0.0,11.0,15.0,49.0,0.0
58.0,70.0,20.0,7.0,-24.0,-16.0,-18.0,-18.0,-41.0,29.0,0.0
27.0,50.0,3.0,0.0,-8.0,-15.0,-13.0,-33.0,-86.0,0.0,0.0
0.0,54.0,6.0,6.0,3.0,-11.0,-6.0,-32.0,-105.0,-26.0,0.0
0.0,46.0,1.0,8.0,8.0,-7.0,-2.0,-18.0,-82.0,-32.0,0.0
-24.0,3.0,-7.0,4.0,13.0,-4.0,10.0,-1.0,-43.0,-52.0,0.0
-64.0,-51.0,0.0,41.0,12.0,8.0,27.0,2.0,4.0,-63.0,0.0
-86.0,-84.0,-10.0,45.0,12.0,18.0,29.0,21.0,31.0,-65.0,0.0
-67.0,-69.0,-24.0,39.0,16.0,22.0,36.0,31.0,52.0,-25.0,0.0
-34.0,-40.0,-31.0,34.0,2.0,14.0,54.0,42.0,62.0,21.0,0.0
6.0,-24.0,-21.0,25.0,-16.0,11.0,47.0,57.0,72.0,73.0,0.0
13.0,-19.0,-19.0,12.0,-15.0,10.0,37.0,49.0,58.0,74.0,0.0
6.0,-17.0,-9.0,7.0,-8.0,7.0,24.0,50.0,13.0,35.0,0.0
13.0,-5.0,14.0,-2.0,-3.0,5.0,23.0,30.0,-33.0,32.0,0.0
21.0,0.0,23.0,-5.0,0.0,9.0,22.0,0.0,-45.0,11.0,0.0
3.0,-1.0,32.0,1.0,13.0,16.0,12.0,-7.0,-30.0,-11.0,0.0
5.0,-1.0,19.0,0.0,23.0,22.0,17.0,-2.0,-9.0,-6.0,0.0
21.0,-4.0,6.0,0.0,34.0,29.0,14.0,-4.0,-8.0,5.0,0.0
26.0,-9.0,-3.0,-22.0,28.0,33.0,20.0,4.0,5.0,-3.0,0.0
32.0,1.0,-11.0,-48.0,9.0,27.0,35.0,12.0,-8.0,-16.0,0.0
27.0,7.0,-6.0,-57.0,4.0,19.0,45.0,16.0,-19.0,-32.0,0.0
17.0,18.0,-11.0,-55.0,3.0,20.0,40.0,15.0,-33.0,-34.0,0.0
25.0,20.0,-21.0,-57.0,1.0,12.0,29.0,13.0,-26.0,4.0,0.0
52.0,20.0,-20.0,-58.0,10.0,-4.0,17.0,-13.0,-9.0,71.0,0.0
52.0,23.0,-16.0,-41.0,14.0,-4.0,17.0,-8.0,-7.0,77.0,0.0
40.0,24.0,-11.0,-34.0,13.0,-4.0,23.0,-10.0,0.0,52.0,0.0
22.0,26.0,-1.0,-42.0,13.0,-12.0,18.0,-6.0,15.0,37.0,0.0
16.0,23.0,5.0,-36.0,15.0,-18.0,19.0,-10.0,13.0,5.0,0.0
18.0,18.0,9.0,-30.0,12.0,-16.0,23.0,-9.0,6.0,-20.0,0.0
12.0,18.0,15.0,-27.0,17.0,-10.0,27.0,-6.0,-7.0,-33.0,0.0
-7.0,6.0,2.0,-12.0,23.0,3.0,17.0,-12.0,-21.0,-45.0,0.0
-25.0,-6.0,1.0,3.0,33.0,16.0,-3.0,-17.0,-17.0,-29.0,0.0
-16.0,3.0,7.0,21.0,43.0,20.0,-19.0,-24.0,4.0,18.0,0.0
-12.0,-6.0,20.0,32.0,37.0,27.0,-20.0,-20.0,3.0,21.0,0.0
-33.0,-19.0,7.0,31.0,37.0,19.0,-6.0,-7.0,-5.0,-21.0,0.0
-56.0,-27.0,-4.0,25.0,37.0,-1.0,-2.0,-4.0,-13.0,-39.0,0.0
-42.0,-28.0,-6.0,17.0,33.0,-3.0,-7.0,10.0,0.0,-17.0,0.0
-29.0,-12.0,-11.0,10.0,29.0,8.0,-13.0,18.0,13.0,-9.0,0.0
-15.0,-1.0,-19.0,2.0,27.0,8.0,-13.0,7.0,6.0,-7.0,0.0
0.0,2.0,-16.0,-21.0,16.0,5.0,-8.0,-5.0,12.0,22.0,0.0
11.0,-3.0,-10.0,-33.0,9.0,-3.0,-8.0,-8.0,35.0,19.0,0.0
8.0,-5.0,-6.0,-13.0,9.0,7.0,-11.0,-4.0,41.0,15.0,0.0
1.0,-6.0,-6.0,0.0,19.0,20.0,6.0,5.0,44.0,17.0,0.0
11.0,-4.0,-2.0,1.0,27.0,19.0,20.0,16.0,34.0,22.0,0.0
23.0,5.0,6.0,1.0,31.0,18.0,14.0,4.0,13.0,25.0,0.0
28.0,9.0,17.0,13.0,23.0,21.0,5.0,-3.0,5.0,18.0,0.0
35.0,11.0,24.0,27.0,10.0,15.0,8.0,-8.0,1.0,13.0,0.0
16.0,13.0,14.0,38.0,11.0,18.0,14.0,-6.0,-4.0,10.0,0.0
12.0,16.0,12.0,32.0,17.0,25.0,0.0,-4.0,7.0,23.0,0.0
16.0,17.0,8.0,26.0,12.0,25.0,-11.0,-24.0,12.0,22.0,0.0
12.0,13.0,7.0,36.0,19.0,19.0,-15.0,-32.0,-5.0,19.0,0.0
0.0,11.0,18.0,45.0,18.0,16.0,-24.0,-31.0,-11.0,10.0,0.0
-8.0,-8.0,21.0,46.0,16.0,19.0,-16.0,-25.0,-23.0,-5.0,0.0
-15.0,-1.0,15.0,38.0,10.0,36.0,-14.0,-19.0,-31.0,-7.0,0.0
-22.0,-5.0,6.0,22.0,20.0,45.0,-16.0,-15.0,-37.0,-9.0,0.0
-24.0,-9.0,0.0,8.0,18.0,38.0,-5.0,-27.0,-34.0,-24.0,0.0
-26.0,-7.0,0.0,0.0,17.0,38.0,-1.0,-30.0,-42.0,-35.0,0.0
-34.0,-18.0,2.0,-14.0,16.0,26.0,7.0,-23.0,-55.0,-28.0,0.0
-31.0,-24.0,4.0,-29.0,9.0,14.0,0.0,-15.0,-25.0,-15.0,0.0
-35.0,-36.0,3.0,-36.0,8.0,2.0,-4.0,-3.0,-3.0,-15.0,0.0
-28.0,-26.0,1.0,-24.0,11.0,0.0,-4.0,5.0,21.0,-19.0,0.0
-7.0,-16.0,-9.0,-8.0,1.0,0.0,-19.0,4.0,55.0,0.0,0.0
0.0,-18.0,-15.0,4.0,-7.0,8.0,-18.0,0.0,56.0,17.0,0.0
0.0,-21.0,-16.0,10.0,-3.0,17.0,-7.0,-6.0,34.0,30.0,0.0
6.0,-22.0,-39.0,3.0,11.0,26.0,-11.0,3.0,18.0,31.0,0.0
16.0,-15.0,-53.0,-2.0,14.0,41.0,-22.0,6.0,-1.0,26.0,0.0
8.0,-8.0,-30.0,8.0,19.0,35.0,0.0,3.0,-16.0,12.0,0.0
-2.0,0.0,-5.0,24.0,15.0,14.0,4.0,-20.0,-33.0,5.0,0.0
-1.0,4.0,-2.0,14.0,-4.0,8.0,-4.0,-22.0,-13.0,-8.0,0.0
-8.0,0.0,-4.0,0.0,-17.0,0.0,-11.0,-18.0,28.0,-14.0,0.0
-21.0,-3.0,10.0,1.0,-19.0,-6.0,-13.0,-17.0,47.0,-21.0,0.0
-17.0,1.0,18.0,-5.0,-13.0,-2.0,-11.0,-15.0,37.0,-16.0,0.0
-2.0,14.0,19.0,-15.0,-15.0,0.0,-5.0,-8.0,36.0,-17.0,0.0
7.0,23.0,-16.0,-6.0,-11.0,3.0,-2.0,5.0,30.0,-13.0,0.0
19.0,26.0,-28.0,1.0,8.0,-1.0,-1.0,13.0,7.0,0.0,0.0
39.0,24.0,-22.0,6.0,25.0,-1.0,-20.0,9.0,-14.0,17.0,0.0
37.0,25.0,-5.0,8.0,20.0,3.0,-16.0,-4.0,-21.0,11.0,0.0
16.0,24.0,-1.0,5.0,20.0,9.0,11.0,-4.0,-3.0,-5.0,0.0
2.0,18.0,-8.0,9.0,23.0,7.0,18.0,2.0,-1.0,-10.0,0.0
-4.0,13.0,-4.0,13.0,15.0,-3.0,14.0,1.0,-4.0,-13.0,0.0
-10.0,-3.0,12.0,21.0,22.0,-2.0,9.0,-6.0,0.0,-22.0,0.0
-41.0,-46.0,22.0,40.0,51.0,16.0,8.0,-13.0,-8.0,-32.0,0.0
-58.0,-68.0,18.0,46.0,69.0,33.0,7.0,-12.0,-11.0,-43.0,0.0
-51.0,-53.0,3.0,23.0,44.0,18.0,12.0,-4.0,-10.0,-38.0,0.0
-38.0,-34.0,3.0,4.0,17.0,-3.0,3.0,-10.0,-11.0,-34.0,0.0
-21.0,-23.0,5.0,3.0,13.0,-3.0,-5.0,-18.0,-14.0,-26.0,0.0
2.0,-9.0,3.0,42.0,19.0,2.0,-5.0,-14.0,-9.0,-23.0,0.0
16.0,5.0,12.0,93.0,39.0,7.0,3.0,-1.0,-1.0,-28.0,0.0
19.0,22.0,8.0,97.0,37.0,11.0,12.0,14.0,3.0,-9.0,0.0
21.0,25.0,6.0,82.0,26.0,12.0,12.0,17.0,6.0,0.0,0.0
25.0,17.0,29.0,66.0,20.0,6.0,1.0,9.0,5.0,-2.0,0.0
31.0,13.0,29.0,36.0,5.0,-7.0,-9.0,8.0,5.0,5.0,0.0
25.0,6.0,24.0,6.0,-5.0,-23.0,-8.0,11.0,5.0,8.0,0.0
6.0,-5.0,23.0,0.0,6.0,-26.0,-21.0,2.0,6.0,11.0,0.0
-9.0,-3.0,34.0,-14.0,7.0,-17.0,-9.0,0.0,-11.0,21.0,0.0
-1.0,9.0,47.0,-58.0,-21.0,-12.0,8.0,9.0,-23.0,15.0,0.0
21.0,15.0,46.0,-99.0,-36.0,-16.0,5.0,14.0,-3.0,24.0,0.0
44.0,24.0,-3.0,-102.0,-35.0,-23.0,5.0,5.0,57.0,60.0,0.0
33.0,37.0,-68.0,-100.0,-33.0,-20.0,10.0,6.0,95.0,57.0,0.0
3.0,28.0,-63.0,-83.0,-29.0,-29.0,6.0,14.0,101.0,29.0,0.0
-26.0,10.0,-19.0,-64.0,-26.0,-21.0,5.0,17.0,78.0,-2.0,0.0
-46.0,-17.0,-4.0,-33.0,-6.0,-9.0,-4.0,15.0,43.0,-20.0,0.0
-46.0,-41.0,-4.0,-9.0,-5.0,-3.0,-4.0,10.0,21.0,1.0,0.0
-28.0,-35.0,-4.0,-3.0,-12.0,0.0,-5.0,5.0,14.0,47.0,0.0
-19.0,-22.0,-6.0,12.0,-10.0,1.0,0.0,-2.0,0.0,41.0,0.0
-18.0,-22.0,-15.0,34.0,0.0,-6.0,11.0,-11.0,-23.0,22.0,0.0
1.0,-18.0,-25.0,21.0,-2.0,-2.0,20.0,-2.0,-25.0,0.0,0.0
3.0,-14.0,-30.0,6.0,-7.0,9.0,25.0,-3.0,-28.0,-8.0,0.0
0.0,-24.0,-27.0,-6.0,2.0,10.0,29.0,-8.0,-21.0,0.0,0.0
20.0,-2.0,-15.0,-7.0,2.0,9.0,12.0,-17.0,6.0,33.0,0.0
30.0,30.0,-6.0,0.0,-1.0,0.0,-7.0,-18.0,10.0,50.0,0.0
9.0,25.0,-9.0,5.0,-9.0,-2.0,-15.0,-18.0,-15.0,17.0,0.0
-14.0,9.0,3.0,2.0,-13.0,-1.0,-12.0,-12.0,-32.0,-14.0,0.0
-34.0,-19.0,2.0,-8.0,-9.0,0.0,-3.0,-9.0,-32.0,-26.0,0.0
-47.0,-28.0,-3.0,-5.0,-11.0,9.0,-3.0,-14.0,-43.0,-51.0,0.0
-48.0,-22.0,-4.0,10.0,-5.0,13.0,4.0,-14.0,-60.0,-61.0,0.0
-32.0,-15.0,-9.0,30.0,-3.0,17.0,0.0,-22.0,-53.0,-28.0,0.0
7.0,10.0,2.0,29.0,-4.0,9.0,-23.0,-59.0,-45.0,10.0,0.0
58.0,53.0,15.0,34.0,-2.0,10.0,-34.0,-86.0,-39.0,54.0,0.0
89.0,75.0,9.0,36.0,-1.0,6.0,-38.0,-79.0,-32.0,67.0,0.0
104.0,79.0,11.0,34.0,-1.0,-14.0,-34.0,-74.0,-35.0,29.0,0.0
103.0,74.0,7.0,28.0,-10.0,-15.0,-19.0,-60.0,-36.0,23.0,0.0
78.0,66.0,10.0,49.0,-15.0,-15.0,-14.0,-46.0,-40.0,12.0,0.0
14.0,19.0,4.0,69.0,-5.0,-15.0,-6.0,-46.0,-36.0,-7.0,0.0
-30.0,-15.0,10.0,75.0,0.0,-8.0,6.0,-34.0,-29.0,-18.0,0.0
-30.0,-31.0,12.0,62.0,0.0,-4.0,19.0,-24.0,-11.0,-3.0,0.0
-47.0,-49.0,-5.0,31.0,0.0,0.0,23.0,-9.0,-6.0,4.0,0.0
-71.0,-69.0,-28.0,0.0,-8.0,-5.0,24.0,5.0,-2.0,1.0,0.0
-73.0,-73.0,-36.0,-25.0,-10.0,3.0,34.0,2.0,0.0,4.0,0.0
-61.0,-56.0,-31.0,-40.0,-15.0,1.0,32.0,-11.0,-8.0,5.0,0.0
-41.0,-48.0,-40.0,-36.0,-16.0,0.0,20.0,-9.0,-12.0,2.0,0.0
-38.0,-48.0,-26.0,-19.0,-11.0,12.0,14.0,-6.0,-8.0,-6.0,0.0
-36.0,-30.0,-10.0,4.0,3.0,12.0,15.0,-15.0,-22.0,-14.0,0.0
-19.0,-13.0,-9.0,17.0,2.0,10.0,11.0,-28.0,-39.0,-5.0,0.0
-18.0,-15.0,-5.0,9.0,-14.0,6.0,3.0,-37.0,-60.0,-12.0,0.0
-44.0,-38.0,-1.0,-5.0,-26.0,-5.0,-4.0,-32.0,-71.0,-43.0,0.0
-62.0,-43.0,-9.0,-3.0,-4.0,-4.0,-14.0,-30.0,-55.0,-63.0,0.0
-57.0,-32.0,-9.0,15.0,4.0,-5.0,-24.0,-33.0,-15.0,-54.0,0.0
-48.0,-31.0,-4.0,31.0,1.0,-13.0,-26.0,-24.0,58.0,-21.0,0.0
-44.0,-28.0,5.0,38.0,3.0,-16.0,-17.0,-24.0,124.0,-3.0,0.0
-22.0,-28.0,8.0,29.0,-6.0,-17.0,-7.0,-12.0,152.0,0.0,0.0
-14.0,-35.0,3.0,17.0,-12.0,-16.0,-2.0,2.0,147.0,-4.0,0.0
-5.0,-36.0,0.0,9.0,-7.0,-9.0,15.0,15.0,115.0,-4.0,0.0
4.0,-31.0,-3.0,-5.0,-2.0,2.0,22.0,17.0,56.0,-5.0,0.0
4.0,-11.0,-10.0,-19.0,1.0,2.0,25.0,22.0,8.0,-6.0,0.0
1.0,2.0,-13.0,-38.0,-6.0,-4.0,12.0,9.0,-18.0,-20.0,0.0
13.0,2.0,-19.0,-55.0,-18.0,-1.0,3.0,3.0,-23.0,-22.0,0.0
8.0,-10.0,-41.0,-60.0,-17.0,0.0,6.0,4.0,-5.0,-31.0,0.0
-8.0,0.0,-43.0,-41.0,-16.0,6.0,8.0,-5.0,7.0,-26.0,0.0
0.0,11.0,-40.0,-17.0,-27.0,2.0,-2.0,-13.0,6.0,-24.0,0.0
11.0,13.0,-29.0,-3.0,-27.0,-3.0,-10.0,-22.0,-14.0,-28.0,0.0
23.0,0.0,-8.0,20.0,-18.0,-2.0,-20.0,-27.0,-24.0,-33.0,0.0
24.0,0.0,-9.0,20.0,-15.0,4.0,-21.0,-28.0,-21.0,-28.0,0.0
20.0,-5.0,-14.0,8.0,-18.0,4.0,-14.0,-25.0,-12.0,-11.0,0.0
23.0,0.0,2.0,-1.0,-17.0,8.0,-3.0,-22.0,-5.0,6.0,0.0
6.0,7.0,12.0,-1.0,-10.0,5.0,0.0,-23.0,3.0,5.0,0.0
8.0,7.0,20.0,-8.0,-14.0,-10.0,2.0,-17.0,-10.0,13.0,0.0
19.0,3.0,32.0,-12.0,-10.0,-19.0,15.0,-16.0,-4.0,17.0,0.0
15.0,0.0,31.0,-10.0,-8.0,-17.0,23.0,-11.0,2.0,16.0,0.0
8.0,5.0,26.0,14.0,-15.0,-20.0,19.0,0.0,17.0,22.0,0.0
5.0,18.0,24.0,26.0,-11.0,-16.0,15.0,6.0,11.0,14.0,0.0
6.0,13.0,25.0,1.0,-6.0,-25.0,15.0,15.0,-2.0,-3.0,0.0
5.0,7.0,32.0,-25.0,-11.0,-27.0,12.0,8.0,-3.0,-3.0,0.0
1.0,12.0,43.0,-32.0,-8.0,-30.0,6.0,-9.0,0.0,-4.0,0.0
0.0,11.0,47.0,-6.0,-2.0,-30.0,-5.0,-1.0,-5.0,-9.0,0.0
-16.0,11.0,50.0,17.0,0.0,-19.0,-14.0,-9.0,-17.0,-36.0,0.0
-31.0,2.0,36.0,4.0,14.0,-13.0,-28.0,-3.0,-35.0,-49.0,0.0
-26.0,-9.0,0.0,-25.0,15.0,-13.0,-24.0,8.0,-42.0,-45.0,0.0
-1.0,-7.0,-28.0,-36.0,10.0,-5.0,-12.0,14.0,-11.0,-16.0,0.0
39.0,11.0,-4.0,-20.0,7.0,-5.0,-19.0,15.0,9.0,21.0,0.0
54.0,25.0,26.0,6.0,-6.0,-11.0,-15.0,10.0,9.0,29.0,0.0
62.0,30.0,51.0,10.0,-13.0,1.0,-13.0,10.0,6.0,19.0,0.0
55.0,35.0,44.0,12.0,-3.0,7.0,-21.0,-2.0,-13.0,-2.0,0.0
35.0,31.0,46.0,7.0,5.0,1.0,-29.0,-4.0,-3.0,-18.0,0.0
48.0,31.0,19.0,-6.0,3.0,14.0,-22.0,2.0,6.0,-11.0,0.0
55.0,30.0,-3.0,-23.0,-8.0,19.0,-2.0,11.0,13.0,23.0,0.0
39.0,7.0,-19.0,-23.0,-3.0,27.0,2.0,12.0,3.0,56.0,0.0
18.0,-10.0,-28.0,-35.0,0.0,26.0,7.0,22.0,17.0,42.0,0.0
15.0,-6.0,-32.0,-51.0,-16.0,21.0,12.0,40.0,38.0,48.0,0.0
23.0,18.0,-12.0,-53.0,-37.0,18.0,7.0,31.0,26.0,35.0,0.0
19.0,37.0,15.0,-48.0,-38.0,18.0,-10.0,16.0,11.0,15.0,0.0
14.0,21.0,24.0,-32.0,-29.0,14.0,-15.0,6.0,4.0,14.0,0.0
0.0,9.0,-5.0,4.0,-19.0,11.0,-19.0,2.0,20.0,18.0,0.0
-4.0,4.0,-11.0,33.0,-18.0,13.0,-32.0,-2.0,22.0,20.0,0.0
-10.0,0.0,-4.0,15.0,-8.0,12.0,-39.0,-7.0,0.0,16.0,0.0
-13.0,0.0,-11.0,-9.0,-8.0,4.0,-51.0,-5.0,-1.0,12.0,0.0
4.0,6.0,-20.0,0.0,-9.0,7.0,-45.0,-5.0,-10.0,4.0,0.0
20.0,9.0,5.0,15.0,3.0,19.0,-31.0,-14.0,-37.0,6.0,0.0
14.0,-1.0,20.0,10.0,19.0,39.0,-19.0,-17.0,-51.0,-11.0,0.0
9.0,-12.0,11.0,1.0,28.0,36.0,-9.0,-4.0,-45.0,-5.0,0.0
7.0,-18.0,-12.0,-31.0,17.0,28.0,8.0,22.0,-30.0,28.0,0.0
3.0,-15.0,-32.0,-55.0,-1.0,24.0,11.0,42.0,-19.0,54.0,0.0
2.0,-7.0,-38.0,-60.0,-1.0,9.0,13.0,37.0,-5.0,40.0,0.0
-19.0,-15.0,-10.0,-45.0,-5.0,9.0,8.0,7.0,-19.0,3.0,0.0
-14.0,-12.0,-3.0,-29.0,-9.0,2.0,-6.0,-4.0,-27.0,-16.0,0.0
23.0,-2.0,-15.0,-17.0,-25.0,-4.0,-21.0,-13.0,-16.0,32.0,0.0
7.0,0.0,-19.0,-2.0,-24.0,0.0,-12.0,-15.0,-10.0,49.0,0.0
-19.0,-6.0,-26.0,3.0,-17.0,-3.0,-20.0,-10.0,3.0,10.0,0.0
-33.0,-5.0,-29.0,8.0,-22.0,-7.0,-29.0,-17.0,15.0,-9.0,0.0
-29.0,-9.0,-32.0,-9.0,-17.0,-14.0,-23.0,-28.0,34.0,-13.0,0.0
-22.0,-2.0,-24.0,-16.0,-18.0,-18.0,-25.0,-28.0,32.0,-10.0,0.0
-28.0,-10.0,-24.0,-19.0,-7.0,-3.0,-24.0,-25.0,21.0,-11.0,0.0
-31.0,-23.0,-23.0,-19.0,16.0,8.0,-11.0,-23.0,17.0,-21.0,0.0
-31.0,-14.0,-22.0,-22.0,19.0,17.0,-3.0,-11.0,26.0,-28.0,0.0
-36.0,-14.0,-12.0,-14.0,0.0,12.0,-14.0,-21.0,22.0,-32.0,0.0
-44.0,-22.0,-3.0,0.0,8.0,0.0,-6.0,-34.0,-18.0,-50.0,0.0
-41.0,-37.0,0.0,9.0,26.0,3.0,7.0,-22.0,-41.0,-71.0,0.0
-18.0,-6.0,23.0,18.0,33.0,1.0,14.0,-9.0,-23.0,-51.0,0.0
19.0,24.0,51.0,39.0,33.0,0.0,23.0,4.0,-7.0,-25.0,0.0
33.0,38.0,60.0,47.0,36.0,3.0,24.0,25.0,-6.0,-16.0,0.0
22.0,27.0,53.0,47.0,38.0,13.0,24.0,35.0,-4.0,-25.0,0.0
-5.0,16.0,49.0,63.0,54.0,35.0,12.0,22.0,-24.0,-39.0,0.0
6.0,12.0,40.0,85.0,80.0,56.0,6.0,10.0,-35.0,-25.0,0.0
51.0,41.0,38.0,82.0,66.0,43.0,6.0,1.0,5.0,41.0,0.0
88.0,59.0,28.0,31.0,10.0,-3.0,2.0,21.0,38.0,92.0,0.0
79.0,35.0,18.0,-15.0,-31.0,-23.0,-15.0,24.0,26.0,78.0,0.0
61.0,16.0,2.0,-46.0,-45.0,-31.0,-20.0,11.0,16.0,52.0,0.0
33.0,-6.0,11.0,-47.0,-37.0,-22.0,-21.0,1.0,18.0,19.0,0.0
-6.0,-17.0,29.0,-47.0,-19.0,-13.0,-19.0,-10.0,-6.0,-13.0,0.0
-28.0,-32.0,22.0,-63.0,-18.0,-6.0,-9.0,-16.0,-18.0,-30.0,0.0
-22.0,-36.0,7.0,-70.0,-22.0,-13.0,-7.0,-5.0,-20.0,-22.0,0.0
0.0,-27.0,7.0,-68.0,-11.0,-18.0,-8.0,15.0,-24.0,3.0,0.0
25.0,-12.0,-4.0,-84.0,-14.0,-18.0,3.0,14.0,9.0,40.0,0.0
30.0,-9.0,-13.0,-89.0,-31.0,-20.0,-7.0,19.0,30.0,47.0,0.0
19.0,-18.0,-34.0,-75.0,-24.0,-23.0,-14.0,35.0,54.0,33.0,0.0
11.0,-13.0,-29.0,-23.0,-3.0,-15.0,-2.0,42.0,76.0,15.0,0.0
14.0,-3.0,-18.0,-8.0,0.0,-16.0,-2.0,34.0,59.0,-2.0,0.0
4.0,-11.0,-14.0,-26.0,3.0,-11.0,1.0,33.0,40.0,-3.0,0.0
-14.0,-13.0,-3.0,-26.0,6.0,15.0,5.0,36.0,31.0,5.0,0.0
-21.0,-8.0,-6.0,-31.0,5.0,22.0,-2.0,34.0,2.0,14.0,0.0
-16.0,0.0,0.0,-21.0,17.0,8.0,4.0,20.0,-35.0,0.0,0.0
-5.0,21.0,19.0,-4.0,28.0,8.0,11.0,2.0,-52.0,-8.0,0.0
-11.0,28.0,28.0,-11.0,20.0,11.0,-3.0,-2.0,-71.0,-21.0,0.0
-8.0,20.0,13.0,-17.0,6.0,17.0,-3.0,7.0,-59.0,-21.0,0.0
-2.0,6.0,0.0,-14.0,10.0,19.0,-4.0,19.0,-42.0,-19.0,0.0
-7.0,-3.0,-4.0,0.0,9.0,21.0,-5.0,8.0,-39.0,-29.0,0.0
-13.0,10.0,15.0,32.0,23.0,24.0,-12.0,-13.0,-47.0,-36.0,0.0
8.0,22.0,36.0,50.0,23.0,19.0,-16.0,-8.0,-52.0,-29.0,0.0
34.0,16.0,32.0,60.0,15.0,3.0,-17.0,-4.0,-40.0,-13.0,0.0
21.0,4.0,23.0,100.0,12.0,-2.0,-22.0,-4.0,-32.0,-23.0,0.0
-2.0,4.0,24.0,131.0,18.0,-1.0,-11.0,-2.0,-25.0,-40.0,0.0
-18.0,4.0,44.0,90.0,7.0,0.0,4.0,4.0,-13.0,-24.0,0.0
-17.0,-6.0,29.0,31.0,-19.0,-5.0,11.0,9.0,26.0,36.0,0.0
-14.0,-10.0,7.0,18.0,-19.0,-11.0,12.0,8.0,42.0,62.0,0.0
-18.0,-14.0,0.0,11.0,-9.0,-15.0,5.0,17.0,9.0,52.0,0.0
-35.0,-19.0,-6.0,-3.0,-6.0,-21.0,5.0,22.0,11.0,51.0,0.0
-39.0,-26.0,-16.0,-8.0,-14.0,-23.0,13.0,13.0,10.0,52.0,0.0
-28.0,-26.0,-19.0,-34.0,-13.0,-7.0,23.0,21.0,7.0,45.0,0.0
-20.0,-2.0,-21.0,-68.0,-31.0,5.0,17.0,29.0,5.0,43.0,0.0
-13.0,0.0,-11.0,-59.0,-31.0,0.0,9.0,21.0,4.0,36.0,0.0
-25.0,-5.0,10.0,-13.0,-8.0,-3.0,2.0,7.0,-9.0,16.0,0.0
-21.0,-2.0,-14.0,17.0,3.0,-7.0,-2.0,0.0,-11.0,6.0,0.0
-6.0,9.0,-79.0,19.0,-10.0,-7.0,-4.0,5.0,-6.0,16.0,0.0
0.0,24.0,-72.0,10.0,-11.0,-12.0,-2.0,7.0,-11.0,13.0,0.0
16.0,26.0,-29.0,13.0,0.0,-6.0,-7.0,3.0,-9.0,4.0,0.0
38.0,25.0,-5.0,34.0,9.0,-5.0,-7.0,9.0,4.0,20.0,0.0
48.0,24.0,-6.0,30.0,-5.0,-19.0,-13.0,9.0,15.0,50.0,0.0
35.0,8.0,-19.0,14.0,-13.0,-20.0,-12.0,11.0,24.0,41.0,0.0
28.0,8.0,-6.0,0.0,-6.0,-16.0,0.0,21.0,20.0,46.0,0.0
43.0,13.0,16.0,1.0,-9.0,-11.0,8.0,25.0,16.0,63.0,0.0
41.0,12.0,27.0,11.0,5.0,-4.0,18.0,19.0,3.0,43.0,0.0
27.0,18.0,34.0,19.0,17.0,0.0,23.0,10.0,-30.0,21.0,0.0
5.0,13.0,30.0,26.0,14.0,6.0,19.0,0.0,-38.0,9.0,0.0
