channel0,channel1,channel2,channel3,channel4,channel5,channel6,channel7,channel8,channel9,true_locs
-7.0,-20.0,-9.0,41.0,-33.0,-33.0,-17.0,0.0,-26.0,-1.0,0.0
-14.0,-24.0,-3.0,87.0,-6.0,-33.0,-22.0,-14.0,-32.0,-9.0,0.0
-24.0,-12.0,74.0,138.0,3.0,-24.0,-30.0,-15.0,-23.0,-11.0,0.0
-30.0,-14.0,150.0,104.0,15.0,-11.0,-17.0,-12.0,-19.0,0.0,0.0
-42.0,-31.0,160.0,16.0,25.0,5.0,-15.0,-11.0,-1.0,-11.0,0.0
-35.0,-38.0,46.0,-59.0,21.0,9.0,-7.0,8.0,1.0,-12.0,0.0
-24.0,-28.0,-108.0,-83.0,40.0,23.0,14.0,28.0,17.0,-1.0,0.0
-1.0,33.0,-71.0,-81.0,41.0,22.0,4.0,15.0,6.0,-1.0,0.0
8.0,55.0,-48.0,8.0,39.0,22.0,-14.0,6.0,0.0,-1.0,0.0
-3.0,7.0,-99.0,137.0,54.0,25.0,-12.0,0.0,-11.0,-11.0,0.0
-6.0,-21.0,-106.0,178.0,47.0,19.0,-7.0,4.0,-27.0,-9.0,0.0
-18.0,-26.0,-59.0,160.0,52.0,17.0,-13.0,9.0,-28.0,-22.0,0.0
-45.0,-34.0,2.0,128.0,54.0,6.0,-27.0,-8.0,-31.0,-50.0,0.0
-54.0,-46.0,17.0,59.0,41.0,0.0,-15.0,-20.0,-34.0,-59.0,0.0
-18.0,-11.0,72.0,15.0,-10.0,-32.0,-30.0,-10.0,-25.0,-30.0,0.0
36.0,71.0,124.0,-69.0,-79.0,-60.0,-38.0,2.0,3.0,6.0,0.0
83.0,122.0,101.0,-183.0,-120.0,-71.0,-18.0,22.0,35.0,33.0,0.0
62.0,76.0,42.0,-163.0,-124.0,-61.0,-15.0,35.0,38.0,34.0,0.0
14.0,21.0,24.0,-67.0,-59.0,-36.0,-22.0,9.0,5.0,-4.0,0.0
-11.0,8.0,52.0,6.0,46.0,-25.0,-34.0,-17.0,-22.0,-41.0,0.0
-37.0,3.0,99.0,73.0,119.0,-35.0,-48.0,-56.0,-59.0,-63.0,0.0
-55.0,10.0,165.0,156.0,150.0,-37.0,-62.0,-74.0,-79.0,-79.0,0.0
-55.0,6.0,140.0,184.0,142.0,-14.0,-60.0,-69.0,-72.0,-78.0,0.0
-40.0,1.0,51.0,115.0,98.0,5.0,-30.0,-41.0,-46.0,-54.0,0.0
4.0,17.0,-8.0,-43.0,-7.0,11.0,14.0,4.0,5.0,-3.0,0.0
44.0,32.0,-30.0,-198.0,-92.0,14.0,46.0,32.0,51.0,49.0,0.0
31.0,29.0,-23.0,-196.0,-100.0,23.0,54.0,47.0,64.0,61.0,0.0
30.0,15.0,-71.0,-217.0,-107.0,23.0,49.0,46.0,67.0,55.0,0.0
14.0,-2.0,-103.0,-218.0,-93.0,13.0,19.0,16.0,35.0,20.0,0.0
5.0,-15.0,-77.0,-142.0,-75.0,-4.0,-6.0,-14.0,-5.0,0.0,0.0
3.0,-34.0,-39.0,-70.0,-46.0,-12.0,-10.0,-13.0,-8.0,-8.0,0.0
-27.0,-25.0,-16.0,-40.0,16.0,-36.0,-39.0,-27.0,-28.0,-34.0,0.0
-41.0,17.0,11.0,0.0,85.0,-82.0,-74.0,-40.0,-32.0,-28.0,0.0
-9.0,42.0,22.0,68.0,111.0,-93.0,-46.0,-7.0,1.0,7.0,0.0
15.0,23.0,-54.0,195.0,142.0,-1.0,23.0,46.0,53.0,53.0,0.0
42.0,21.0,-147.0,189.0,105.0,77.0,84.0,90.0,93.0,77.0,0.0
60.0,52.0,-109.0,5.0,-52.0,39.0,82.0,98.0,94.0,79.0,0.0
76.0,94.0,-32.0,-110.0,-123.0,2.0,84.0,99.0,98.0,91.0,0.0
67.0,80.0,-25.0,-153.0,-66.0,18.0,77.0,82.0,73.0,62.0,0.0
30.0,30.0,-56.0,-146.0,12.0,29.0,54.0,39.0,29.0,2.0,0.0
-1.0,13.0,-32.0,-47.0,92.0,23.0,28.0,-2.0,-2.0,-28.0,0.0
8.0,18.0,-10.0,-3.0,101.0,12.0,11.0,-13.0,9.0,-10.0,0.0
27.0,26.0,9.0,-6.0,93.0,22.0,22.0,-8.0,32.0,13.0,0.0
57.0,71.0,34.0,-84.0,11.0,29.0,29.0,4.0,34.0,18.0,0.0
53.0,98.0,70.0,-136.0,-101.0,19.0,18.0,14.0,27.0,6.0,0.0
22.0,62.0,80.0,-73.0,-117.0,18.0,8.0,15.0,28.0,7.0,0.0
19.0,47.0,66.0,43.0,-99.0,13.0,17.0,32.0,34.0,24.0,0.0
28.0,49.0,70.0,-8.0,-113.0,-17.0,9.0,20.0,28.0,28.0,0.0
16.0,41.0,51.0,-55.0,-92.0,-46.0,-21.0,0.0,10.0,6.0,0.0
8.0,14.0,33.0,-26.0,-44.0,-61.0,-39.0,-8.0,-9.0,4.0,0.0
-30.0,-16.0,53.0,139.0,21.0,-58.0,-44.0,-34.0,-28.0,-19.0,0.0
-39.0,-20.0,24.0,146.0,45.0,-44.0,-42.0,-40.0,-32.0,-22.0,0.0
-9.0,6.0,-23.0,35.0,30.0,-34.0,-12.0,-14.0,-2.0,8.0,0.0
2.0,12.0,-21.0,27.0,28.0,-14.0,16.0,-9.0,7.0,17.0,0.0
-21.0,-3.0,95.0,94.0,35.0,-20.0,-13.0,-25.0,-11.0,-8.0,0.0
-49.0,-33.0,243.0,161.0,49.0,-17.0,-30.0,-33.0,-43.0,-34.0,0.0
-69.0,-46.0,279.0,193.0,63.0,-5.0,-30.0,-54.0,-70.0,-64.0,0.0
-76.0,-48.0,188.0,165.0,45.0,4.0,-27.0,-72.0,-67.0,-73.0,0.0
-57.0,-36.0,19.0,99.0,20.0,23.0,-12.0,-50.0,-49.0,-52.0,0.0
-41.0,-25.0,-47.0,98.0,37.0,26.0,-9.0,-28.0,-47.0,-46.0,0.0
-41.0,-15.0,-101.0,88.0,55.0,28.0,-2.0,-21.0,-38.0,-44.0,0.0
-20.0,-8.0,-182.0,11.0,39.0,33.0,17.0,1.0,-13.0,-12.0,0.0
-7.0,-13.0,-218.0,-58.0,0.0,29.0,41.0,44.0,16.0,23.0,0.0
-13.0,-28.0,-135.0,-32.0,0.0,8.0,45.0,61.0,16.0,15.0,0.0
-22.0,-45.0,-44.0,24.0,19.0,4.0,22.0,83.0,2.0,-2.0,0.0
-31.0,-62.0,-32.0,24.0,47.0,7.0,15.0,90.0,-1.0,-10.0,0.0
-39.0,-56.0,-68.0,37.0,45.0,-2.0,21.0,73.0,-9.0,-11.0,0.0
-30.0,-34.0,-64.0,52.0,24.0,-6.0,1.0,-8.0,-34.0,-20.0,0.0
-14.0,-5.0,-11.0,51.0,37.0,-5.0,-25.0,-90.0,-36.0,-20.0,0.0
-9.0,-16.0,-18.0,80.0,66.0,-5.0,-51.0,-94.0,-18.0,-10.0,0.0
-7.0,-31.0,-30.0,58.0,51.0,1.0,-48.0,-59.0,0.0,10.0,0.0
1.0,-22.0,-21.0,6.0,22.0,21.0,-31.0,-31.0,13.0,33.0,0.0
12.0,11.0,-21.0,-22.0,20.0,33.0,-17.0,-19.0,1.0,42.0,0.0
4.0,25.0,-12.0,-40.0,16.0,33.0,-12.0,-20.0,-17.0,21.0,0.0
-25.0,-2.0,0.0,-37.0,-9.0,25.0,-14.0,-16.0,-5.0,-10.0,0.0
-30.0,-18.0,-6.0,-33.0,-15.0,28.0,-6.0,-9.0,-3.0,-11.0,0.0
-21.0,-16.0,-34.0,-90.0,-32.0,26.0,1.0,2.0,-14.0,2.0,0.0
5.0,-6.0,-25.0,-125.0,-45.0,10.0,1.0,5.0,-14.0,14.0,0.0
25.0,24.0,15.0,-109.0,-57.0,4.0,7.0,3.0,-10.0,16.0,0.0
28.0,44.0,30.0,-84.0,-55.0,0.0,6.0,-2.0,-10.0,16.0,0.0
41.0,39.0,3.0,-60.0,-58.0,-27.0,3.0,6.0,-6.0,30.0,0.0
15.0,21.0,8.0,-34.0,-51.0,-50.0,0.0,4.0,-2.0,26.0,0.0
-16.0,8.0,70.0,-34.0,-39.0,-62.0,-33.0,-11.0,-39.0,-2.0,0.0
-29.0,-1.0,127.0,26.0,-21.0,-71.0,-66.0,-40.0,-69.0,-29.0,0.0
-23.0,1.0,140.0,72.0,-4.0,-71.0,-53.0,-47.0,-62.0,-29.0,0.0
-2.0,18.0,66.0,0.0,-23.0,-62.0,-50.0,-30.0,-37.0,-15.0,0.0
18.0,30.0,-41.0,-102.0,-58.0,-72.0,-35.0,-8.0,-5.0,10.0,0.0
45.0,48.0,-105.0,-123.0,-58.0,-64.0,-10.0,17.0,18.0,46.0,0.0
55.0,45.0,-158.0,-58.0,-12.0,-15.0,33.0,44.0,39.0,60.0,0.0
45.0,8.0,-156.0,-14.0,13.0,34.0,61.0,58.0,58.0,59.0,0.0
-9.0,1.0,22.0,55.0,-14.0,-5.0,3.0,13.0,-29.0,13.0,0.0
3.0,-8.0,-40.0,109.0,26.0,34.0,11.0,36.0,-19.0,33.0,0.0
35.0,-22.0,-117.0,93.0,63.0,38.0,10.0,49.0,-5.0,39.0,0.0
39.0,-29.0,-93.0,13.0,23.0,-29.0,-31.0,17.0,-63.0,16.0,0.0
16.0,13.0,-29.0,-10.0,-14.0,-34.0,-21.0,14.0,-7.0,16.0,0.0
-2.0,-1.0,8.0,41.0,23.0,-24.0,-20.0,-1.0,-16.0,-9.0,0.0
-20.0,-13.0,13.0,95.0,64.0,-9.0,-25.0,-12.0,-30.0,-35.0,0.0
-19.0,-25.0,4.0,77.0,63.0,-1.0,-27.0,-3.0,-28.0,-27.0,0.0
22.0,6.0,21.0,19.0,14.0,22.0,20.0,42.0,44.0,21.0,0.0
44.0,3.0,26.0,-38.0,15.0,41.0,42.0,62.0,77.0,49.0,0.0
55.0,2.0,27.0,-96.0,3.0,71.0,48.0,45.0,62.0,35.0,1.0
33.0,-14.0,39.0,-35.0,-45.0,-3.0,-2.0,1.0,-24.0,-3.0,1.0
21.0,55.0,57.0,60.0,-72.0,-14.0,-13.0,-10.0,-9.0,-9.0,1.0
9.0,83.0,66.0,61.0,-78.0,-16.0,-24.0,-23.0,-11.0,-22.0,1.0
-3.0,42.0,76.0,34.0,-73.0,-5.0,-13.0,-10.0,-5.0,-20.0,1.0
-25.0,-6.0,53.0,21.0,-56.0,1.0,2.0,-1.0,7.0,-17.0,1.0
-56.0,-42.0,24.0,36.0,-23.0,3.0,-5.0,-11.0,-5.0,-37.0,1.0
-81.0,-57.0,8.0,65.0,8.0,13.0,-13.0,-24.0,-41.0,-64.0,1.0
-79.0,-32.0,-6.0,37.0,9.0,19.0,-15.0,-33.0,-49.0,-82.0,1.0
-65.0,-18.0,-36.0,-23.0,24.0,43.0,15.0,-18.0,-38.0,-71.0,1.0
-34.0,-16.0,-9.0,-79.0,16.0,43.0,57.0,-5.0,27.0,-44.0,1.0
-16.0,3.0,64.0,-91.0,-7.0,1.0,48.0,-7.0,39.0,-41.0,1.0
-10.0,13.0,60.0,-137.0,-18.0,-54.0,2.0,8.0,-7.0,-33.0,1.0
3.0,11.0,0.0,-248.0,-46.0,-56.0,16.0,46.0,5.0,4.0,1.0
-9.0,-27.0,-31.0,-160.0,-34.0,-56.0,8.0,48.0,-4.0,-7.0,1.0
13.0,-5.0,-27.0,86.0,28.0,-34.0,20.0,71.0,18.0,24.0,1.0
69.0,57.0,-6.0,75.0,44.0,-18.0,35.0,52.0,40.0,57.0,1.0
65.0,67.0,29.0,34.0,41.0,-9.0,21.0,21.0,30.0,40.0,1.0
-2.0,20.0,69.0,205.0,69.0,29.0,7.0,-22.0,-1.0,-19.0,0.0
-37.0,-5.0,43.0,373.0,126.0,65.0,19.0,-38.0,-8.0,-32.0,0.0
-20.0,14.0,-12.0,329.0,136.0,61.0,12.0,-38.0,-8.0,-20.0,0.0
-18.0,7.0,38.0,282.0,104.0,20.0,-20.0,-70.0,-32.0,-31.0,0.0
0.0,28.0,165.0,207.0,42.0,0.0,-38.0,-84.0,-38.0,-25.0,0.0
9.0,49.0,303.0,133.0,-12.0,5.0,-37.0,-61.0,-38.0,-18.0,0.0
2.0,31.0,247.0,59.0,-66.0,12.0,-14.0,-34.0,-17.0,-10.0,0.0
-17.0,-11.0,125.0,-18.0,-93.0,-18.0,-25.0,-31.0,-21.0,-34.0,0.0
-17.0,-24.0,-48.0,-139.0,-93.0,-32.0,-22.0,-18.0,-10.0,-38.0,0.0
40.0,23.0,-173.0,-269.0,-100.0,-4.0,5.0,13.0,27.0,13.0,0.0
111.0,75.0,-237.0,-335.0,-124.0,1.0,26.0,48.0,59.0,55.0,0.0
122.0,86.0,-220.0,-356.0,-146.0,-28.0,23.0,60.0,53.0,74.0,0.0
87.0,54.0,-152.0,-305.0,-141.0,-45.0,-5.0,37.0,35.0,57.0,0.0
58.0,41.0,-78.0,-214.0,-109.0,-41.0,-12.0,28.0,14.0,29.0,0.0
35.0,24.0,-32.0,-91.0,-69.0,-12.0,3.0,33.0,18.0,12.0,0.0
27.0,14.0,-18.0,45.0,-12.0,20.0,29.0,36.0,36.0,12.0,0.0
28.0,19.0,4.0,22.0,-5.0,24.0,19.0,23.0,19.0,4.0,0.0
22.0,15.0,48.0,-8.0,-13.0,17.0,4.0,5.0,-4.0,-13.0,0.0
0.0,-13.0,55.0,-6.0,6.0,30.0,22.0,2.0,-13.0,-22.0,0.0
-11.0,-48.0,0.0,2.0,77.0,50.0,33.0,2.0,-15.0,-27.0,0.0
-10.0,-60.0,-47.0,46.0,141.0,52.0,33.0,-2.0,-14.0,-30.0,0.0
-5.0,-44.0,-53.0,111.0,162.0,39.0,20.0,-16.0,-17.0,-34.0,0.0
-60.0,-57.0,55.0,257.0,29.0,-4.0,86.0,-48.0,61.0,-72.0,0.0
-35.0,-63.0,86.0,146.0,-142.0,-78.0,40.0,-61.0,-12.0,-68.0,0.0
-8.0,-45.0,83.0,-3.0,-211.0,-98.0,28.0,-49.0,-9.0,-39.0,0.0
18.0,0.0,71.0,-148.0,-117.0,-35.0,77.0,-1.0,64.0,-7.0,0.0
31.0,22.0,36.0,-289.0,-1.0,27.0,128.0,49.0,137.0,6.0,0.0
7.0,-14.0,2.0,-324.0,74.0,64.0,130.0,54.0,135.0,-7.0,0.0
-26.0,-35.0,-16.0,-143.0,192.0,77.0,97.0,23.0,96.0,-37.0,0.0
-3.0,-11.0,3.0,-68.0,135.0,51.0,65.0,12.0,79.0,-26.0,0.0
15.0,3.0,11.0,-61.0,-17.0,23.0,21.0,12.0,38.0,-6.0,0.0
5.0,2.0,5.0,-80.0,-121.0,-16.0,-26.0,10.0,-15.0,-5.0,0.0
1.0,-13.0,11.0,-129.0,-98.0,-18.0,-33.0,6.0,-23.0,-16.0,0.0
2.0,-31.0,6.0,-152.0,-33.0,9.0,-34.0,0.0,-29.0,-21.0,0.0
-23.0,-56.0,-8.0,-144.0,-13.0,29.0,-14.0,1.0,-34.0,-17.0,0.0
-45.0,-73.0,-25.0,-138.0,-38.0,27.0,-17.0,3.0,-39.0,-26.0,0.0
-58.0,-65.0,5.0,-22.0,-23.0,18.0,-29.0,-4.0,-43.0,-36.0,0.0
-55.0,-30.0,33.0,77.0,10.0,14.0,-19.0,-7.0,-40.0,-39.0,0.0
-36.0,33.0,46.0,61.0,49.0,42.0,25.0,8.0,13.0,-14.0,0.0
-31.0,51.0,64.0,42.0,50.0,37.0,19.0,3.0,11.0,-4.0,0.0
-28.0,36.0,55.0,57.0,27.0,-4.0,-29.0,-2.0,-22.0,-5.0,0.0
-28.0,49.0,40.0,114.0,38.0,-18.0,-41.0,-10.0,-13.0,-2.0,0.0
-47.0,48.0,45.0,172.0,86.0,15.0,-35.0,-1.0,6.0,-12.0,0.0
-55.0,10.0,57.0,143.0,109.0,-13.0,-37.0,16.0,-21.0,-12.0,0.0
-64.0,-19.0,66.0,143.0,107.0,-38.0,-50.0,0.0,-46.0,-25.0,0.0
-63.0,-42.0,57.0,142.0,97.0,-41.0,-62.0,-21.0,-50.0,-39.0,0.0
-35.0,-32.0,27.0,85.0,74.0,-36.0,-51.0,-21.0,-45.0,-34.0,0.0
16.0,0.0,-47.0,-27.0,15.0,-23.0,-14.0,15.0,-12.0,3.0,0.0
24.0,24.0,-120.0,-127.0,-48.0,-4.0,7.0,44.0,21.0,26.0,0.0
1.0,30.0,-93.0,-159.0,-105.0,-2.0,7.0,36.0,19.0,25.0,0.0
-13.0,34.0,-19.0,-94.0,-111.0,-11.0,12.0,48.0,-2.0,-7.0,0.0
-10.0,40.0,2.0,-37.0,-72.0,-18.0,13.0,57.0,0.0,-8.0,0.0
-14.0,5.0,-28.0,-39.0,-45.0,-19.0,19.0,91.0,0.0,-7.0,0.0
-29.0,-21.0,-11.0,-21.0,-18.0,0.0,37.0,100.0,1.0,-19.0,0.0
-33.0,-39.0,10.0,28.0,3.0,1.0,29.0,71.0,1.0,-26.0,0.0
-25.0,-30.0,28.0,93.0,1.0,-18.0,-23.0,-6.0,-19.0,-17.0,0.0
-11.0,7.0,25.0,125.0,0.0,-30.0,-41.0,-88.0,-15.0,0.0,0.0
3.0,8.0,19.0,132.0,16.0,-26.0,-27.0,-85.0,-3.0,1.0,0.0
3.0,8.0,24.0,86.0,16.0,-24.0,-30.0,-59.0,15.0,12.0,0.0
-2.0,8.0,16.0,56.0,7.0,-31.0,-35.0,-43.0,23.0,8.0,0.0
0.0,-9.0,8.0,38.0,-1.0,-27.0,-41.0,-43.0,4.0,0.0,0.0
3.0,-14.0,-3.0,39.0,-3.0,-30.0,-26.0,-38.0,6.0,-11.0,0.0
13.0,-13.0,-18.0,31.0,18.0,-20.0,-7.0,-21.0,15.0,-11.0,0.0
11.0,-13.0,-8.0,29.0,21.0,-2.0,-11.0,-12.0,10.0,-13.0,0.0
-6.0,-22.0,-15.0,14.0,13.0,1.0,-10.0,-25.0,-6.0,-20.0,0.0
-7.0,-14.0,-5.0,3.0,16.0,-1.0,-5.0,-26.0,-15.0,-9.0,0.0
-6.0,-10.0,23.0,8.0,15.0,0.0,-2.0,-26.0,-26.0,-13.0,0.0
-4.0,-4.0,29.0,12.0,11.0,4.0,3.0,-19.0,-32.0,-23.0,0.0
0.0,-7.0,2.0,21.0,12.0,2.0,1.0,-7.0,-25.0,-19.0,0.0
0.0,-32.0,-9.0,12.0,14.0,11.0,3.0,1.0,-9.0,-12.0,0.0
-9.0,-39.0,-2.0,26.0,9.0,20.0,35.0,-5.0,35.0,-9.0,0.0
-11.0,-31.0,16.0,58.0,13.0,15.0,28.0,-10.0,47.0,-23.0,0.0
-6.0,-32.0,33.0,77.0,8.0,-10.0,-11.0,-9.0,10.0,-21.0,0.0
-16.0,-37.0,52.0,93.0,32.0,-8.0,-32.0,-16.0,-7.0,-21.0,0.0
-34.0,-65.0,19.0,122.0,83.0,-10.0,-39.0,-34.0,-32.0,-41.0,0.0
-48.0,-92.0,-5.0,192.0,110.0,-16.0,-30.0,-24.0,-38.0,-53.0,0.0
-51.0,-77.0,-36.0,232.0,108.0,-17.0,-26.0,-4.0,-45.0,-52.0,0.0
-36.0,-56.0,-68.0,139.0,80.0,29.0,-14.0,-1.0,-45.0,-49.0,0.0
-25.0,-32.0,-3.0,43.0,85.0,83.0,3.0,-9.0,-34.0,-42.0,0.0
-36.0,-10.0,148.0,18.0,95.0,76.0,0.0,-32.0,-38.0,-54.0,0.0
-58.0,-13.0,214.0,-40.0,74.0,49.0,-20.0,-33.0,-59.0,-55.0,0.0
-87.0,-30.0,146.0,-10.0,105.0,38.0,-33.0,-38.0,-75.0,-79.0,0.0
-105.0,-39.0,88.0,118.0,126.0,27.0,-65.0,-60.0,-96.0,-115.0,0.0
-71.0,-3.0,77.0,143.0,64.0,-22.0,-54.0,-47.0,-70.0,-84.0,0.0
-8.0,41.0,91.0,84.0,21.0,-37.0,-19.0,-13.0,-31.0,-22.0,0.0
52.0,75.0,27.0,-60.0,-22.0,-26.0,10.0,22.0,13.0,32.0,0.0
104.0,120.0,-115.0,-232.0,-109.0,-33.0,20.0,37.0,45.0,64.0,0.0
115.0,111.0,-236.0,-292.0,-147.0,-32.0,37.0,52.0,68.0,97.0,0.0
115.0,55.0,-256.0,-257.0,-132.0,-30.0,48.0,79.0,81.0,117.0,0.0
115.0,32.0,-189.0,-222.0,-110.0,-20.0,43.0,86.0,63.0,111.0,0.0
87.0,21.0,-127.0,-156.0,-97.0,-12.0,27.0,70.0,46.0,85.0,0.0
74.0,11.0,-82.0,-118.0,-147.0,-41.0,7.0,64.0,53.0,60.0,0.0
77.0,25.0,-40.0,-118.0,-192.0,-69.0,-4.0,40.0,47.0,61.0,0.0
77.0,24.0,-36.0,-168.0,-184.0,-79.0,8.0,44.0,66.0,63.0,0.0
85.0,19.0,-68.0,-209.0,-142.0,-61.0,21.0,49.0,53.0,58.0,0.0
82.0,19.0,-110.0,-307.0,-146.0,-65.0,2.0,51.0,32.0,57.0,0.0
55.0,19.0,-116.0,-349.0,-155.0,-60.0,-11.0,36.0,13.0,35.0,0.0
20.0,13.0,-44.0,-202.0,-142.0,-71.0,-30.0,-3.0,-37.0,-6.0,0.0
15.0,31.0,8.0,-202.0,-148.0,-81.0,-40.0,-23.0,-55.0,-10.0,0.0
6.0,9.0,26.0,-284.0,-141.0,-62.0,-34.0,-13.0,-27.0,11.0,0.0
-5.0,-17.0,0.0,-222.0,-106.0,-20.0,-17.0,0.0,-2.0,16.0,0.0
9.0,-18.0,-37.0,-128.0,-69.0,7.0,20.0,19.0,26.0,41.0,0.0
20.0,-12.0,-62.0,6.0,9.0,58.0,67.0,39.0,66.0,61.0,0.0
-20.0,-40.0,-79.0,196.0,107.0,98.0,62.0,31.0,35.0,10.0,0.0
-51.0,-71.0,-40.0,410.0,166.0,93.0,37.0,6.0,-9.0,-27.0,0.0
-36.0,-49.0,-3.0,483.0,176.0,74.0,34.0,13.0,-11.0,-6.0,0.0
-35.0,-27.0,7.0,392.0,147.0,59.0,27.0,14.0,-22.0,-3.0,0.0
-32.0,-26.0,23.0,267.0,104.0,45.0,16.0,-2.0,-39.0,-5.0,0.0
-24.0,-50.0,16.0,156.0,72.0,40.0,2.0,-14.0,-58.0,-3.0,0.0
-33.0,-84.0,-4.0,97.0,56.0,36.0,8.0,-4.0,-32.0,9.0,0.0
-38.0,-75.0,0.0,63.0,39.0,54.0,54.0,4.0,41.0,20.0,0.0
-36.0,-72.0,6.0,53.0,40.0,52.0,35.0,-7.0,-1.0,7.0,0.0
-32.0,-65.0,22.0,71.0,35.0,41.0,6.0,-11.0,-26.0,0.0,0.0
-20.0,-54.0,40.0,103.0,43.0,43.0,10.0,-17.0,-26.0,-6.0,0.0
-56.0,-47.0,194.0,170.0,80.0,39.0,-9.0,-49.0,-56.0,-40.0,0.0
-118.0,-89.0,338.0,312.0,144.0,28.0,-67.0,-116.0,-115.0,-102.0,0.0
-101.0,-65.0,284.0,256.0,119.0,1.0,-79.0,-105.0,-101.0,-91.0,0.0
-58.0,-48.0,129.0,161.0,126.0,71.0,-54.0,-70.0,-87.0,-60.0,0.0
-48.0,-55.0,16.0,35.0,92.0,83.0,-53.0,-70.0,-132.0,-69.0,0.0
-32.0,-23.0,-20.0,-45.0,-13.0,-51.0,-90.0,-62.0,-124.0,-41.0,0.0
28.0,38.0,-115.0,-137.0,-73.0,-46.0,-36.0,-1.0,-12.0,26.0,0.0
90.0,47.0,-243.0,-223.0,-109.0,-23.0,8.0,38.0,46.0,92.0,0.0
114.0,37.0,-250.0,-195.0,-94.0,-7.0,28.0,51.0,67.0,105.0,0.0
88.0,11.0,-174.0,-142.0,-81.0,-3.0,35.0,50.0,61.0,82.0,0.0
40.0,-13.0,-89.0,-90.0,-72.0,-7.0,11.0,21.0,34.0,41.0,0.0
-7.0,-49.0,-68.0,-92.0,-75.0,-23.0,-14.0,-12.0,-10.0,-22.0,0.0
-34.0,-46.0,-55.0,-111.0,-80.0,-33.0,-38.0,-42.0,-31.0,-53.0,0.0
-20.0,-1.0,-25.0,-69.0,-51.0,-21.0,-47.0,-41.0,-35.0,-42.0,0.0
-6.0,12.0,-37.0,42.0,49.0,6.0,-44.0,-40.0,-43.0,-38.0,0.0
18.0,15.0,-24.0,86.0,109.0,-2.0,-27.0,-37.0,-15.0,-17.0,0.0
52.0,46.0,-7.0,14.0,46.0,-8.0,-1.0,-6.0,37.0,32.0,0.0
72.0,40.0,7.0,-67.0,11.0,7.0,12.0,27.0,79.0,57.0,0.0
64.0,33.0,12.0,-106.0,16.0,-13.0,-5.0,21.0,60.0,35.0,0.0
34.0,30.0,17.0,-66.0,18.0,-23.0,-23.0,-4.0,29.0,9.0,0.0
10.0,32.0,42.0,-63.0,-2.0,-43.0,-27.0,0.0,26.0,12.0,0.0
22.0,38.0,63.0,-43.0,6.0,-49.0,-14.0,9.0,38.0,15.0,0.0
32.0,40.0,89.0,4.0,34.0,-27.0,-1.0,8.0,42.0,15.0,0.0
31.0,63.0,90.0,13.0,40.0,-5.0,-7.0,23.0,40.0,26.0,0.0
57.0,86.0,53.0,-37.0,1.0,3.0,21.0,56.0,66.0,52.0,0.0
70.0,58.0,36.0,-94.0,-57.0,10.0,38.0,78.0,76.0,59.0,0.0
67.0,33.0,1.0,-102.0,-81.0,18.0,37.0,80.0,85.0,62.0,0.0
56.0,36.0,-27.0,-103.0,-73.0,5.0,39.0,83.0,94.0,77.0,0.0
80.0,50.0,-53.0,-225.0,-71.0,-16.0,45.0,92.0,113.0,93.0,0.0
55.0,37.0,-48.0,-288.0,-67.0,-14.0,35.0,79.0,99.0,55.0,0.0
5.0,14.0,-12.0,-174.0,-13.0,1.0,50.0,30.0,86.0,-9.0,0.0
-20.0,-13.0,-19.0,-54.0,4.0,8.0,30.0,0.0,52.0,-35.0,0.0
-44.0,-24.0,-16.0,-12.0,12.0,19.0,-16.0,-3.0,-1.0,-40.0,0.0
-70.0,-39.0,-12.0,35.0,35.0,22.0,-26.0,-23.0,-28.0,-52.0,0.0
-72.0,-32.0,-28.0,-7.0,24.0,35.0,-28.0,-21.0,-24.0,-42.0,0.0
-66.0,-29.0,-21.0,0.0,24.0,35.0,-16.0,-11.0,-32.0,-42.0,0.0
-69.0,-42.0,20.0,177.0,60.0,33.0,-26.0,-21.0,-47.0,-55.0,0.0
-72.0,-46.0,59.0,306.0,85.0,36.0,-21.0,-13.0,-50.0,-69.0,0.0
-62.0,-45.0,42.0,199.0,69.0,59.0,-15.0,-3.0,-39.0,-56.0,0.0
-50.0,-43.0,31.0,111.0,53.0,43.0,-17.0,-11.0,-28.0,-48.0,0.0
-47.0,-35.0,26.0,84.0,31.0,9.0,-22.0,-12.0,-5.0,-26.0,0.0
-42.0,-31.0,25.0,77.0,23.0,0.0,-16.0,3.0,3.0,-17.0,0.0
-30.0,-19.0,32.0,58.0,18.0,-3.0,-19.0,-1.0,-5.0,-15.0,0.0
-14.0,-10.0,38.0,52.0,17.0,-17.0,-16.0,-20.0,-1.0,-2.0,0.0
-8.0,8.0,42.0,47.0,17.0,-49.0,-21.0,-30.0,-11.0,13.0,0.0
-8.0,28.0,43.0,47.0,13.0,-59.0,-38.0,-34.0,-20.0,11.0,0.0
-26.0,9.0,61.0,10.0,5.0,-54.0,-34.0,-49.0,-25.0,-16.0,0.0
-50.0,-22.0,117.0,18.0,23.0,-44.0,-34.0,-50.0,-41.0,-33.0,0.0
-61.0,-25.0,140.0,57.0,19.0,-41.0,-35.0,-56.0,-52.0,-53.0,0.0
-58.0,-4.0,129.0,81.0,10.0,-42.0,-29.0,-70.0,-66.0,-70.0,0.0
-52.0,6.0,80.0,116.0,24.0,-24.0,-30.0,-68.0,-64.0,-64.0,0.0
-34.0,-6.0,13.0,111.0,26.0,6.0,-9.0,-48.0,-42.0,-41.0,0.0
2.0,4.0,-23.0,90.0,56.0,46.0,31.0,-3.0,-2.0,10.0,0.0
30.0,21.0,-90.0,32.0,122.0,86.0,64.0,40.0,39.0,46.0,0.0
32.0,26.0,-96.0,-20.0,130.0,93.0,63.0,45.0,46.0,58.0,0.0
36.0,27.0,-63.0,-31.0,134.0,84.0,66.0,46.0,44.0,61.0,0.0
44.0,29.0,-44.0,-5.0,88.0,65.0,65.0,36.0,40.0,57.0,0.0
29.0,34.0,2.0,41.0,70.0,36.0,45.0,26.0,24.0,44.0,0.0
4.0,26.0,48.0,42.0,54.0,27.0,21.0,4.0,14.0,31.0,0.0
-1.0,-7.0,55.0,17.0,41.0,67.0,11.0,-9.0,-7.0,12.0,0.0
-6.0,-32.0,39.0,-10.0,-15.0,11.0,-2.0,-12.0,-20.0,-1.0,0.0
-15.0,-34.0,33.0,-64.0,-89.0,-23.0,14.0,11.0,7.0,0.0,0.0
-15.0,-18.0,30.0,-83.0,-104.0,-23.0,35.0,31.0,4.0,3.0,0.0
-6.0,-9.0,7.0,-46.0,-40.0,3.0,37.0,62.0,0.0,-3.0,0.0
-1.0,-8.0,3.0,17.0,8.0,11.0,37.0,86.0,-1.0,0.0,0.0
-8.0,-6.0,33.0,55.0,10.0,3.0,40.0,78.0,-7.0,3.0,0.0
-20.0,-14.0,23.0,12.0,-7.0,5.0,18.0,5.0,-27.0,-12.0,0.0
-28.0,-25.0,-47.0,-28.0,12.0,35.0,0.0,-76.0,-44.0,-19.0,0.0
-15.0,-2.0,-72.0,-76.0,6.0,45.0,-1.0,-75.0,-22.0,6.0,0.0
25.0,47.0,-52.0,-138.0,-48.0,42.0,10.0,-28.0,19.0,46.0,0.0
57.0,69.0,-49.0,-173.0,-59.0,54.0,38.0,-10.0,47.0,58.0,0.0
48.0,69.0,5.0,-94.0,-2.0,36.0,23.0,-26.0,23.0,48.0,0.0
29.0,62.0,76.0,-58.0,-11.0,-2.0,-13.0,-42.0,7.0,32.0,0.0
0.0,22.0,69.0,-32.0,-23.0,-28.0,-43.0,-74.0,-9.0,-3.0,0.0
-37.0,-6.0,-20.0,19.0,-2.0,-29.0,-53.0,-72.0,-17.0,-32.0,0.0
-58.0,-21.0,-56.0,49.0,-9.0,-33.0,-61.0,-72.0,-31.0,-49.0,0.0
-32.0,6.0,-20.0,44.0,-14.0,-40.0,-59.0,-68.0,-20.0,-42.0,0.0
41.0,25.0,-17.0,0.0,-69.0,-58.0,-33.0,-15.0,12.0,35.0,0.0
32.0,24.0,25.0,63.0,-18.0,-33.0,-7.0,0.0,37.0,48.0,0.0
-29.0,-3.0,188.0,161.0,40.0,23.0,-9.0,-25.0,-11.0,-9.0,0.0
-105.0,-68.0,289.0,251.0,42.0,26.0,-69.0,-84.0,-148.0,-109.0,0.0
-143.0,-69.0,267.0,260.0,27.0,-22.0,-94.0,-103.0,-144.0,-138.0,0.0
-139.0,-80.0,83.0,192.0,65.0,1.0,-51.0,-65.0,-56.0,-99.0,0.0
-93.0,-81.0,-105.0,48.0,101.0,19.0,-12.0,-18.0,4.0,-36.0,0.0
7.0,-30.0,-257.0,-132.0,58.0,25.0,29.0,21.0,68.0,39.0,0.0
60.0,6.0,-321.0,-239.0,-61.0,27.0,57.0,65.0,97.0,107.0,0.0
67.0,4.0,-327.0,-308.0,-117.0,23.0,62.0,66.0,87.0,101.0,0.0
74.0,4.0,-252.0,-264.0,-86.0,22.0,42.0,40.0,50.0,68.0,0.0
49.0,7.0,-124.0,-131.0,-30.0,26.0,31.0,21.0,31.0,38.0,0.0
2.0,-31.0,47.0,47.0,-12.0,-47.0,-29.0,-54.0,-35.0,-19.0,0.0
7.0,-28.0,35.0,12.0,-47.0,-59.0,-38.0,-47.0,-15.0,-14.0,0.0
23.0,0.0,-28.0,-86.0,-84.0,-9.0,-12.0,-19.0,10.0,6.0,0.0
41.0,29.0,-105.0,-101.0,-62.0,4.0,-4.0,12.0,-12.0,19.0,0.0
67.0,56.0,-157.0,-51.0,-17.0,-21.0,22.0,62.0,17.0,51.0,0.0
79.0,84.0,-139.0,-35.0,27.0,23.0,69.0,86.0,88.0,72.0,0.0
63.0,60.0,-100.0,0.0,36.0,30.0,59.0,65.0,85.0,54.0,0.0
48.0,42.0,-77.0,-2.0,3.0,28.0,45.0,53.0,59.0,44.0,0.0
30.0,31.0,-65.0,15.0,-33.0,6.0,34.0,41.0,34.0,28.0,0.0
10.0,24.0,-51.0,35.0,-44.0,-5.0,29.0,34.0,35.0,25.0,0.0
17.0,11.0,-47.0,10.0,-37.0,2.0,36.0,29.0,22.0,21.0,0.0
6.0,-1.0,-48.0,-40.0,-24.0,18.0,28.0,33.0,11.0,23.0,0.0
3.0,-17.0,-77.0,-106.0,-32.0,25.0,25.0,28.0,10.0,19.0,0.0
15.0,-24.0,-85.0,-159.0,-55.0,-4.0,9.0,6.0,8.0,5.0,0.0
1.0,-12.0,-35.0,-207.0,-97.0,-52.0,-17.0,-18.0,-4.0,-8.0,0.0
-1.0,13.0,20.0,-252.0,-116.0,-75.0,-38.0,-21.0,-11.0,-1.0,0.0
29.0,28.0,28.0,-218.0,-76.0,-69.0,-24.0,-4.0,6.0,5.0,0.0
7.0,28.0,41.0,-21.0,0.0,-52.0,-34.0,-5.0,-15.0,-12.0,0.0
-7.0,25.0,59.0,155.0,78.0,-29.0,-28.0,-14.0,-27.0,-9.0,0.0
-1.0,18.0,27.0,167.0,95.0,-5.0,1.0,10.0,-9.0,7.0,0.0
-33.0,-12.0,6.0,159.0,91.0,-19.0,-24.0,-2.0,-26.0,-8.0,0.0
-35.0,-2.0,7.0,216.0,108.0,-39.0,-58.0,-36.0,-55.0,-27.0,0.0
-7.0,9.0,-16.0,123.0,127.0,-23.0,-53.0,-29.0,-36.0,-6.0,0.0
-8.0,10.0,-44.0,-27.0,80.0,-25.0,-46.0,-28.0,-30.0,-20.0,0.0
2.0,18.0,-39.0,-67.0,24.0,-32.0,-41.0,-13.0,-6.0,-12.0,0.0
-8.0,7.0,0.0,102.0,24.0,-23.0,-38.0,-35.0,-23.0,-19.0,0.0
-22.0,0.0,140.0,334.0,41.0,-24.0,-36.0,-66.0,-60.0,-39.0,0.0
-21.0,15.0,178.0,258.0,42.0,-19.0,-27.0,-60.0,-71.0,-40.0,0.0
-37.0,-6.0,113.0,115.0,72.0,5.0,-14.0,-50.0,-75.0,-54.0,0.0
-43.0,-45.0,-9.0,173.0,105.0,22.0,4.0,-23.0,-60.0,-35.0,0.0
-31.0,-44.0,-45.0,407.0,180.0,57.0,24.0,1.0,-35.0,-15.0,0.0
-17.0,-24.0,-24.0,397.0,187.0,72.0,36.0,9.0,-6.0,-20.0,0.0
-11.0,-12.0,-45.0,236.0,87.0,55.0,40.0,5.0,0.0,-20.0,0.0
6.0,-4.0,-31.0,57.0,-53.0,27.0,46.0,12.0,9.0,9.0,0.0
30.0,10.0,-29.0,-150.0,-160.0,8.0,54.0,16.0,12.0,38.0,0.0
51.0,18.0,-32.0,-209.0,-158.0,-15.0,38.0,16.0,6.0,44.0,0.0
47.0,14.0,0.0,-88.0,-62.0,-21.0,1.0,-2.0,-5.0,20.0,0.0
31.0,10.0,5.0,22.0,13.0,-18.0,-5.0,-6.0,0.0,21.0,0.0
29.0,13.0,16.0,66.0,25.0,-11.0,0.0,-3.0,4.0,38.0,0.0
15.0,0.0,22.0,53.0,1.0,-10.0,6.0,-2.0,-11.0,28.0,0.0
-1.0,-12.0,47.0,14.0,-1.0,-8.0,6.0,-16.0,-18.0,12.0,0.0
5.0,-4.0,69.0,-61.0,0.0,0.0,0.0,-20.0,-17.0,2.0,0.0
19.0,3.0,47.0,-161.0,-16.0,-3.0,1.0,2.0,0.0,6.0,0.0
10.0,-9.0,0.0,-177.0,-35.0,-18.0,-7.0,-17.0,-13.0,0.0,0.0
-9.0,-15.0,-4.0,-125.0,-38.0,-29.0,-31.0,-50.0,-42.0,-25.0,0.0
-9.0,8.0,-1.0,-39.0,9.0,2.0,12.0,-53.0,-22.0,-17.0,0.0
1.0,15.0,-5.0,-64.0,-14.0,-7.0,22.0,-26.0,-2.0,-5.0,0.0
19.0,30.0,-5.0,-94.0,-29.0,31.0,35.0,-1.0,5.0,15.0,0.0
22.0,14.0,-9.0,-120.0,-6.0,48.0,34.0,5.0,-35.0,12.0,0.0
45.0,33.0,-3.0,-119.0,-63.0,-3.0,31.0,20.0,8.0,25.0,0.0
37.0,43.0,3.0,-88.0,-87.0,-3.0,29.0,15.0,30.0,21.0,0.0
2.0,23.0,18.0,-65.0,-61.0,-5.0,24.0,0.0,20.0,13.0,0.0
-5.0,5.0,50.0,-45.0,-26.0,-16.0,2.0,-17.0,7.0,2.0,0.0
1.0,-3.0,62.0,-33.0,15.0,-36.0,-13.0,-25.0,6.0,8.0,0.0
-3.0,2.0,43.0,-32.0,18.0,-47.0,-14.0,-24.0,14.0,14.0,0.0
0.0,13.0,-8.0,-25.0,-10.0,-45.0,-23.0,-15.0,5.0,17.0,0.0
4.0,18.0,-34.0,-17.0,-13.0,-25.0,-39.0,-14.0,-5.0,22.0,0.0
9.0,6.0,-62.0,-36.0,-1.0,-9.0,-38.0,-14.0,-10.0,26.0,0.0
15.0,-6.0,-84.0,-69.0,-6.0,-2.0,-21.0,-11.0,8.0,40.0,0.0
27.0,0.0,-58.0,-64.0,-7.0,4.0,-3.0,-7.0,9.0,29.0,0.0
32.0,14.0,-15.0,-56.0,-5.0,9.0,7.0,-13.0,3.0,13.0,0.0
28.0,23.0,17.0,-6.0,-12.0,10.0,1.0,-23.0,0.0,4.0,0.0
-17.0,-15.0,5.0,120.0,6.0,21.0,-4.0,-40.0,-21.0,-22.0,0.0
-22.0,-17.0,8.0,89.0,15.0,-6.0,-2.0,-47.0,-27.0,-28.0,0.0
-11.0,2.0,22.0,83.0,85.0,69.0,22.0,-25.0,-16.0,-26.0,0.0
-12.0,-34.0,22.0,73.0,150.0,59.0,-7.0,-32.0,-71.0,-25.0,0.0
1.0,-41.0,18.0,47.0,128.0,-31.0,-21.0,-14.0,-37.0,-6.0,0.0
28.0,8.0,33.0,35.0,31.0,-38.0,-10.0,-8.0,26.0,15.0,0.0
21.0,24.0,66.0,59.0,11.0,-41.0,1.0,-12.0,32.0,4.0,0.0
-1.0,9.0,114.0,105.0,59.0,-30.0,10.0,-11.0,12.0,-4.0,0.0
-16.0,0.0,160.0,137.0,76.0,-16.0,10.0,-16.0,5.0,-8.0,0.0
-25.0,-5.0,182.0,132.0,74.0,-2.0,26.0,-20.0,34.0,-15.0,0.0
-41.0,-25.0,179.0,144.0,63.0,-12.0,-5.0,-41.0,-7.0,-37.0,0.0
-46.0,-41.0,127.0,146.0,67.0,-22.0,-45.0,-54.0,-48.0,-58.0,0.0
-39.0,-42.0,4.0,103.0,94.0,-7.0,-31.0,-32.0,-34.0,-46.0,0.0
-23.0,-1.0,-120.0,8.0,69.0,0.0,-1.0,2.0,-18.0,-14.0,0.0
4.0,38.0,-146.0,-68.0,17.0,18.0,12.0,29.0,3.0,17.0,0.0
34.0,45.0,-149.0,-107.0,-16.0,39.0,31.0,49.0,9.0,31.0,0.0
47.0,48.0,-126.0,-122.0,-77.0,12.0,26.0,26.0,16.0,32.0,0.0
46.0,65.0,-11.0,-88.0,-95.0,-21.0,14.0,18.0,21.0,23.0,0.0
43.0,66.0,9.0,-60.0,-37.0,-5.0,20.0,16.0,29.0,19.0,0.0
71.0,88.0,6.0,-110.0,-36.0,53.0,80.0,41.0,83.0,47.0,0.0
55.0,15.0,-33.0,-182.0,-72.0,42.0,20.0,12.0,-45.0,13.0,0.0
14.0,-57.0,-74.0,-180.0,-110.0,-88.0,-55.0,11.0,-83.0,-5.0,0.0
26.0,-16.0,-71.0,-98.0,-80.0,-60.0,-11.0,36.0,36.0,29.0,0.0
24.0,-5.0,-55.0,-48.0,-46.0,-26.0,-8.0,34.0,32.0,30.0,0.0
17.0,6.0,-22.0,-2.0,-9.0,-1.0,-15.0,30.0,17.0,28.0,0.0
-4.0,3.0,-9.0,10.0,15.0,10.0,-15.0,21.0,-3.0,13.0,0.0
-15.0,-16.0,-24.0,-15.0,22.0,19.0,0.0,8.0,-7.0,2.0,0.0
-22.0,-33.0,-62.0,-50.0,17.0,23.0,7.0,5.0,6.0,5.0,0.0
-28.0,-32.0,10.0,-52.0,4.0,27.0,-6.0,-8.0,0.0,0.0,0.0
-22.0,-17.0,164.0,-27.0,-29.0,17.0,-15.0,-7.0,-3.0,14.0,0.0
-47.0,-60.0,32.0,-47.0,-70.0,-31.0,-4.0,33.0,25.0,23.0,0.0
-42.0,-47.0,-88.0,21.0,-25.0,-10.0,-6.0,54.0,-3.0,5.0,0.0
-28.0,25.0,-67.0,153.0,64.0,82.0,9.0,65.0,-40.0,-28.0,0.0
-41.0,0.0,-47.0,131.0,95.0,77.0,-21.0,31.0,-125.0,-80.0,0.0
-53.0,-12.0,1.0,113.0,56.0,-33.0,-48.0,-49.0,-103.0,-77.0,0.0
-39.0,30.0,80.0,112.0,32.0,-56.0,-71.0,-134.0,-62.0,-53.0,0.0
-24.0,66.0,249.0,117.0,-19.0,-119.0,-140.0,-175.0,-83.0,-61.0,0.0
-10.0,86.0,306.0,85.0,-61.0,-151.0,-157.0,-150.0,-71.0,-44.0,0.0
36.0,75.0,52.0,-63.0,-78.0,-106.0,-99.0,-65.0,1.0,15.0,0.0
90.0,63.0,-119.0,-154.0,-83.0,-53.0,-23.0,13.0,70.0,67.0,0.0
107.0,63.0,-143.0,-187.0,-59.0,1.0,41.0,58.0,117.0,99.0,0.0
93.0,50.0,-105.0,-146.0,-37.0,23.0,50.0,64.0,98.0,80.0,0.0
60.0,27.0,-76.0,44.0,6.0,27.0,34.0,46.0,66.0,41.0,0.0
37.0,30.0,-135.0,56.0,13.0,21.0,21.0,26.0,35.0,21.0,0.0
19.0,42.0,-85.0,-68.0,-24.0,-1.0,14.0,2.0,13.0,2.0,0.0
16.0,37.0,-24.0,-100.0,-55.0,1.0,4.0,-8.0,9.0,-4.0,0.0
-19.0,-1.0,-18.0,-56.0,-40.0,6.0,13.0,0.0,16.0,-11.0,0.0
-12.0,13.0,17.0,-27.0,-18.0,49.0,99.0,24.0,90.0,-5.0,0.0
-7.0,16.0,11.0,-47.0,3.0,110.0,146.0,42.0,147.0,6.0,0.0
3.0,0.0,-5.0,-9.0,18.0,131.0,124.0,34.0,117.0,17.0,0.0
16.0,0.0,-6.0,77.0,24.0,76.0,123.0,37.0,117.0,34.0,0.0
13.0,17.0,3.0,30.0,6.0,45.0,113.0,43.0,134.0,33.0,0.0
6.0,10.0,12.0,-37.0,-22.0,18.0,93.0,45.0,132.0,26.0,0.0
10.0,6.0,14.0,-27.0,-7.0,18.0,92.0,54.0,127.0,25.0,0.0
29.0,17.0,23.0,24.0,9.0,31.0,92.0,62.0,121.0,46.0,0.0
50.0,45.0,9.0,17.0,26.0,41.0,81.0,59.0,117.0,51.0,0.0
54.0,44.0,-1.0,13.0,46.0,45.0,49.0,30.0,92.0,31.0,0.0
19.0,2.0,-8.0,76.0,64.0,21.0,-30.0,2.0,-1.0,-11.0,0.0
-15.0,-30.0,-9.0,96.0,84.0,4.0,-56.0,12.0,-42.0,-34.0,0.0
-33.0,-46.0,2.0,88.0,104.0,6.0,-51.0,16.0,-38.0,-25.0,0.0
-56.0,-53.0,58.0,247.0,141.0,13.0,-53.0,13.0,-58.0,-33.0,0.0
-67.0,-36.0,148.0,241.0,95.0,-11.0,-69.0,-27.0,-84.0,-70.0,0.0
-66.0,-22.0,129.0,140.0,36.0,-38.0,-75.0,-34.0,-94.0,-72.0,0.0
-54.0,-5.0,101.0,30.0,-29.0,-23.0,-57.0,-18.0,-81.0,-58.0,0.0
-31.0,-29.0,46.0,-106.0,-124.0,-61.0,-36.0,-7.0,-62.0,-49.0,0.0
3.0,-10.0,-27.0,-198.0,-173.0,-91.0,-45.0,1.0,-41.0,-11.0,0.0
2.0,-2.0,-105.0,-172.0,-134.0,-55.0,-41.0,20.0,-13.0,17.0,0.0
-14.0,-32.0,-100.0,-68.0,-92.0,-29.0,-39.0,28.0,-23.0,16.0,0.0
-27.0,-53.0,-86.0,-4.0,-49.0,-40.0,-48.0,20.0,-40.0,-4.0,0.0
-27.0,-47.0,-49.0,29.0,-15.0,-57.0,-56.0,-3.0,-49.0,-23.0,0.0
-28.0,-52.0,-10.0,66.0,65.0,-43.0,-66.0,-13.0,-63.0,-36.0,0.0
-5.0,-40.0,-11.0,73.0,109.0,-30.0,-47.0,-12.0,-52.0,-21.0,0.0
41.0,15.0,-2.0,26.0,84.0,-12.0,5.0,16.0,-9.0,21.0,0.0
57.0,68.0,25.0,-32.0,20.0,21.0,73.0,31.0,69.0,33.0,0.0
54.0,68.0,45.0,-59.0,-40.0,26.0,90.0,32.0,90.0,30.0,0.0
49.0,42.0,10.0,-79.0,-59.0,2.0,24.0,32.0,42.0,32.0,0.0
53.0,40.0,0.0,-81.0,-116.0,-13.0,1.0,27.0,13.0,23.0,0.0
44.0,38.0,21.0,-70.0,-135.0,-14.0,-5.0,16.0,4.0,11.0,0.0
35.0,51.0,52.0,-56.0,-121.0,-28.0,-5.0,0.0,-8.0,6.0,0.0
19.0,90.0,97.0,0.0,-66.0,-15.0,15.0,-4.0,19.0,2.0,0.0
6.0,80.0,90.0,41.0,-28.0,-17.0,0.0,-13.0,-2.0,-6.0,0.0
10.0,38.0,78.0,29.0,-39.0,-5.0,16.0,-8.0,8.0,-4.0,0.0
2.0,12.0,70.0,-20.0,-88.0,-23.0,0.0,8.0,-7.0,-11.0,0.0
-9.0,5.0,43.0,-120.0,-149.0,-61.0,-41.0,7.0,-37.0,-17.0,0.0
-23.0,-4.0,2.0,-148.0,-177.0,-78.0,-49.0,-12.0,-57.0,-35.0,0.0
-42.0,-2.0,-5.0,-1.0,-126.0,-46.0,-38.0,-24.0,-67.0,-48.0,0.0
-35.0,-7.0,-11.0,77.0,-53.0,-25.0,-26.0,-20.0,-52.0,-28.0,0.0
-8.0,-17.0,-44.0,50.0,55.0,-17.0,-12.0,2.0,-22.0,-7.0,0.0
0.0,-11.0,-49.0,93.0,158.0,0.0,-8.0,6.0,-15.0,2.0,0.0
-4.0,-11.0,-26.0,177.0,151.0,4.0,-26.0,0.0,-23.0,-2.0,0.0
-18.0,-14.0,-21.0,219.0,119.0,-17.0,-34.0,-8.0,-29.0,-12.0,0.0
-33.0,-10.0,-25.0,172.0,130.0,-1.0,-26.0,-2.0,-36.0,-12.0,0.0
-31.0,-14.0,-22.0,41.0,122.0,23.0,-15.0,2.0,-35.0,-8.0,0.0
-27.0,-23.0,-32.0,-64.0,92.0,31.0,-8.0,7.0,-26.0,-7.0,0.0
-9.0,-8.0,-30.0,-200.0,0.0,36.0,18.0,28.0,0.0,5.0,0.0
16.0,10.0,-27.0,-241.0,-86.0,21.0,26.0,42.0,24.0,25.0,0.0
25.0,14.0,-25.0,-103.0,-55.0,12.0,19.0,27.0,18.0,20.0,0.0
6.0,-5.0,-23.0,-13.0,6.0,5.0,12.0,13.0,0.0,1.0,0.0
-11.0,-14.0,-26.0,-5.0,13.0,5.0,5.0,10.0,-11.0,-3.0,0.0
-9.0,-12.0,-16.0,-6.0,29.0,0.0,-9.0,6.0,-14.0,3.0,0.0
-13.0,-3.0,5.0,31.0,59.0,-5.0,-16.0,-1.0,-23.0,9.0,0.0
-20.0,0.0,42.0,66.0,71.0,-1.0,-25.0,-18.0,-32.0,12.0,0.0
-36.0,13.0,65.0,99.0,78.0,2.0,-29.0,-28.0,-43.0,-2.0,0.0
-42.0,8.0,58.0,98.0,85.0,14.0,-25.0,-28.0,-49.0,-21.0,0.0
-44.0,3.0,50.0,72.0,40.0,6.0,-36.0,-30.0,-45.0,-24.0,0.0
-22.0,11.0,74.0,35.0,-26.0,-22.0,-35.0,-24.0,-35.0,-6.0,0.0
0.0,0.0,48.0,-8.0,-44.0,-26.0,-18.0,-17.0,-10.0,19.0,0.0
18.0,-12.0,-2.0,-18.0,-30.0,0.0,3.0,1.0,9.0,35.0,0.0
0.0,-39.0,-32.0,11.0,-1.0,24.0,18.0,-5.0,8.0,18.0,0.0
-29.0,-47.0,-28.0,32.0,10.0,42.0,12.0,-6.0,-3.0,26.0,0.0
-36.0,-31.0,24.0,-1.0,-7.0,34.0,-8.0,1.0,-10.0,17.0,0.0
-42.0,-34.0,77.0,-8.0,-11.0,12.0,-24.0,-16.0,-27.0,-8.0,0.0
-49.0,-42.0,69.0,-30.0,-25.0,-8.0,-35.0,-27.0,-45.0,-33.0,0.0
-34.0,-18.0,53.0,-74.0,-58.0,-14.0,-31.0,-26.0,-51.0,-37.0,0.0
7.0,46.0,60.0,-77.0,-60.0,4.0,-5.0,-23.0,-21.0,-20.0,0.0
42.0,53.0,12.0,-99.0,-56.0,26.0,17.0,9.0,3.0,3.0,0.0
49.0,13.0,-67.0,-72.0,-35.0,43.0,33.0,48.0,36.0,19.0,0.0
31.0,-10.0,-89.0,9.0,15.0,54.0,38.0,48.0,42.0,16.0,0.0
28.0,-19.0,-73.0,15.0,24.0,35.0,21.0,16.0,30.0,0.0,0.0
49.0,-6.0,-58.0,4.0,12.0,12.0,10.0,-5.0,14.0,0.0,0.0
45.0,-9.0,-89.0,-26.0,6.0,19.0,24.0,12.0,10.0,8.0,0.0
28.0,-17.0,-111.0,-55.0,7.0,19.0,18.0,10.0,15.0,18.0,0.0
18.0,-15.0,-86.0,-55.0,9.0,7.0,5.0,1.0,9.0,19.0,0.0
5.0,-7.0,-63.0,-28.0,-16.0,1.0,-2.0,-4.0,-6.0,16.0,0.0
3.0,-6.0,-32.0,-7.0,-18.0,12.0,-16.0,-12.0,-16.0,13.0,0.0
5.0,-16.0,0.0,-7.0,-12.0,6.0,-20.0,-21.0,-24.0,0.0,0.0
-10.0,-29.0,28.0,-8.0,-20.0,-10.0,-14.0,-24.0,-25.0,-15.0,0.0
-36.0,-49.0,6.0,-40.0,-22.0,-16.0,-6.0,-27.0,-9.0,-26.0,0.0
-29.0,-48.0,-4.0,-69.0,-14.0,0.0,10.0,-17.0,-2.0,-20.0,0.0
-3.0,-20.0,-20.0,-53.0,-11.0,12.0,19.0,0.0,21.0,7.0,0.0
17.0,5.0,-35.0,31.0,-2.0,6.0,35.0,17.0,45.0,32.0,0.0
23.0,15.0,-13.0,47.0,-7.0,-4.0,29.0,30.0,36.0,33.0,0.0
28.0,8.0,5.0,20.0,-8.0,-4.0,20.0,26.0,20.0,27.0,0.0
22.0,-10.0,53.0,21.0,0.0,-7.0,10.0,7.0,19.0,21.0,0.0
-7.0,-30.0,202.0,78.0,1.0,-19.0,-12.0,-1.0,-8.0,-5.0,0.0
-41.0,-43.0,251.0,137.0,12.0,-22.0,-27.0,-25.0,-39.0,-38.0,0.0
-73.0,-45.0,185.0,163.0,78.0,-21.0,-48.0,-52.0,-53.0,-57.0,0.0
-68.0,-59.0,33.0,98.0,115.0,-12.0,-50.0,-39.0,-49.0,-44.0,0.0
-53.0,-31.0,-9.0,77.0,121.0,24.0,-22.0,-23.0,-30.0,-21.0,0.0
-24.0,35.0,49.0,101.0,124.0,35.0,-8.0,-24.0,-21.0,-24.0,0.0
0.0,64.0,65.0,65.0,72.0,6.0,-20.0,-31.0,-24.0,-20.0,0.0
-3.0,45.0,32.0,-42.0,-24.0,-21.0,-28.0,-32.0,-21.0,-14.0,0.0
4.0,8.0,-49.0,-131.0,-111.0,-20.0,-14.0,6.0,6.0,7.0,0.0
36.0,-3.0,-136.0,-182.0,-143.0,2.0,17.0,40.0,36.0,54.0,0.0
46.0,-16.0,-217.0,-173.0,-100.0,22.0,50.0,58.0,53.0,78.0,0.0
24.0,-32.0,-206.0,-135.0,-43.0,31.0,43.0,47.0,57.0,64.0,0.0
-7.0,-43.0,-104.0,-76.0,-36.0,11.0,20.0,23.0,36.0,33.0,0.0
-9.0,-44.0,-9.0,-53.0,-60.0,-17.0,4.0,28.0,14.0,11.0,0.0
-3.0,4.0,35.0,3.0,-55.0,-35.0,23.0,49.0,23.0,12.0,0.0
2.0,51.0,33.0,10.0,-43.0,-42.0,27.0,71.0,14.0,7.0,0.0
18.0,49.0,-29.0,-43.0,-66.0,-60.0,9.0,84.0,8.0,5.0,0.0
26.0,30.0,-79.0,-91.0,-86.0,-68.0,4.0,68.0,2.0,4.0,0.0
8.0,14.0,-51.0,-36.0,-93.0,-72.0,-8.0,-20.0,-18.0,-13.0,0.0
2.0,-9.0,-27.0,78.0,-92.0,-62.0,-39.0,-105.0,-44.0,-21.0,0.0
15.0,-17.0,20.0,176.0,-44.0,-31.0,-44.0,-92.0,-32.0,-10.0,0.0
16.0,-16.0,105.0,178.0,28.0,-24.0,-52.0,-81.0,-28.0,-5.0,0.0
6.0,-33.0,60.0,189.0,139.0,-8.0,-40.0,-67.0,-24.0,-4.0,0.0
-9.0,-45.0,16.0,209.0,257.0,59.0,2.0,-41.0,-18.0,0.0,0.0
-23.0,-45.0,38.0,195.0,240.0,79.0,12.0,-30.0,-19.0,-22.0,0.0
-22.0,-2.0,112.0,99.0,103.0,47.0,-8.0,-42.0,-17.0,-32.0,0.0
45.0,60.0,102.0,-79.0,-66.0,-2.0,-21.0,-21.0,24.0,10.0,0.0
95.0,85.0,18.0,-178.0,-158.0,-24.0,-2.0,12.0,58.0,52.0,0.0
93.0,72.0,-23.0,-94.0,-142.0,-3.0,17.0,24.0,69.0,61.0,0.0
61.0,29.0,-76.0,30.0,-54.0,31.0,37.0,38.0,72.0,71.0,0.0
65.0,18.0,-103.0,13.0,3.0,45.0,46.0,65.0,66.0,70.0,0.0
67.0,29.0,-66.0,-13.0,27.0,24.0,25.0,45.0,45.0,48.0,0.0
59.0,28.0,-30.0,-2.0,62.0,12.0,11.0,39.0,31.0,35.0,0.0
66.0,29.0,-24.0,-46.0,71.0,11.0,9.0,36.0,34.0,33.0,0.0
43.0,19.0,-24.0,-94.0,30.0,-3.0,0.0,10.0,14.0,21.0,0.0
26.0,4.0,-44.0,-102.0,-26.0,-16.0,2.0,7.0,9.0,23.0,0.0
22.0,-1.0,-52.0,-128.0,-44.0,1.0,16.0,23.0,34.0,35.0,0.0
22.0,0.0,-26.0,-162.0,-68.0,9.0,39.0,30.0,56.0,52.0,0.0
23.0,-10.0,4.0,-163.0,-101.0,11.0,62.0,46.0,84.0,58.0,0.0
20.0,-12.0,16.0,-120.0,-109.0,5.0,34.0,41.0,52.0,38.0,0.0
-4.0,7.0,59.0,48.0,-49.0,8.0,-6.0,4.0,-12.0,-3.0,0.0
-53.0,0.0,75.0,216.0,-11.0,-15.0,-50.0,-51.0,-67.0,-52.0,0.0
-87.0,-30.0,43.0,231.0,-11.0,-39.0,-81.0,-73.0,-91.0,-83.0,0.0
-72.0,-27.0,-13.0,202.0,34.0,-26.0,-61.0,-64.0,-54.0,-63.0,0.0
-42.0,-25.0,-60.0,212.0,124.0,16.0,-30.0,-41.0,-13.0,-28.0,0.0
-32.0,-27.0,-69.0,157.0,169.0,43.0,-31.0,-35.0,-18.0,-31.0,0.0
-16.0,-11.0,-44.0,-10.0,108.0,38.0,-23.0,-23.0,-20.0,-17.0,0.0
7.0,13.0,-42.0,-142.0,34.0,27.0,-4.0,4.0,0.0,14.0,0.0
19.0,9.0,-50.0,-231.0,-63.0,7.0,15.0,23.0,24.0,31.0,0.0
5.0,-10.0,-58.0,-234.0,-147.0,-25.0,5.0,22.0,27.0,29.0,0.0
-11.0,0.0,-34.0,-164.0,-150.0,-55.0,-22.0,6.0,7.0,10.0,0.0
-21.0,12.0,30.0,-66.0,-78.0,-42.0,-18.0,-12.0,4.0,-6.0,0.0
-13.0,20.0,98.0,-10.0,3.0,-12.0,36.0,-3.0,64.0,-4.0,0.0
-15.0,0.0,77.0,15.0,32.0,-4.0,2.0,14.0,30.0,-4.0,0.0
-11.0,0.0,48.0,43.0,25.0,-3.0,-28.0,13.0,0.0,-5.0,0.0
0.0,14.0,31.0,58.0,9.0,1.0,-28.0,-11.0,-9.0,-13.0,0.0
-1.0,12.0,23.0,61.0,17.0,0.0,-32.0,-17.0,-28.0,-24.0,0.0
0.0,18.0,-1.0,32.0,-5.0,-14.0,-30.0,-14.0,-36.0,-21.0,0.0
-8.0,8.0,5.0,12.0,-22.0,-13.0,-26.0,-13.0,-27.0,-23.0,0.0
-10.0,5.0,0.0,-14.0,-13.0,15.0,-15.0,-7.0,-6.0,-12.0,0.0
-3.0,2.0,-46.0,-57.0,11.0,32.0,25.0,25.0,25.0,15.0,0.0
2.0,-19.0,-62.0,-31.0,28.0,34.0,42.0,30.0,13.0,3.0,0.0
-18.0,-33.0,-33.0,51.0,55.0,39.0,34.0,10.0,-23.0,-14.0,0.0
-31.0,-25.0,-9.0,106.0,92.0,50.0,32.0,0.0,-29.0,-19.0,0.0
-26.0,-21.0,-5.0,63.0,120.0,43.0,20.0,17.0,-24.0,-9.0,0.0
-8.0,-10.0,2.0,-11.0,63.0,19.0,17.0,22.0,-10.0,0.0,0.0
2.0,0.0,0.0,-73.0,-33.0,-16.0,21.0,6.0,-5.0,2.0,0.0
4.0,-5.0,-8.0,-150.0,-102.0,-35.0,-2.0,2.0,-9.0,5.0,0.0
-4.0,-26.0,-16.0,-169.0,-99.0,-44.0,-25.0,-12.0,-23.0,-3.0,0.0
0.0,-42.0,-11.0,-122.0,-54.0,-43.0,-28.0,-24.0,-25.0,-15.0,0.0
-2.0,-33.0,27.0,-68.0,-12.0,-25.0,-17.0,-12.0,0.0,-15.0,0.0
-9.0,-30.0,46.0,-3.0,35.0,-4.0,-10.0,-5.0,0.0,-18.0,0.0
-14.0,-36.0,40.0,48.0,58.0,4.0,12.0,-7.0,12.0,-11.0,0.0
-13.0,-57.0,0.0,94.0,44.0,3.0,25.0,15.0,19.0,6.0,0.0
13.0,-49.0,-37.0,97.0,52.0,27.0,48.0,41.0,40.0,33.0,0.0
22.0,-22.0,-48.0,21.0,42.0,38.0,39.0,43.0,27.0,43.0,0.0
26.0,-1.0,-30.0,-14.0,26.0,35.0,16.0,27.0,11.0,37.0,0.0
17.0,-17.0,-24.0,27.0,26.0,19.0,-1.0,21.0,-7.0,23.0,0.0
41.0,-4.0,0.0,44.0,21.0,-7.0,-5.0,4.0,-23.0,13.0,0.0
67.0,38.0,37.0,25.0,17.0,-24.0,-10.0,-5.0,-24.0,16.0,0.0
39.0,38.0,57.0,62.0,29.0,-24.0,-2.0,-8.0,-23.0,-3.0,0.0
-1.0,7.0,71.0,141.0,54.0,-9.0,-3.0,-25.0,-37.0,-37.0,0.0
-29.0,-19.0,92.0,179.0,54.0,4.0,14.0,-29.0,-12.0,-42.0,0.0
-38.0,-35.0,87.0,158.0,23.0,-8.0,-24.0,-45.0,-46.0,-46.0,0.0
-33.0,-28.0,144.0,108.0,-7.0,-23.0,-49.0,-40.0,-46.0,-56.0,0.0
-25.0,-20.0,194.0,41.0,-28.0,-36.0,-42.0,-47.0,-24.0,-50.0,0.0
-7.0,-21.0,89.0,-23.0,-15.0,-47.0,-43.0,-51.0,-9.0,-27.0,0.0
10.0,-15.0,-26.0,-39.0,54.0,-45.0,-47.0,-50.0,-6.0,-17.0,0.0
28.0,10.0,-16.0,-28.0,114.0,-22.0,-25.0,-14.0,11.0,3.0,0.0
38.0,10.0,-32.0,-15.0,75.0,23.0,33.0,26.0,50.0,26.0,0.0
33.0,-12.0,-65.0,13.0,38.0,47.0,82.0,35.0,85.0,38.0,0.0
15.0,-30.0,-58.0,0.0,30.0,36.0,36.0,22.0,28.0,31.0,0.0
-4.0,-23.0,-37.0,-22.0,43.0,44.0,20.0,0.0,-22.0,4.0,0.0
-10.0,16.0,8.0,-8.0,26.0,49.0,11.0,-14.0,-32.0,-15.0,0.0
17.0,86.0,110.0,3.0,-32.0,17.0,-13.0,-18.0,-19.0,1.0,0.0
25.0,101.0,184.0,-31.0,-83.0,-32.0,-19.0,-13.0,5.0,23.0,0.0
-15.0,49.0,154.0,-25.0,-98.0,-70.0,-35.0,-19.0,5.0,8.0,0.0
-32.0,9.0,80.0,1.0,-102.0,-75.0,-46.0,-25.0,-16.0,-6.0,0.0
15.0,16.0,-32.0,-49.0,-124.0,-54.0,-23.0,-7.0,8.0,26.0,0.0
65.0,38.0,-5.0,-62.0,-121.0,-24.0,-4.0,20.0,41.0,52.0,0.0
55.0,28.0,35.0,-52.0,-77.0,-13.0,6.0,27.0,51.0,46.0,0.0
20.0,6.0,-10.0,-52.0,-38.0,-5.0,-2.0,6.0,23.0,25.0,0.0
-8.0,-31.0,-124.0,-93.0,-15.0,-10.0,-16.0,-11.0,10.0,2.0,0.0
-15.0,-32.0,-191.0,-102.0,0.0,-13.0,-4.0,9.0,21.0,0.0,0.0
-3.0,-18.0,-200.0,-74.0,19.0,4.0,4.0,32.0,32.0,16.0,0.0
-10.0,-16.0,-217.0,-38.0,34.0,15.0,4.0,28.0,26.0,12.0,0.0
-9.0,-21.0,-206.0,-72.0,33.0,31.0,22.0,19.0,30.0,17.0,0.0
-11.0,-25.0,-189.0,-139.0,31.0,55.0,40.0,24.0,35.0,33.0,0.0
-25.0,-27.0,-126.0,-63.0,51.0,56.0,34.0,20.0,18.0,0.0,0.0
-22.0,-23.0,-62.0,-41.0,29.0,45.0,37.0,4.0,4.0,-14.0,0.0
-24.0,-19.0,-19.0,-8.0,30.0,39.0,35.0,-4.0,-3.0,-25.0,0.0
-25.0,-27.0,-2.0,96.0,51.0,44.0,32.0,-2.0,7.0,-24.0,0.0
-12.0,0.0,7.0,82.0,29.0,28.0,23.0,15.0,12.0,-17.0,0.0
-9.0,26.0,5.0,49.0,8.0,32.0,33.0,18.0,15.0,-6.0,0.0
-4.0,41.0,-14.0,26.0,-12.0,45.0,35.0,22.0,15.0,7.0,0.0
10.0,44.0,-23.0,-48.0,-44.0,26.0,15.0,11.0,5.0,-7.0,0.0
-2.0,42.0,18.0,-66.0,-44.0,0.0,-5.0,0.0,-14.0,-25.0,0.0
-23.0,31.0,78.0,-28.0,-11.0,-14.0,-23.0,-2.0,-21.0,-33.0,0.0
-30.0,26.0,118.0,-26.0,-4.0,-32.0,-51.0,-23.0,-31.0,-51.0,0.0
-22.0,10.0,144.0,-45.0,-31.0,-65.0,-87.0,-36.0,-40.0,-57.0,0.0
-48.0,-24.0,165.0,124.0,-5.0,-69.0,-103.0,-65.0,-79.0,-91.0,0.0
-71.0,-45.0,165.0,362.0,62.0,-36.0,-91.0,-68.0,-84.0,-100.0,0.0
-28.0,-17.0,41.0,256.0,69.0,0.0,-37.0,-32.0,-35.0,-43.0,0.0
23.0,12.0,-75.0,98.0,24.0,33.0,10.0,2.0,2.0,0.0,0.0
30.0,8.0,-132.0,64.0,1.0,50.0,33.0,36.0,31.0,17.0,0.0
12.0,-3.0,-131.0,68.0,10.0,64.0,61.0,55.0,40.0,29.0,0.0
-6.0,-16.0,-56.0,18.0,6.0,58.0,71.0,62.0,53.0,30.0,0.0
-20.0,-20.0,51.0,-25.0,-6.0,44.0,45.0,52.0,45.0,6.0,0.0
-7.0,-7.0,41.0,-20.0,-3.0,45.0,34.0,30.0,28.0,-4.0,0.0
5.0,3.0,1.0,2.0,28.0,58.0,32.0,19.0,16.0,-8.0,0.0
11.0,21.0,24.0,13.0,34.0,36.0,11.0,17.0,7.0,-1.0,0.0
28.0,30.0,31.0,-7.0,-1.0,-1.0,8.0,10.0,13.0,27.0,0.0
10.0,7.0,32.0,-14.0,-24.0,-27.0,-3.0,1.0,24.0,28.0,0.0
-11.0,-20.0,20.0,54.0,-27.0,-41.0,-12.0,-4.0,17.0,8.0,0.0
-21.0,-34.0,37.0,133.0,5.0,-25.0,-6.0,-9.0,4.0,-11.0,0.0
-16.0,12.0,50.0,64.0,1.0,-9.0,-3.0,-13.0,-2.0,-15.0,0.0
0.0,33.0,12.0,-37.0,-34.0,-18.0,-13.0,-9.0,4.0,-4.0,0.0
4.0,11.0,-31.0,-86.0,-58.0,-14.0,4.0,2.0,9.0,14.0,0.0
-21.0,-19.0,-47.0,-66.0,-22.0,14.0,34.0,13.0,20.0,4.0,0.0
-23.0,-37.0,-76.0,-57.0,-8.0,22.0,30.0,-4.0,13.0,-5.0,0.0
-9.0,-33.0,-67.0,-27.0,-9.0,23.0,14.0,-4.0,17.0,1.0,0.0
-9.0,-31.0,-31.0,57.0,56.0,42.0,1.0,0.0,7.0,-7.0,0.0
-15.0,-24.0,13.0,118.0,94.0,63.0,-6.0,-12.0,-17.0,-28.0,0.0
-26.0,-23.0,8.0,131.0,105.0,66.0,-2.0,-11.0,-24.0,-36.0,0.0
-22.0,-29.0,-30.0,99.0,94.0,70.0,13.0,-10.0,-15.0,-21.0,0.0
-6.0,-25.0,-21.0,65.0,81.0,55.0,10.0,-8.0,5.0,-8.0,0.0
-6.0,-15.0,40.0,47.0,57.0,25.0,-8.0,-8.0,0.0,-4.0,0.0
-6.0,-29.0,87.0,27.0,-19.0,10.0,-4.0,-4.0,11.0,0.0,0.0
0.0,-25.0,132.0,1.0,-126.0,-35.0,-16.0,-2.0,10.0,7.0,0.0
0.0,1.0,177.0,8.0,-158.0,-81.0,-36.0,-9.0,0.0,6.0,0.0
-7.0,7.0,170.0,41.0,-28.0,-50.0,-31.0,-15.0,-14.0,-12.0,0.0
-21.0,-7.0,120.0,39.0,46.0,-13.0,-13.0,-18.0,-16.0,-27.0,0.0
-21.0,-27.0,44.0,23.0,28.0,-9.0,-4.0,-11.0,-2.0,-23.0,0.0
-13.0,-25.0,-46.0,-56.0,-5.0,-7.0,7.0,13.0,6.0,-6.0,0.0
16.0,-13.0,-138.0,-162.0,-44.0,6.0,35.0,38.0,28.0,31.0,0.0
29.0,-3.0,-184.0,-179.0,-124.0,-16.0,52.0,57.0,44.0,31.0,0.0
28.0,6.0,-163.0,-138.0,-209.0,-38.0,48.0,58.0,48.0,23.0,0.0
23.0,8.0,-138.0,-132.0,-202.0,-26.0,45.0,91.0,64.0,30.0,0.0
28.0,21.0,-108.0,-99.0,-127.0,-15.0,53.0,127.0,65.0,33.0,0.0
8.0,22.0,-55.0,-114.0,-71.0,-11.0,37.0,111.0,42.0,12.0,0.0
-3.0,4.0,-24.0,-193.0,-49.0,-23.0,16.0,32.0,22.0,0.0,0.0
-20.0,-23.0,-25.0,-173.0,-34.0,-16.0,-19.0,-70.0,-11.0,-22.0,0.0
-31.0,0.0,-10.0,65.0,70.0,21.0,-32.0,-101.0,-33.0,-39.0,0.0
22.0,78.0,34.0,168.0,181.0,46.0,-5.0,-61.0,11.0,7.0,0.0
51.0,97.0,42.0,72.0,191.0,24.0,-2.0,-26.0,36.0,40.0,0.0
38.0,71.0,36.0,13.0,119.0,13.0,-6.0,-7.0,33.0,44.0,0.0
16.0,54.0,48.0,-14.0,-15.0,0.0,1.0,2.0,20.0,33.0,0.0
18.0,60.0,41.0,-63.0,-136.0,-34.0,-2.0,-3.0,9.0,15.0,0.0
28.0,51.0,38.0,-59.0,-165.0,-39.0,3.0,0.0,20.0,20.0,0.0
36.0,54.0,92.0,59.0,-89.0,-18.0,1.0,0.0,15.0,27.0,0.0
37.0,59.0,163.0,80.0,-17.0,0.0,0.0,3.0,2.0,20.0,0.0
4.0,-5.0,-49.0,-40.0,-21.0,3.0,-15.0,-28.0,-34.0,-15.0,0.0
24.0,20.0,-71.0,-55.0,-48.0,-4.0,-6.0,-14.0,-4.0,0.0,0.0
4.0,4.0,-57.0,-17.0,-16.0,-11.0,-11.0,-15.0,0.0,-10.0,0.0
-9.0,-8.0,-57.0,23.0,15.0,-5.0,-25.0,-15.0,-9.0,-12.0,0.0
0.0,-16.0,-40.0,15.0,23.0,-3.0,-14.0,-15.0,0.0,-1.0,0.0
7.0,-25.0,-24.0,-25.0,-13.0,-5.0,-1.0,-3.0,12.0,6.0,0.0
4.0,-23.0,-18.0,-13.0,-32.0,-5.0,6.0,-4.0,14.0,-4.0,0.0
0.0,-21.0,-15.0,1.0,-20.0,2.0,13.0,-10.0,15.0,1.0,0.0
-6.0,-23.0,-19.0,-25.0,-9.0,5.0,18.0,-13.0,16.0,7.0,0.0
-8.0,-33.0,-20.0,-10.0,1.0,4.0,16.0,-19.0,11.0,-6.0,0.0
-15.0,-50.0,20.0,42.0,23.0,6.0,-4.0,-21.0,-5.0,-18.0,0.0
-23.0,-31.0,183.0,82.0,22.0,-13.0,-21.0,-38.0,-27.0,-26.0,0.0
-27.0,-6.0,278.0,95.0,30.0,-19.0,-12.0,-28.0,-34.0,-30.0,0.0
-10.0,-16.0,182.0,43.0,26.0,0.0,0.0,-6.0,-35.0,-15.0,0.0
-5.0,-54.0,-26.0,-44.0,23.0,27.0,14.0,3.0,-19.0,2.0,0.0
0.0,-45.0,-139.0,-88.0,14.0,37.0,32.0,6.0,-4.0,8.0,0.0
14.0,0.0,-134.0,-72.0,11.0,37.0,45.0,7.0,6.0,15.0,0.0
0.0,-3.0,-126.0,-65.0,4.0,54.0,36.0,12.0,4.0,2.0,0.0
-18.0,-23.0,-112.0,-73.0,-6.0,53.0,31.0,18.0,1.0,-5.0,0.0
-14.0,-20.0,-69.0,-71.0,-18.0,25.0,22.0,11.0,-8.0,-11.0,0.0
-11.0,-20.0,-26.0,-96.0,-69.0,1.0,3.0,0.0,-25.0,-21.0,0.0
3.0,-7.0,-7.0,-129.0,-109.0,-25.0,-7.0,10.0,-17.0,-6.0,0.0
11.0,7.0,18.0,-97.0,-89.0,-52.0,-24.0,6.0,-26.0,-13.0,0.0
12.0,5.0,26.0,-17.0,-24.0,-56.0,-32.0,-3.0,-25.0,-22.0,0.0
16.0,10.0,32.0,13.0,39.0,-41.0,-33.0,-9.0,-24.0,-20.0,0.0
25.0,8.0,-4.0,-32.0,45.0,-26.0,-17.0,2.0,-21.0,-12.0,0.0
26.0,0.0,-46.0,-79.0,58.0,-2.0,18.0,31.0,11.0,16.0,0.0
27.0,1.0,-74.0,-93.0,94.0,21.0,23.0,41.0,27.0,23.0,0.0
10.0,1.0,-18.0,-10.0,62.0,3.0,-1.0,17.0,8.0,-2.0,0.0
0.0,-1.0,70.0,36.0,16.0,-8.0,-8.0,0.0,0.0,-8.0,0.0
-11.0,-10.0,144.0,106.0,24.0,-5.0,-20.0,-23.0,-22.0,-22.0,0.0
-41.0,-32.0,150.0,251.0,43.0,-7.0,-32.0,-48.0,-40.0,-44.0,0.0
-49.0,-52.0,77.0,286.0,21.0,-5.0,-20.0,-48.0,-38.0,-50.0,0.0
-37.0,-45.0,-39.0,166.0,-33.0,8.0,16.0,-17.0,-19.0,-19.0,0.0
-24.0,-33.0,-77.0,75.0,-27.0,33.0,27.0,-3.0,-6.0,-10.0,0.0
-10.0,-29.0,-87.0,54.0,22.0,41.0,36.0,12.0,-6.0,-7.0,0.0
1.0,-2.0,-80.0,40.0,38.0,31.0,26.0,10.0,-5.0,12.0,0.0
-10.0,15.0,-53.0,45.0,31.0,19.0,13.0,-3.0,-10.0,-4.0,0.0
-20.0,6.0,-30.0,55.0,28.0,17.0,11.0,-5.0,-21.0,-11.0,0.0
-19.0,4.0,-19.0,50.0,2.0,8.0,7.0,-11.0,-24.0,-29.0,0.0
-12.0,-3.0,-11.0,25.0,-37.0,-15.0,14.0,-8.0,-20.0,-22.0,0.0
-6.0,5.0,-7.0,1.0,-40.0,-45.0,5.0,-9.0,-13.0,-12.0,0.0
5.0,20.0,9.0,0.0,-27.0,-49.0,-13.0,-7.0,-6.0,-14.0,0.0
10.0,22.0,40.0,11.0,-21.0,-35.0,-16.0,-14.0,-6.0,-14.0,0.0
-13.0,3.0,38.0,10.0,-24.0,-34.0,-28.0,-29.0,-29.0,-29.0,0.0
-37.0,-18.0,23.0,1.0,-5.0,-26.0,-24.0,-35.0,-46.0,-37.0,0.0
-38.0,-39.0,-10.0,-30.0,-5.0,-14.0,-6.0,-27.0,-34.0,-14.0,0.0
-17.0,-22.0,-21.0,-60.0,-30.0,-24.0,-4.0,0.0,-8.0,-1.0,0.0
-15.0,-28.0,-15.0,-34.0,-30.0,-15.0,0.0,5.0,2.0,-8.0,0.0
-27.0,-33.0,-8.0,16.0,1.0,-1.0,0.0,-8.0,-16.0,-28.0,0.0
-33.0,-35.0,-2.0,49.0,13.0,15.0,-3.0,0.0,-26.0,-28.0,0.0
-51.0,-50.0,-4.0,65.0,18.0,32.0,-10.0,-8.0,-30.0,-40.0,0.0
-79.0,-80.0,13.0,103.0,53.0,35.0,-7.0,-16.0,-41.0,-63.0,0.0
-97.0,-85.0,72.0,173.0,93.0,27.0,1.0,-9.0,-40.0,-68.0,0.0
-80.0,-39.0,143.0,240.0,96.0,20.0,-2.0,-14.0,-38.0,-58.0,0.0
-60.0,-25.0,188.0,238.0,73.0,-3.0,-11.0,-12.0,-49.0,-42.0,0.0
-55.0,-42.0,120.0,165.0,85.0,-8.0,-22.0,3.0,-43.0,-27.0,0.0
-18.0,-26.0,-44.0,61.0,106.0,0.0,-13.0,22.0,-19.0,-15.0,0.0
62.0,29.0,-163.0,-158.0,-40.0,3.0,27.0,60.0,28.0,44.0,0.0
110.0,59.0,-195.0,-383.0,-247.0,-34.0,40.0,66.0,52.0,87.0,0.0
85.0,59.0,-164.0,-449.0,-220.0,-52.0,9.0,21.0,16.0,60.0,0.0
33.0,63.0,-35.0,-344.0,-102.0,-45.0,-31.0,-9.0,-17.0,11.0,0.0
5.0,38.0,22.0,-149.0,-22.0,-43.0,-31.0,-11.0,-10.0,6.0,0.0
-30.0,-7.0,-4.0,24.0,26.0,-21.0,-3.0,-1.0,-4.0,2.0,0.0
-40.0,-33.0,-29.0,116.0,50.0,3.0,14.0,-2.0,2.0,-1.0,0.0
-13.0,-20.0,-59.0,99.0,38.0,34.0,57.0,23.0,45.0,18.0,0.0
41.0,33.0,-10.0,70.0,-45.0,39.0,98.0,55.0,93.0,51.0,0.0
54.0,70.0,1.0,-10.0,-121.0,12.0,48.0,41.0,62.0,45.0,0.0
22.0,67.0,15.0,21.0,-53.0,-6.0,10.0,16.0,33.0,8.0,0.0
0.0,54.0,50.0,46.0,18.0,1.0,9.0,4.0,15.0,-2.0,0.0
-11.0,44.0,68.0,42.0,13.0,1.0,0.0,-6.0,5.0,-7.0,0.0
-26.0,22.0,74.0,11.0,8.0,-20.0,-17.0,-15.0,-16.0,-13.0,0.0
-39.0,-1.0,86.0,11.0,21.0,-32.0,-37.0,-16.0,-17.0,-25.0,0.0
-40.0,-7.0,71.0,21.0,15.0,-43.0,-47.0,-17.0,-9.0,-23.0,0.0
-25.0,-3.0,13.0,-16.0,-27.0,-49.0,-44.0,-8.0,-10.0,-10.0,0.0
-3.0,8.0,-20.0,-55.0,-45.0,-32.0,-12.0,7.0,31.0,10.0,0.0
28.0,33.0,0.0,-26.0,-21.0,-10.0,47.0,28.0,93.0,42.0,0.0
60.0,52.0,6.0,-15.0,-13.0,-9.0,14.0,27.0,52.0,55.0,0.0
40.0,40.0,18.0,-25.0,1.0,0.0,-5.0,25.0,27.0,29.0,0.0
11.0,8.0,21.0,-5.0,27.0,11.0,-3.0,23.0,21.0,12.0,0.0
8.0,-19.0,-7.0,-12.0,11.0,8.0,-6.0,25.0,24.0,10.0,0.0
-11.0,-44.0,-22.0,6.0,6.0,10.0,-16.0,16.0,13.0,-2.0,0.0
-22.0,-37.0,4.0,54.0,15.0,6.0,-42.0,-8.0,-19.0,-14.0,0.0
-18.0,-8.0,4.0,67.0,41.0,11.0,-41.0,-14.0,-49.0,-27.0,0.0
-7.0,-18.0,-73.0,27.0,61.0,28.0,-18.0,-9.0,-44.0,-22.0,0.0
-9.0,-26.0,-90.0,-41.0,47.0,31.0,-13.0,-9.0,-22.0,-27.0,0.0
-10.0,-24.0,-75.0,-69.0,25.0,22.0,-22.0,-1.0,-4.0,-34.0,0.0
-12.0,-20.0,-74.0,-26.0,30.0,36.0,-2.0,5.0,7.0,-26.0,0.0
-4.0,-17.0,-30.0,42.0,45.0,26.0,0.0,7.0,8.0,-14.0,0.0
13.0,10.0,54.0,75.0,46.0,0.0,-7.0,3.0,0.0,-8.0,0.0
-11.0,15.0,188.0,118.0,43.0,-34.0,-32.0,-24.0,-24.0,-24.0,0.0
-49.0,0.0,369.0,167.0,18.0,-61.0,-68.0,-53.0,-61.0,-61.0,0.0
-74.0,-35.0,297.0,165.0,12.0,-54.0,-57.0,-66.0,-76.0,-73.0,0.0
-45.0,-47.0,69.0,152.0,2.0,-26.0,-25.0,-33.0,-41.0,-36.0,0.0
15.0,-6.0,-108.0,79.0,0.0,-12.0,4.0,8.0,-7.0,13.0,0.0
40.0,26.0,-128.0,41.0,24.0,-6.0,12.0,25.0,10.0,27.0,0.0
36.0,17.0,-159.0,13.0,57.0,6.0,17.0,26.0,15.0,29.0,0.0
40.0,-29.0,-217.0,-85.0,50.0,29.0,36.0,46.0,30.0,44.0,0.0
61.0,-17.0,-205.0,-247.0,2.0,53.0,59.0,63.0,78.0,64.0,0.0
72.0,11.0,-134.0,-291.0,-34.0,59.0,76.0,66.0,89.0,85.0,0.0
61.0,18.0,-73.0,-231.0,-60.0,39.0,50.0,56.0,60.0,76.0,0.0
42.0,34.0,31.0,-173.0,-115.0,26.0,36.0,41.0,46.0,63.0,0.0
37.0,29.0,96.0,-143.0,-144.0,0.0,29.0,22.0,39.0,49.0,0.0
10.0,-3.0,75.0,-109.0,-122.0,-14.0,-13.0,0.0,10.0,23.0,0.0
5.0,-20.0,22.0,-74.0,-106.0,-29.0,-35.0,-12.0,-7.0,12.0,0.0
34.0,4.0,-61.0,-82.0,-81.0,-21.0,-15.0,3.0,7.0,29.0,0.0
63.0,47.0,-79.0,-118.0,-40.0,14.0,31.0,32.0,50.0,43.0,0.0
66.0,63.0,-50.0,-94.0,-7.0,46.0,104.0,40.0,130.0,59.0,0.0
81.0,54.0,-42.0,-64.0,5.0,34.0,122.0,38.0,149.0,66.0,0.0
91.0,48.0,-8.0,-62.0,1.0,8.0,110.0,18.0,142.0,71.0,0.0
76.0,45.0,10.0,-26.0,7.0,-8.0,84.0,0.0,100.0,51.0,0.0
48.0,44.0,32.0,29.0,13.0,3.0,57.0,-20.0,65.0,27.0,0.0
33.0,38.0,31.0,17.0,0.0,8.0,48.0,-26.0,49.0,25.0,0.0
19.0,32.0,5.0,-49.0,-19.0,2.0,61.0,-15.0,61.0,21.0,0.0
10.0,23.0,9.0,-70.0,-13.0,8.0,53.0,-11.0,57.0,7.0,0.0
-1.0,25.0,36.0,-47.0,-1.0,1.0,28.0,-17.0,26.0,-5.0,0.0
-16.0,4.0,62.0,-13.0,-9.0,-10.0,-20.0,-37.0,-26.0,-32.0,0.0
-29.0,-16.0,60.0,-11.0,-31.0,-33.0,-81.0,-54.0,-88.0,-63.0,0.0
-40.0,-15.0,62.0,-3.0,-34.0,-38.0,-93.0,-52.0,-98.0,-66.0,0.0
-38.0,-10.0,57.0,48.0,-8.0,-21.0,-75.0,-38.0,-92.0,-58.0,0.0
-37.0,-9.0,11.0,167.0,43.0,8.0,-56.0,-20.0,-71.0,-44.0,0.0
-24.0,-8.0,-32.0,211.0,89.0,30.0,-34.0,-2.0,-47.0,-32.0,0.0
-18.0,-15.0,-38.0,159.0,88.0,31.0,-27.0,5.0,-38.0,-26.0,0.0
11.0,-3.0,-33.0,131.0,81.0,35.0,-14.0,5.0,-16.0,-4.0,0.0
44.0,15.0,-28.0,89.0,90.0,46.0,19.0,25.0,34.0,11.0,0.0
37.0,7.0,-6.0,44.0,69.0,20.0,26.0,19.0,52.0,8.0,0.0
25.0,14.0,5.0,24.0,37.0,-25.0,-16.0,-2.0,-9.0,-1.0,0.0
25.0,13.0,23.0,16.0,26.0,-29.0,-30.0,-1.0,-22.0,-7.0,0.0
25.0,13.0,17.0,12.0,29.0,-22.0,-37.0,0.0,-26.0,-6.0,0.0
11.0,11.0,-15.0,26.0,40.0,-2.0,-27.0,-11.0,-42.0,-6.0,0.0
-18.0,-9.0,-24.0,49.0,67.0,25.0,-20.0,-11.0,-44.0,-19.0,0.0
-27.0,-10.0,-11.0,65.0,109.0,26.0,-20.0,-18.0,-51.0,-36.0,0.0
-26.0,-21.0,-8.0,81.0,115.0,23.0,-29.0,-33.0,-60.0,-46.0,0.0
-37.0,-48.0,0.0,92.0,100.0,41.0,-20.0,-26.0,-55.0,-36.0,0.0
-58.0,-72.0,70.0,109.0,87.0,53.0,-9.0,-13.0,-49.0,-35.0,0.0
-64.0,-77.0,119.0,108.0,65.0,27.0,-7.0,-11.0,-50.0,-46.0,0.0
-46.0,-47.0,95.0,84.0,49.0,6.0,-3.0,-6.0,-38.0,-37.0,0.0
-24.0,14.0,81.0,72.0,50.0,7.0,10.0,7.0,-9.0,-16.0,0.0
0.0,43.0,29.0,36.0,17.0,21.0,21.0,17.0,17.0,5.0,0.0
11.0,45.0,-56.0,-48.0,-62.0,13.0,41.0,43.0,31.0,25.0,0.0
19.0,35.0,-78.0,-138.0,-153.0,-14.0,28.0,32.0,5.0,14.0,0.0
16.0,27.0,-75.0,-230.0,-234.0,-27.0,13.0,27.0,-10.0,-2.0,0.0
18.0,52.0,-72.0,-313.0,-255.0,-42.0,-3.0,26.0,-7.0,-4.0,0.0
7.0,57.0,-111.0,-367.0,-175.0,-43.0,-11.0,8.0,-19.0,-8.0,0.0
-11.0,15.0,-106.0,-311.0,-15.0,-33.0,-32.0,-18.0,-36.0,-29.0,0.0
-6.0,17.0,-50.0,-59.0,89.0,-10.0,-20.0,-19.0,-22.0,-19.0,0.0
15.0,41.0,36.0,146.0,83.0,11.0,18.0,-14.0,-4.0,-9.0,0.0
25.0,47.0,59.0,127.0,75.0,28.0,32.0,-8.0,11.0,0.0,0.0
32.0,64.0,28.0,49.0,72.0,17.0,3.0,7.0,4.0,27.0,0.0
41.0,54.0,19.0,52.0,18.0,10.0,9.0,18.0,4.0,38.0,0.0
11.0,14.0,37.0,109.0,6.0,3.0,7.0,38.0,-6.0,11.0,0.0
-20.0,-15.0,14.0,166.0,20.0,-5.0,3.0,63.0,-27.0,-22.0,0.0
-28.0,-35.0,-31.0,127.0,36.0,1.0,14.0,81.0,-27.0,-20.0,0.0
-22.0,-42.0,-41.0,54.0,36.0,10.0,21.0,28.0,-10.0,-6.0,0.0
-8.0,-29.0,-20.0,-4.0,16.0,8.0,2.0,-72.0,-4.0,-1.0,0.0
9.0,-9.0,6.0,19.0,42.0,4.0,-12.0,-103.0,2.0,9.0,0.0
21.0,0.0,71.0,181.0,99.0,6.0,-26.0,-82.0,-7.0,19.0,0.0
23.0,0.0,96.0,151.0,93.0,-9.0,-26.0,-58.0,2.0,30.0,0.0
15.0,-2.0,98.0,96.0,58.0,-23.0,-27.0,-53.0,-4.0,31.0,0.0
10.0,-3.0,85.0,92.0,42.0,-18.0,-40.0,-74.0,-25.0,10.0,0.0
11.0,1.0,36.0,13.0,0.0,-20.0,-49.0,-61.0,-28.0,14.0,0.0
23.0,7.0,-18.0,-104.0,-40.0,-42.0,-47.0,-37.0,-24.0,19.0,0.0
16.0,-2.0,-72.0,-153.0,-49.0,-45.0,-40.0,-31.0,-23.0,16.0,0.0
8.0,-10.0,-63.0,-52.0,-35.0,-32.0,-23.0,-26.0,-34.0,9.0,0.0
4.0,-11.0,-46.0,-6.0,-24.0,-13.0,-6.0,-34.0,-24.0,2.0,0.0
1.0,-14.0,-41.0,-39.0,-23.0,18.0,16.0,-24.0,-3.0,0.0,0.0
-15.0,-34.0,-59.0,-25.0,-10.0,16.0,17.0,-28.0,-25.0,-12.0,0.0
-23.0,-64.0,-63.0,15.0,-4.0,17.0,17.0,-15.0,-22.0,-9.0,0.0
-20.0,-50.0,-61.0,30.0,6.0,20.0,19.0,0.0,-4.0,-3.0,0.0
-8.0,-11.0,-28.0,28.0,23.0,26.0,18.0,-1.0,0.0,0.0,0.0
6.0,1.0,-13.0,-12.0,25.0,15.0,6.0,-7.0,-9.0,6.0,0.0
-3.0,-9.0,-6.0,-20.0,11.0,9.0,4.0,2.0,-14.0,2.0,0.0
-24.0,0.0,-5.0,16.0,20.0,22.0,-5.0,2.0,-11.0,-10.0,0.0
-31.0,12.0,12.0,45.0,28.0,13.0,-6.0,9.0,4.0,-12.0,0.0
-36.0,6.0,57.0,63.0,33.0,-4.0,-14.0,0.0,1.0,-21.0,0.0
-35.0,1.0,96.0,97.0,64.0,2.0,-16.0,-2.0,0.0,-42.0,0.0
-39.0,13.0,121.0,101.0,65.0,-3.0,-1.0,-5.0,19.0,-42.0,0.0
-43.0,-1.0,86.0,71.0,24.0,-14.0,19.0,-7.0,26.0,-39.0,0.0
-37.0,1.0,22.0,74.0,-2.0,-33.0,-30.0,-15.0,-35.0,-38.0,0.0
-9.0,28.0,-4.0,42.0,-8.0,-32.0,-32.0,-18.0,-37.0,-26.0,0.0
6.0,22.0,-39.0,-61.0,-36.0,-29.0,-17.0,2.0,-5.0,-3.0,0.0
0.0,-11.0,-23.0,-157.0,-74.0,-23.0,-9.0,29.0,26.0,20.0,0.0
-1.0,-23.0,-27.0,-186.0,-98.0,-4.0,5.0,32.0,38.0,34.0,0.0
11.0,-3.0,-59.0,-127.0,-60.0,21.0,26.0,33.0,35.0,41.0,0.0
28.0,12.0,-51.0,-74.0,-37.0,32.0,57.0,25.0,62.0,40.0,0.0
26.0,9.0,-24.0,-49.0,-33.0,44.0,79.0,19.0,80.0,26.0,0.0
-7.0,-17.0,-28.0,-54.0,-42.0,25.0,15.0,6.0,14.0,0.0,0.0
-33.0,-26.0,15.0,-30.0,-36.0,8.0,-33.0,-24.0,-18.0,-29.0,0.0
-50.0,-2.0,119.0,0.0,-19.0,-14.0,-64.0,-57.0,-48.0,-55.0,0.0
-30.0,16.0,174.0,-6.0,-23.0,-22.0,-66.0,-62.0,-47.0,-52.0,0.0
-16.0,-1.0,147.0,-23.0,-37.0,-21.0,-59.0,-52.0,-39.0,-30.0,0.0
-18.0,-10.0,102.0,-10.0,-49.0,-53.0,-67.0,-40.0,-33.0,-35.0,0.0
5.0,0.0,16.0,7.0,-42.0,-58.0,-42.0,-9.0,-1.0,-12.0,0.0
41.0,17.0,-113.0,7.0,7.0,8.0,11.0,43.0,41.0,39.0,0.0
50.0,6.0,-159.0,-11.0,59.0,50.0,37.0,57.0,43.0,52.0,0.0
22.0,-13.0,-79.0,14.0,54.0,40.0,15.0,24.0,3.0,33.0,0.0
17.0,-21.0,-51.0,7.0,6.0,-5.0,-11.0,23.0,7.0,42.0,0.0
26.0,-2.0,-39.0,3.0,-51.0,-23.0,-10.0,35.0,32.0,51.0,0.0
45.0,27.0,-32.0,16.0,-81.0,-6.0,5.0,38.0,47.0,52.0,0.0
37.0,16.0,-43.0,58.0,-48.0,23.0,10.0,29.0,31.0,29.0,0.0
13.0,-15.0,-57.0,46.0,-20.0,39.0,18.0,18.0,8.0,5.0,0.0
4.0,-26.0,-65.0,14.0,-8.0,42.0,21.0,20.0,3.0,-10.0,0.0
-1.0,-34.0,-48.0,3.0,-11.0,33.0,12.0,20.0,-3.0,-15.0,0.0
9.0,-17.0,-25.0,-43.0,-32.0,30.0,12.0,11.0,0.0,-8.0,0.0
31.0,-13.0,-10.0,-117.0,-47.0,29.0,14.0,16.0,9.0,9.0,0.0
25.0,-44.0,-6.0,-119.0,-45.0,34.0,10.0,12.0,9.0,12.0,0.0
12.0,-44.0,32.0,-69.0,-34.0,22.0,13.0,-2.0,31.0,9.0,0.0
-13.0,-46.0,97.0,-3.0,-24.0,-5.0,11.0,-9.0,40.0,8.0,0.0
-22.0,-68.0,123.0,21.0,-31.0,-44.0,-31.0,-18.0,-19.0,-4.0,0.0
-41.0,-97.0,84.0,37.0,-24.0,-45.0,-39.0,-20.0,-41.0,-16.0,0.0
-64.0,-136.0,7.0,44.0,-5.0,-19.0,-28.0,-17.0,-41.0,-40.0,0.0
-63.0,-148.0,-5.0,26.0,5.0,-5.0,-17.0,-15.0,-36.0,-54.0,0.0
-39.0,-83.0,35.0,-5.0,0.0,-18.0,-29.0,-25.0,-37.0,-42.0,0.0
9.0,107.0,72.0,-18.0,-6.0,-13.0,-30.0,-23.0,-35.0,-29.0,0.0
40.0,242.0,70.0,-23.0,4.0,11.0,-6.0,-5.0,-18.0,-20.0,0.0
14.0,183.0,139.0,0.0,6.0,16.0,12.0,1.0,-9.0,-11.0,0.0
-24.0,52.0,171.0,36.0,2.0,6.0,7.0,-6.0,-21.0,-21.0,0.0
-47.0,-11.0,117.0,48.0,-7.0,-6.0,-18.0,-26.0,-45.0,-47.0,0.0
-52.0,-5.0,29.0,46.0,-5.0,-14.0,-39.0,-45.0,-42.0,-59.0,0.0
-34.0,-4.0,-83.0,50.0,48.0,18.0,-25.0,-26.0,-27.0,-33.0,0.0
-26.0,1.0,-150.0,71.0,101.0,63.0,15.0,0.0,-20.0,-17.0,0.0
-22.0,-6.0,-186.0,17.0,102.0,67.0,31.0,10.0,-18.0,-11.0,0.0
-12.0,-30.0,-172.0,-64.0,44.0,40.0,27.0,37.0,2.0,12.0,0.0
27.0,-13.0,-130.0,-144.0,-39.0,3.0,29.0,73.0,43.0,63.0,0.0
61.0,24.0,-76.0,-214.0,-90.0,-25.0,35.0,75.0,59.0,93.0,0.0
51.0,5.0,-100.0,-240.0,-123.0,-41.0,17.0,64.0,57.0,80.0,0.0
47.0,-19.0,-131.0,-238.0,-153.0,-56.0,16.0,68.0,48.0,81.0,0.0
48.0,-16.0,-111.0,-210.0,-144.0,-66.0,10.0,56.0,36.0,74.0,0.0
38.0,9.0,-65.0,-101.0,-125.0,-66.0,3.0,47.0,24.0,60.0,0.0
9.0,1.0,-32.0,3.0,-88.0,-48.0,7.0,40.0,21.0,44.0,0.0
-18.0,-32.0,-12.0,61.0,-16.0,-12.0,8.0,21.0,-2.0,14.0,0.0
-34.0,-58.0,19.0,144.0,26.0,15.0,2.0,1.0,-22.0,-11.0,0.0
-58.0,-71.0,55.0,229.0,81.0,25.0,-6.0,-12.0,-64.0,-40.0,0.0
-68.0,-53.0,34.0,186.0,147.0,21.0,2.0,-33.0,-71.0,-43.0,0.0
-55.0,-31.0,-51.0,114.0,172.0,14.0,-6.0,-40.0,-62.0,-32.0,0.0
-28.0,-19.0,-72.0,141.0,150.0,19.0,-4.0,-29.0,-45.0,-20.0,0.0
-12.0,-3.0,-65.0,114.0,115.0,33.0,3.0,-2.0,-15.0,-1.0,0.0
-25.0,-11.0,-70.0,-19.0,98.0,27.0,-4.0,0.0,-4.0,-9.0,0.0
-33.0,-9.0,-28.0,-101.0,95.0,5.0,-21.0,-3.0,-8.0,-16.0,0.0
-2.0,10.0,27.0,-203.0,-66.0,-15.0,-4.0,27.0,1.0,15.0,0.0
31.0,27.0,36.0,-393.0,-304.0,-49.0,13.0,45.0,24.0,47.0,0.0
36.0,31.0,27.0,-417.0,-356.0,-94.0,0.0,34.0,24.0,49.0,0.0
34.0,26.0,21.0,-261.0,-281.0,-96.0,-14.0,10.0,25.0,34.0,0.0
15.0,-12.0,20.0,37.0,-124.0,-56.0,-28.0,-6.0,-1.0,10.0,0.0
1.0,-47.0,-1.0,294.0,4.0,-6.0,-27.0,0.0,-1.0,9.0,0.0
13.0,-14.0,0.0,250.0,19.0,7.0,-18.0,10.0,22.0,36.0,0.0
3.0,29.0,50.0,173.0,-32.0,-1.0,-36.0,-5.0,2.0,22.0,0.0
-9.0,25.0,45.0,182.0,-22.0,0.0,-30.0,-19.0,-7.0,0.0,0.0
-10.0,-5.0,-7.0,129.0,0.0,6.0,-30.0,-23.0,-14.0,-19.0,0.0
-5.0,-17.0,-30.0,72.0,7.0,6.0,-24.0,-15.0,-16.0,-20.0,0.0
3.0,-13.0,-14.0,56.0,39.0,4.0,-1.0,-4.0,-10.0,-9.0,0.0
7.0,-2.0,4.0,68.0,60.0,23.0,-4.0,6.0,-10.0,-11.0,0.0
3.0,1.0,13.0,73.0,41.0,19.0,-7.0,4.0,-8.0,-20.0,0.0
-3.0,8.0,16.0,70.0,35.0,22.0,-18.0,0.0,1.0,-20.0,0.0
-2.0,5.0,14.0,57.0,41.0,20.0,-30.0,4.0,7.0,-10.0,0.0
-6.0,-2.0,25.0,51.0,46.0,12.0,-30.0,2.0,9.0,-14.0,0.0
-16.0,7.0,46.0,51.0,33.0,4.0,-45.0,-12.0,-11.0,-11.0,0.0
-17.0,0.0,26.0,55.0,32.0,-18.0,-50.0,-17.0,-24.0,-6.0,0.0
-38.0,-26.0,12.0,65.0,65.0,-17.0,-38.0,-15.0,-14.0,-14.0,0.0
-65.0,-49.0,26.0,80.0,96.0,2.0,-32.0,-20.0,-23.0,-32.0,0.0
-64.0,-46.0,39.0,64.0,77.0,-8.0,-34.0,-18.0,-25.0,-36.0,0.0
-60.0,-47.0,40.0,18.0,19.0,-26.0,-31.0,-13.0,-33.0,-35.0,0.0
-80.0,-72.0,66.0,35.0,9.0,-27.0,-50.0,-26.0,-49.0,-48.0,0.0
-58.0,-52.0,92.0,83.0,10.0,-24.0,-40.0,-37.0,-45.0,-51.0,0.0
9.0,26.0,60.0,8.0,-6.0,-36.0,-19.0,-29.0,-16.0,-25.0,0.0
62.0,59.0,18.0,-78.0,-33.0,-38.0,0.0,-2.0,10.0,-1.0,0.0
39.0,16.0,-13.0,-69.0,-26.0,-18.0,17.0,13.0,29.0,7.0,0.0
3.0,-32.0,-48.0,-31.0,3.0,3.0,28.0,15.0,27.0,9.0,0.0
20.0,-27.0,-123.0,-68.0,11.0,28.0,45.0,33.0,43.0,46.0,0.0
57.0,25.0,-151.0,-190.0,-42.0,29.0,50.0,32.0,56.0,65.0,0.0
59.0,78.0,-92.0,-203.0,-87.0,-13.0,18.0,7.0,26.0,35.0,0.0
13.0,57.0,-18.0,-55.0,-35.0,-21.0,-4.0,-29.0,-8.0,-5.0,0.0
-16.0,11.0,21.0,45.0,9.0,-28.0,-6.0,-28.0,-15.0,-19.0,0.0
-15.0,3.0,39.0,49.0,10.0,-20.0,12.0,-14.0,-1.0,-11.0,0.0
10.0,36.0,59.0,-6.0,1.0,-28.0,18.0,4.0,15.0,4.0,0.0
43.0,70.0,39.0,-78.0,-28.0,-46.0,20.0,23.0,35.0,27.0,0.0
53.0,65.0,30.0,-86.0,-78.0,-35.0,26.0,34.0,44.0,38.0,0.0
20.0,26.0,32.0,32.0,-88.0,-35.0,13.0,22.0,26.0,18.0,0.0
13.0,8.0,0.0,73.0,-41.0,-20.0,13.0,17.0,30.0,14.0,0.0
25.0,5.0,-40.0,2.0,40.0,-4.0,35.0,27.0,59.0,29.0,0.0
17.0,-5.0,-50.0,-27.0,80.0,-7.0,40.0,19.0,46.0,27.0,0.0
8.0,-7.0,-7.0,-3.0,81.0,-10.0,29.0,11.0,15.0,3.0,0.0
-8.0,-10.0,55.0,43.0,105.0,9.0,22.0,-2.0,-6.0,-12.0,0.0
-38.0,-25.0,75.0,62.0,113.0,10.0,11.0,-25.0,-18.0,-30.0,0.0
-40.0,-29.0,46.0,24.0,92.0,7.0,4.0,-28.0,-20.0,-51.0,0.0
-43.0,-31.0,31.0,89.0,112.0,17.0,10.0,-30.0,-25.0,-56.0,0.0
-33.0,-34.0,21.0,192.0,130.0,21.0,13.0,-23.0,-15.0,-41.0,0.0
-6.0,-10.0,-27.0,106.0,112.0,27.0,14.0,-5.0,10.0,-5.0,0.0
7.0,14.0,-65.0,12.0,74.0,30.0,23.0,3.0,17.0,8.0,0.0
12.0,22.0,-51.0,7.0,51.0,15.0,10.0,4.0,17.0,-2.0,0.0
17.0,9.0,-17.0,16.0,41.0,-3.0,-3.0,-1.0,19.0,3.0,0.0
12.0,0.0,-3.0,3.0,12.0,-19.0,1.0,-12.0,19.0,7.0,0.0
11.0,4.0,-1.0,-6.0,-12.0,-35.0,6.0,-7.0,19.0,19.0,0.0
20.0,10.0,-1.0,-10.0,-9.0,-23.0,5.0,-2.0,21.0,30.0,0.0
17.0,0.0,4.0,4.0,6.0,-12.0,5.0,-2.0,6.0,19.0,0.0
3.0,-24.0,-14.0,21.0,26.0,-3.0,0.0,-22.0,-7.0,13.0,0.0
-8.0,-28.0,-23.0,33.0,50.0,16.0,4.0,-35.0,-17.0,2.0,0.0
-16.0,-2.0,25.0,69.0,74.0,36.0,0.0,-35.0,-27.0,-18.0,0.0
-31.0,2.0,107.0,114.0,98.0,49.0,-6.0,-36.0,-41.0,-37.0,0.0
-55.0,-18.0,203.0,142.0,114.0,50.0,-7.0,-43.0,-44.0,-48.0,0.0
-81.0,-34.0,227.0,152.0,116.0,50.0,-6.0,-54.0,-56.0,-54.0,0.0
-89.0,-63.0,133.0,154.0,96.0,48.0,0.0,-40.0,-65.0,-65.0,0.0
-52.0,-59.0,-5.0,112.0,63.0,59.0,32.0,-3.0,-31.0,-41.0,0.0
-3.0,-59.0,-162.0,-6.0,-11.0,50.0,56.0,40.0,25.0,19.0,0.0
23.0,-74.0,-229.0,-106.0,-83.0,21.0,49.0,54.0,45.0,46.0,0.0
21.0,-59.0,-126.0,-151.0,-115.0,-4.0,22.0,40.0,40.0,34.0,0.0
22.0,5.0,62.0,-135.0,-126.0,-33.0,-12.0,4.0,25.0,11.0,0.0
31.0,49.0,254.0,-83.0,-134.0,-68.0,-41.0,-23.0,3.0,0.0,0.0
27.0,46.0,343.0,-5.0,-103.0,-82.0,-50.0,-33.0,-3.0,-2.0,0.0
15.0,3.0,210.0,36.0,-42.0,-53.0,-40.0,-30.0,1.0,-8.0,0.0
6.0,-17.0,-1.0,-38.0,-22.0,-10.0,-15.0,-4.0,13.0,2.0,0.0
8.0,-24.0,-154.0,-138.0,-28.0,0.0,8.0,25.0,37.0,36.0,0.0
21.0,-19.0,-188.0,-146.0,-23.0,9.0,25.0,44.0,54.0,61.0,0.0
25.0,-24.0,-228.0,-93.0,-19.0,28.0,45.0,59.0,50.0,64.0,0.0
42.0,-3.0,-191.0,-28.0,-39.0,11.0,45.0,63.0,26.0,30.0,0.0
30.0,35.0,-106.0,-9.0,-54.0,-10.0,30.0,57.0,9.0,9.0,0.0
4.0,63.0,2.0,9.0,-39.0,-3.0,19.0,60.0,-16.0,-7.0,0.0
1.0,118.0,55.0,3.0,-26.0,8.0,22.0,71.0,-26.0,-18.0,0.0
36.0,162.0,47.0,-61.0,-26.0,23.0,37.0,72.0,1.0,-3.0,0.0
67.0,156.0,-5.0,-159.0,-38.0,35.0,42.0,19.0,12.0,29.0,0.0
57.0,85.0,-78.0,-239.0,-63.0,36.0,32.0,-37.0,23.0,39.0,0.0
44.0,32.0,-91.0,-276.0,-55.0,23.0,19.0,-26.0,44.0,44.0,0.0
41.0,29.0,-59.0,-253.0,-59.0,-7.0,5.0,-20.0,51.0,52.0,0.0
47.0,33.0,-21.0,-193.0,-95.0,-40.0,-5.0,-18.0,46.0,55.0,0.0
45.0,30.0,-2.0,-123.0,-63.0,-51.0,-17.0,-25.0,37.0,46.0,0.0
38.0,46.0,22.0,-32.0,49.0,-37.0,-18.0,-29.0,16.0,17.0,0.0
4.0,42.0,34.0,211.0,181.0,-1.0,-22.0,-42.0,-17.0,-24.0,0.0
-18.0,15.0,-6.0,382.0,142.0,16.0,-3.0,-36.0,-25.0,-31.0,0.0
-20.0,10.0,-12.0,253.0,15.0,1.0,-7.0,-27.0,-32.0,-15.0,0.0
-11.0,10.0,11.0,97.0,-22.0,-14.0,-22.0,-24.0,-39.0,-12.0,0.0
-27.0,-5.0,0.0,61.0,17.0,1.0,-22.0,-27.0,-39.0,-28.0,0.0
-41.0,-29.0,-12.0,81.0,48.0,27.0,-13.0,-31.0,-47.0,-40.0,0.0
-41.0,-44.0,-10.0,87.0,44.0,44.0,-2.0,-45.0,-51.0,-49.0,0.0
-25.0,-42.0,-18.0,65.0,41.0,52.0,16.0,-32.0,-37.0,-29.0,0.0
-2.0,-19.0,-17.0,23.0,42.0,59.0,39.0,-13.0,-15.0,-6.0,0.0
12.0,1.0,6.0,6.0,47.0,71.0,58.0,4.0,26.0,5.0,0.0
38.0,14.0,8.0,-21.0,20.0,72.0,54.0,18.0,37.0,21.0,0.0
34.0,17.0,0.0,-71.0,-55.0,39.0,18.0,26.0,6.0,21.0,0.0
26.0,13.0,8.0,-93.0,-97.0,15.0,9.0,33.0,6.0,19.0,0.0
17.0,0.0,12.0,-69.0,-83.0,13.0,0.0,34.0,10.0,16.0,0.0
0.0,-8.0,27.0,-48.0,-37.0,19.0,-3.0,26.0,20.0,14.0,0.0
0.0,-22.0,33.0,-42.0,-18.0,8.0,4.0,19.0,17.0,7.0,0.0
20.0,-19.0,17.0,-19.0,-5.0,-3.0,-10.0,13.0,6.0,14.0,0.0
25.0,-16.0,31.0,-13.0,-3.0,-11.0,-24.0,11.0,0.0,2.0,0.0
7.0,-25.0,20.0,0.0,-11.0,-18.0,-41.0,-11.0,-13.0,-13.0,0.0
-5.0,-29.0,4.0,21.0,-5.0,-29.0,-42.0,-23.0,-26.0,-29.0,0.0
-19.0,-18.0,30.0,48.0,10.0,-7.0,5.0,-15.0,29.0,-29.0,0.0
-29.0,-38.0,29.0,68.0,30.0,14.0,17.0,-11.0,39.0,-23.0,0.0
-43.0,-54.0,14.0,82.0,57.0,11.0,-27.0,-10.0,-23.0,-25.0,0.0
-53.0,-50.0,13.0,99.0,87.0,23.0,-22.0,0.0,-19.0,-28.0,0.0
-52.0,-43.0,33.0,107.0,99.0,39.0,-8.0,-6.0,-12.0,-36.0,0.0
-66.0,-20.0,128.0,149.0,87.0,40.0,-7.0,-24.0,-39.0,-59.0,0.0
-85.0,-9.0,214.0,207.0,116.0,37.0,-28.0,-68.0,-73.0,-90.0,0.0
-97.0,-25.0,244.0,225.0,142.0,27.0,-45.0,-80.0,-90.0,-101.0,0.0
-106.0,-37.0,200.0,183.0,121.0,-14.0,-56.0,-93.0,-98.0,-117.0,0.0
-87.0,0.0,177.0,127.0,49.0,-57.0,-71.0,-91.0,-89.0,-103.0,0.0
-3.0,92.0,142.0,9.0,-21.0,-58.0,-49.0,-48.0,-32.0,-43.0,0.0
53.0,115.0,67.0,-88.0,-61.0,-42.0,-14.0,4.0,18.0,22.0,0.0
52.0,56.0,39.0,-84.0,-63.0,-37.0,-5.0,3.0,12.0,37.0,0.0
25.0,3.0,63.0,-22.0,-54.0,-50.0,-22.0,-6.0,-4.0,22.0,0.0
29.0,-2.0,7.0,24.0,-42.0,-54.0,-15.0,14.0,9.0,30.0,0.0
63.0,4.0,-191.0,-5.0,-13.0,-10.0,32.0,54.0,66.0,72.0,0.0
54.0,-10.0,-336.0,-97.0,10.0,24.0,55.0,65.0,71.0,79.0,0.0
28.0,10.0,-320.0,-160.0,-11.0,28.0,46.0,53.0,52.0,61.0,0.0
40.0,49.0,-243.0,-213.0,-78.0,14.0,39.0,49.0,57.0,67.0,0.0
45.0,48.0,-61.0,-234.0,-152.0,-10.0,37.0,34.0,53.0,68.0,0.0
-2.0,4.0,46.0,-261.0,-168.0,-30.0,15.0,-5.0,4.0,21.0,0.0
-19.0,-22.0,-37.0,-141.0,-130.0,-23.0,-8.0,-15.0,-17.0,0.0,0.0
-5.0,-16.0,-107.0,52.0,-25.0,-1.0,3.0,2.0,0.0,8.0,0.0
1.0,-1.0,-100.0,143.0,46.0,18.0,12.0,7.0,-1.0,25.0,0.0
9.0,3.0,-57.0,154.0,79.0,27.0,16.0,12.0,-4.0,27.0,0.0
23.0,14.0,-24.0,108.0,92.0,16.0,21.0,25.0,17.0,30.0,0.0
46.0,25.0,-26.0,-87.0,12.0,4.0,23.0,38.0,51.0,63.0,0.0
53.0,16.0,-39.0,-151.0,-71.0,-4.0,34.0,43.0,59.0,73.0,0.0
49.0,12.0,-55.0,-141.0,-100.0,-5.0,35.0,61.0,60.0,78.0,0.0
55.0,29.0,-34.0,-191.0,-88.0,0.0,36.0,65.0,72.0,97.0,0.0
52.0,39.0,19.0,-132.0,-13.0,12.0,63.0,40.0,100.0,93.0,0.0
54.0,45.0,49.0,-73.0,32.0,35.0,107.0,33.0,131.0,75.0,0.0
43.0,32.0,67.0,-3.0,90.0,50.0,100.0,22.0,120.0,46.0,0.0
24.0,13.0,66.0,77.0,112.0,47.0,83.0,13.0,102.0,24.0,0.0
8.0,4.0,51.0,136.0,86.0,41.0,68.0,-4.0,84.0,10.0,0.0
-9.0,5.0,45.0,138.0,59.0,44.0,66.0,-14.0,76.0,2.0,0.0
-27.0,-5.0,38.0,84.0,62.0,53.0,55.0,0.0,73.0,6.0,0.0
-31.0,-12.0,35.0,25.0,94.0,74.0,57.0,6.0,70.0,1.0,0.0
-3.0,-4.0,38.0,-49.0,37.0,69.0,61.0,25.0,97.0,14.0,0.0
1.0,-4.0,35.0,-117.0,-68.0,45.0,63.0,37.0,91.0,27.0,0.0
-10.0,-20.0,-6.0,-102.0,-73.0,15.0,16.0,28.0,28.0,5.0,0.0
-16.0,-22.0,-28.0,-53.0,-17.0,-5.0,-37.0,14.0,-32.0,-13.0,0.0
-14.0,-21.0,-28.0,-31.0,3.0,-18.0,-41.0,-1.0,-34.0,-15.0,0.0
-11.0,-27.0,-13.0,-27.0,8.0,-8.0,0.0,5.0,6.0,-17.0,0.0
-15.0,-31.0,1.0,-9.0,10.0,-15.0,3.0,11.0,12.0,-21.0,0.0
-21.0,-19.0,-8.0,-15.0,3.0,-53.0,-45.0,3.0,-32.0,-23.0,0.0
-20.0,-9.0,-17.0,-9.0,2.0,-54.0,-54.0,1.0,-48.0,-3.0,0.0
-8.0,-7.0,-5.0,7.0,15.0,-43.0,-45.0,2.0,-53.0,6.0,0.0
17.0,-11.0,19.0,15.0,19.0,-27.0,-15.0,-6.0,-41.0,-2.0,0.0
20.0,-6.0,20.0,20.0,9.0,-11.0,-4.0,-16.0,-35.0,-8.0,0.0
-1.0,-29.0,-28.0,7.0,3.0,-23.0,-41.0,-32.0,-65.0,-16.0,0.0
-22.0,-59.0,-44.0,-2.0,20.0,-4.0,-34.0,-23.0,-59.0,-13.0,0.0
-22.0,-64.0,-46.0,2.0,23.0,7.0,-17.0,-12.0,-50.0,-8.0,0.0
-16.0,-62.0,-52.0,5.0,7.0,8.0,-4.0,-5.0,-42.0,-7.0,0.0
-11.0,-65.0,-37.0,16.0,14.0,32.0,26.0,0.0,-11.0,-10.0,0.0
-6.0,-53.0,-29.0,28.0,25.0,31.0,36.0,-10.0,-16.0,-11.0,0.0
-7.0,-45.0,-45.0,43.0,24.0,3.0,-6.0,-17.0,-63.0,-32.0,0.0
-11.0,-40.0,-31.0,55.0,27.0,-3.0,-36.0,-24.0,-78.0,-60.0,0.0
-14.0,-7.0,23.0,68.0,38.0,-4.0,-51.0,-32.0,-84.0,-69.0,0.0
-9.0,52.0,50.0,74.0,56.0,-18.0,-56.0,-36.0,-77.0,-56.0,0.0
-6.0,66.0,64.0,110.0,66.0,-14.0,-52.0,-45.0,-72.0,-57.0,0.0
-30.0,22.0,97.0,129.0,48.0,-15.0,-66.0,-63.0,-89.0,-91.0,0.0
-54.0,26.0,165.0,159.0,27.0,-43.0,-90.0,-85.0,-128.0,-113.0,0.0
-69.0,48.0,209.0,222.0,23.0,-43.0,-107.0,-95.0,-151.0,-110.0,0.0
-71.0,45.0,163.0,180.0,24.0,-26.0,-103.0,-101.0,-142.0,-103.0,0.0
-59.0,30.0,64.0,87.0,25.0,-26.0,-83.0,-73.0,-104.0,-78.0,0.0
-40.0,36.0,91.0,107.0,57.0,-36.0,-68.0,-55.0,-84.0,-61.0,0.0
-15.0,55.0,191.0,75.0,41.0,-37.0,-50.0,-34.0,-70.0,-46.0,0.0
4.0,48.0,177.0,0.0,-32.0,-40.0,-42.0,4.0,-45.0,-8.0,0.0
-26.0,5.0,137.0,36.0,-48.0,-45.0,-47.0,-7.0,-51.0,-24.0,0.0
-61.0,-46.0,66.0,4.0,-53.0,-52.0,-44.0,-16.0,-56.0,-51.0,0.0
-36.0,-38.0,-45.0,-78.0,-19.0,-46.0,-25.0,24.0,-16.0,-18.0,0.0
17.0,23.0,-57.0,-67.0,31.0,-13.0,9.0,66.0,27.0,23.0,0.0
47.0,38.0,-128.0,-132.0,13.0,6.0,24.0,74.0,43.0,48.0,0.0
106.0,72.0,-165.0,-257.0,-49.0,3.0,53.0,85.0,81.0,85.0,0.0
156.0,129.0,-215.0,-382.0,-60.0,17.0,93.0,128.0,129.0,139.0,0.0
148.0,122.0,-185.0,-419.0,-57.0,10.0,90.0,135.0,126.0,155.0,0.0
104.0,81.0,-108.0,-320.0,-81.0,-16.0,57.0,110.0,99.0,127.0,0.0
67.0,89.0,-40.0,-49.0,-40.0,-25.0,33.0,79.0,56.0,91.0,0.0
44.0,81.0,-29.0,200.0,30.0,7.0,38.0,77.0,40.0,66.0,0.0
31.0,53.0,-39.0,214.0,44.0,23.0,35.0,63.0,36.0,50.0,0.0
25.0,50.0,-31.0,84.0,-20.0,6.0,25.0,51.0,32.0,44.0,0.0
24.0,54.0,-16.0,-36.0,-94.0,-23.0,26.0,53.0,23.0,37.0,0.0
21.0,45.0,-21.0,-87.0,-102.0,-26.0,29.0,34.0,32.0,29.0,0.0
18.0,20.0,-37.0,-104.0,-76.0,-9.0,33.0,21.0,26.0,23.0,0.0
12.0,12.0,-56.0,-148.0,-64.0,-7.0,16.0,18.0,14.0,28.0,0.0
1.0,3.0,-48.0,-133.0,-59.0,-8.0,-15.0,3.0,0.0,29.0,0.0
-26.0,-31.0,-12.0,80.0,-18.0,-9.0,-21.0,-15.0,-24.0,-5.0,0.0
-55.0,-54.0,16.0,278.0,42.0,4.0,-14.0,-30.0,-47.0,-31.0,0.0
-50.0,-49.0,5.0,194.0,38.0,9.0,-16.0,-20.0,-33.0,-24.0,0.0
-43.0,-44.0,-12.0,92.0,22.0,4.0,-16.0,-8.0,-15.0,-23.0,0.0
-30.0,-28.0,-2.0,68.0,10.0,1.0,-24.0,-10.0,-6.0,-22.0,0.0
-17.0,-15.0,14.0,66.0,3.0,-13.0,-29.0,-9.0,-11.0,-22.0,0.0
-10.0,-4.0,18.0,55.0,9.0,-24.0,-21.0,-6.0,-3.0,-12.0,0.0
-12.0,-8.0,15.0,42.0,10.0,-12.0,-11.0,2.0,0.0,-7.0,0.0
-4.0,-17.0,18.0,35.0,5.0,-19.0,0.0,2.0,0.0,-13.0,0.0
-7.0,-27.0,-3.0,31.0,1.0,-21.0,-8.0,-3.0,-4.0,-7.0,0.0
-8.0,-37.0,-10.0,33.0,2.0,-8.0,-8.0,-4.0,3.0,-2.0,0.0
-10.0,-46.0,6.0,12.0,-1.0,-1.0,0.0,0.0,11.0,-3.0,0.0
-10.0,-43.0,-3.0,4.0,2.0,-1.0,0.0,8.0,0.0,-7.0,0.0
3.0,-29.0,-7.0,13.0,10.0,1.0,-11.0,-13.0,-7.0,-8.0,0.0
14.0,-15.0,18.0,16.0,14.0,10.0,-7.0,-24.0,-20.0,-15.0,0.0
11.0,-14.0,19.0,14.0,12.0,13.0,0.0,-30.0,-27.0,-19.0,0.0
10.0,-10.0,28.0,6.0,15.0,14.0,20.0,-34.0,-21.0,-16.0,0.0
-1.0,-16.0,27.0,1.0,17.0,19.0,9.0,-24.0,-25.0,-13.0,0.0
-15.0,-17.0,23.0,-7.0,16.0,17.0,-9.0,-18.0,-34.0,-14.0,0.0
-16.0,-15.0,14.0,-7.0,8.0,7.0,-4.0,-16.0,-34.0,-12.0,0.0
-22.0,-14.0,14.0,-10.0,-1.0,13.0,-1.0,-9.0,-13.0,-12.0,0.0
-30.0,-24.0,4.0,-3.0,5.0,9.0,-2.0,-5.0,-16.0,-8.0,0.0
-30.0,-33.0,12.0,8.0,11.0,10.0,-7.0,-3.0,-17.0,-8.0,0.0
-24.0,-26.0,10.0,16.0,19.0,7.0,-11.0,4.0,-18.0,-18.0,0.0
-13.0,-20.0,17.0,14.0,22.0,2.0,-13.0,-1.0,-30.0,-20.0,0.0
-13.0,-8.0,0.0,17.0,25.0,-7.0,-16.0,4.0,-24.0,-13.0,0.0
-8.0,-2.0,25.0,13.0,29.0,-14.0,-19.0,15.0,-7.0,-8.0,0.0
-4.0,-7.0,68.0,16.0,6.0,-15.0,-26.0,17.0,-1.0,-7.0,0.0
-4.0,-12.0,67.0,15.0,-25.0,-11.0,-40.0,7.0,-1.0,-6.0,0.0
-12.0,-14.0,27.0,6.0,-21.0,4.0,-26.0,-7.0,-11.0,-5.0,0.0
-27.0,-32.0,-26.0,4.0,-19.0,23.0,-9.0,-8.0,-19.0,-15.0,0.0
-28.0,-25.0,-10.0,14.0,-23.0,35.0,-10.0,-25.0,-24.0,-17.0,0.0
-59.0,-23.0,44.0,26.0,-37.0,23.0,-15.0,-55.0,-47.0,-51.0,0.0
-96.0,-30.0,74.0,35.0,-21.0,10.0,-39.0,-95.0,-93.0,-93.0,0.0
-102.0,-42.0,74.0,33.0,4.0,27.0,-47.0,-91.0,-102.0,-99.0,0.0
-77.0,-32.0,47.0,70.0,28.0,47.0,-36.0,-56.0,-73.0,-73.0,0.0
-54.0,-13.0,-40.0,133.0,117.0,56.0,-10.0,-35.0,-49.0,-59.0,0.0
-53.0,-16.0,-94.0,226.0,309.0,79.0,18.0,-11.0,-37.0,-49.0,0.0
-40.0,-13.0,-44.0,309.0,356.0,85.0,42.0,19.0,-6.0,-9.0,0.0
-27.0,-18.0,26.0,349.0,319.0,82.0,57.0,69.0,8.0,-5.0,0.0
-49.0,-46.0,86.0,260.0,243.0,35.0,18.0,80.0,-6.0,-25.0,0.0
-72.0,-56.0,178.0,160.0,82.0,-29.0,-12.0,57.0,-20.0,-32.0,0.0
-59.0,-32.0,188.0,19.0,-83.0,-42.0,8.0,37.0,-11.0,-16.0,0.0
16.0,19.0,74.0,-216.0,-233.0,-32.0,29.0,-11.0,21.0,35.0,0.0
44.0,15.0,-58.0,-406.0,-343.0,-46.0,17.0,-29.0,59.0,75.0,0.0
34.0,20.0,-84.0,-378.0,-351.0,-75.0,-20.0,-36.0,56.0,64.0,0.0
73.0,64.0,-48.0,-323.0,-306.0,-87.0,-28.0,-28.0,60.0,73.0,0.0
122.0,75.0,-128.0,-305.0,-191.0,-35.0,26.0,6.0,108.0,101.0,0.0
132.0,43.0,-237.0,-302.0,-76.0,20.0,72.0,40.0,118.0,123.0,0.0
104.0,22.0,-246.0,-289.0,-39.0,23.0,43.0,43.0,85.0,108.0,0.0
84.0,25.0,-184.0,-243.0,-47.0,18.0,12.0,30.0,52.0,69.0,0.0
50.0,2.0,-145.0,-154.0,-34.0,25.0,11.0,22.0,31.0,44.0,0.0
35.0,-28.0,-140.0,-119.0,-31.0,34.0,21.0,33.0,30.0,44.0,0.0
41.0,-16.0,-126.0,-201.0,-84.0,15.0,20.0,42.0,48.0,55.0,0.0
34.0,12.0,-67.0,-253.0,-109.0,-16.0,-1.0,26.0,57.0,54.0,0.0
2.0,32.0,42.0,-158.0,-85.0,-29.0,-9.0,-5.0,48.0,33.0,0.0
-21.0,3.0,66.0,91.0,0.0,-14.0,-16.0,-21.0,28.0,0.0,0.0
-29.0,-19.0,35.0,198.0,44.0,-3.0,-17.0,-6.0,7.0,-6.0,0.0
-29.0,-23.0,4.0,76.0,15.0,-12.0,-15.0,2.0,24.0,9.0,0.0
-21.0,-27.0,-3.0,22.0,-7.0,-15.0,-20.0,-1.0,29.0,11.0,0.0
-38.0,-45.0,-5.0,166.0,34.0,-11.0,-25.0,-18.0,2.0,-14.0,0.0
-17.0,-37.0,-19.0,294.0,116.0,29.0,0.0,-14.0,2.0,-4.0,0.0
22.0,-5.0,-23.0,164.0,112.0,56.0,22.0,-2.0,29.0,22.0,0.0
14.0,3.0,-4.0,63.0,66.0,42.0,13.0,-2.0,28.0,26.0,0.0
-10.0,-4.0,11.0,49.0,44.0,31.0,13.0,-3.0,23.0,12.0,0.0
-8.0,-6.0,17.0,40.0,50.0,45.0,34.0,-19.0,30.0,8.0,0.0
-3.0,11.0,11.0,35.0,52.0,45.0,16.0,-28.0,7.0,1.0,0.0
-10.0,23.0,16.0,35.0,35.0,28.0,-20.0,-34.0,-27.0,-12.0,0.0
-21.0,12.0,29.0,46.0,20.0,34.0,-17.0,-29.0,-45.0,-25.0,0.0
-25.0,-6.0,16.0,41.0,18.0,34.0,-19.0,-29.0,-44.0,-41.0,0.0
-22.0,-11.0,4.0,32.0,19.0,33.0,-20.0,-28.0,-30.0,-37.0,0.0
-16.0,5.0,3.0,18.0,22.0,16.0,-15.0,-22.0,-29.0,-26.0,0.0
-6.0,26.0,18.0,20.0,18.0,-5.0,-14.0,-27.0,-30.0,-25.0,0.0
0.0,41.0,62.0,40.0,23.0,9.0,27.0,-19.0,21.0,-9.0,0.0
0.0,18.0,53.0,15.0,17.0,3.0,-3.0,-15.0,-5.0,-6.0,0.0
-5.0,-3.0,10.0,-8.0,19.0,-18.0,-49.0,-9.0,-42.0,-7.0,0.0
-3.0,-6.0,1.0,-11.0,25.0,-15.0,-40.0,-13.0,-31.0,-10.0,0.0
-10.0,7.0,18.0,14.0,29.0,-5.0,-32.0,-23.0,-20.0,-10.0,0.0
-9.0,-6.0,0.0,33.0,29.0,-5.0,-27.0,-19.0,-10.0,-13.0,0.0
-4.0,-15.0,-12.0,35.0,22.0,-4.0,-22.0,-14.0,-8.0,-16.0,0.0
-12.0,-27.0,-16.0,27.0,24.0,5.0,-7.0,-14.0,-5.0,-20.0,0.0
-14.0,-30.0,-17.0,18.0,13.0,12.0,3.0,-6.0,19.0,-22.0,0.0
-23.0,-28.0,-22.0,13.0,6.0,11.0,6.0,-9.0,17.0,-19.0,0.0
-32.0,-45.0,-31.0,22.0,2.0,2.0,-13.0,-13.0,-4.0,-12.0,0.0
-32.0,-60.0,-22.0,24.0,0.0,0.0,-13.0,-9.0,-18.0,-3.0,0.0
-40.0,-55.0,-13.0,25.0,4.0,0.0,-4.0,-9.0,-20.0,-10.0,0.0
-36.0,-29.0,-8.0,24.0,6.0,-3.0,-7.0,-17.0,-31.0,-18.0,0.0
-21.0,24.0,1.0,26.0,11.0,0.0,-20.0,-19.0,-37.0,-21.0,0.0
-9.0,39.0,17.0,51.0,19.0,0.0,-30.0,-7.0,-38.0,-19.0,0.0
2.0,37.0,46.0,69.0,10.0,-20.0,-37.0,-25.0,-35.0,-15.0,0.0
2.0,42.0,73.0,68.0,-1.0,-38.0,-30.0,-31.0,-32.0,-13.0,0.0
2.0,26.0,58.0,67.0,19.0,-29.0,-9.0,-28.0,-25.0,-22.0,0.0
8.0,0.0,32.0,44.0,42.0,-8.0,11.0,-22.0,-19.0,-28.0,0.0
7.0,-24.0,-11.0,-19.0,34.0,4.0,14.0,0.0,-7.0,-17.0,0.0
7.0,-26.0,-20.0,-43.0,2.0,-4.0,12.0,17.0,16.0,17.0,0.0
20.0,-2.0,-10.0,-67.0,-47.0,-23.0,15.0,14.0,29.0,30.0,0.0
26.0,21.0,-6.0,-64.0,-54.0,-14.0,25.0,-10.0,24.0,23.0,0.0
4.0,-4.0,-5.0,6.0,10.0,11.0,21.0,-22.0,4.0,2.0,0.0
-23.0,-26.0,15.0,102.0,77.0,13.0,-16.0,-41.0,-49.0,-33.0,0.0
-21.0,-30.0,12.0,142.0,109.0,25.0,-29.0,-38.0,-74.0,-41.0,0.0
6.0,-1.0,15.0,102.0,94.0,30.0,-11.0,-8.0,-38.0,-13.0,0.0
15.0,0.0,22.0,55.0,93.0,27.0,1.0,0.0,-18.0,5.0,0.0
32.0,32.0,10.0,-25.0,46.0,21.0,21.0,11.0,-5.0,35.0,0.0
64.0,58.0,31.0,-108.0,-75.0,16.0,33.0,30.0,9.0,57.0,0.0
57.0,62.0,67.0,-159.0,-139.0,4.0,31.0,28.0,23.0,51.0,0.0
34.0,48.0,102.0,-144.0,-93.0,18.0,29.0,22.0,27.0,23.0,0.0
20.0,32.0,125.0,-101.0,-62.0,25.0,4.0,22.0,3.0,9.0,0.0
23.0,16.0,135.0,-79.0,-49.0,3.0,-21.0,6.0,-10.0,18.0,0.0
23.0,23.0,102.0,-57.0,-20.0,-12.0,-34.0,-1.0,6.0,37.0,0.0
8.0,10.0,12.0,-11.0,26.0,-4.0,-31.0,-8.0,3.0,25.0,0.0
-20.0,-31.0,-71.0,37.0,81.0,4.0,-24.0,-4.0,-12.0,-13.0,0.0
-16.0,-38.0,-93.0,23.0,52.0,-22.0,-6.0,14.0,4.0,-8.0,0.0
-4.0,-31.0,-85.0,-11.0,5.0,-32.0,-4.0,16.0,9.0,13.0,0.0
-15.0,-21.0,-41.0,-8.0,-10.0,-19.0,33.0,0.0,41.0,24.0,0.0
-17.0,-16.0,-14.0,-18.0,-34.0,-13.0,26.0,2.0,24.0,20.0,0.0
24.0,-10.0,-67.0,-75.0,-91.0,-12.0,2.0,13.0,0.0,40.0,0.0
68.0,11.0,-72.0,-101.0,-108.0,-7.0,9.0,20.0,4.0,52.0,0.0
45.0,0.0,-39.0,-46.0,-55.0,-8.0,4.0,13.0,-20.0,27.0,0.0
-9.0,-32.0,-26.0,40.0,1.0,3.0,-12.0,-8.0,-42.0,-13.0,0.0
-73.0,-73.0,53.0,130.0,45.0,9.0,-27.0,-22.0,-80.0,-46.0,0.0
-97.0,-100.0,206.0,187.0,66.0,12.0,-32.0,-24.0,-92.0,-64.0,0.0
-67.0,-99.0,145.0,117.0,26.0,-12.0,-26.0,-21.0,-70.0,-39.0,0.0
-40.0,-86.0,-1.0,35.0,-10.0,-39.0,-19.0,-8.0,-45.0,6.0,0.0
-9.0,-53.0,-143.0,-31.0,-5.0,-36.0,-23.0,12.0,-20.0,24.0,0.0
35.0,13.0,-191.0,-103.0,-13.0,-18.0,-22.0,35.0,4.0,57.0,0.0
69.0,59.0,-140.0,-160.0,-50.0,-22.0,-11.0,36.0,19.0,83.0,0.0
64.0,35.0,-3.0,-178.0,-79.0,-53.0,-22.0,12.0,11.0,63.0,0.0
66.0,28.0,43.0,-231.0,-115.0,-61.0,-22.0,8.0,13.0,57.0,0.0
95.0,39.0,-120.0,-260.0,-99.0,-27.0,15.0,47.0,32.0,79.0,0.0
115.0,39.0,-214.0,-232.0,-73.0,2.0,47.0,70.0,52.0,98.0,0.0
84.0,20.0,-131.0,-94.0,-29.0,22.0,42.0,48.0,42.0,54.0,0.0
26.0,-4.0,-54.0,79.0,10.0,39.0,30.0,14.0,5.0,2.0,0.0
-13.0,3.0,11.0,112.0,0.0,21.0,14.0,4.0,-11.0,-19.0,0.0
-23.0,-4.0,49.0,94.0,3.0,19.0,7.0,5.0,-17.0,-31.0,0.0
9.0,-6.0,-7.0,79.0,-7.0,16.0,18.0,15.0,0.0,-15.0,0.0
41.0,-7.0,-122.0,3.0,-32.0,14.0,27.0,31.0,29.0,25.0,0.0
29.0,-41.0,-170.0,-38.0,-25.0,25.0,25.0,25.0,27.0,12.0,0.0
20.0,-52.0,-130.0,-50.0,-10.0,12.0,17.0,23.0,19.0,1.0,0.0
12.0,-54.0,-108.0,-62.0,-8.0,0.0,27.0,31.0,25.0,15.0,0.0
22.0,-38.0,-86.0,-46.0,6.0,-4.0,19.0,40.0,18.0,21.0,0.0
28.0,-17.0,-45.0,-40.0,4.0,-27.0,9.0,35.0,14.0,24.0,0.0
26.0,15.0,4.0,-42.0,-2.0,-42.0,5.0,16.0,13.0,21.0,0.0
31.0,53.0,72.0,-27.0,9.0,-27.0,5.0,11.0,-2.0,7.0,0.0
27.0,43.0,73.0,-44.0,7.0,-8.0,3.0,10.0,-11.0,-5.0,0.0
11.0,5.0,-1.0,-43.0,-11.0,-4.0,0.0,10.0,-10.0,-16.0,0.0
-10.0,-8.0,-5.0,-28.0,-43.0,-18.0,-23.0,-23.0,-18.0,-23.0,0.0
-28.0,26.0,119.0,33.0,-56.0,-40.0,-53.0,-61.0,-61.0,-57.0,0.0
-71.0,17.0,190.0,138.0,-10.0,-31.0,-47.0,-90.0,-88.0,-86.0,0.0
-94.0,-5.0,190.0,210.0,58.0,2.0,-31.0,-78.0,-82.0,-84.0,0.0
-89.0,-20.0,116.0,217.0,130.0,37.0,8.0,-40.0,-53.0,-50.0,0.0
-70.0,-33.0,9.0,136.0,203.0,74.0,55.0,10.0,-20.0,-19.0,0.0
-55.0,-27.0,-21.0,-5.0,160.0,71.0,68.0,23.0,7.0,-7.0,0.0
-35.0,-24.0,-16.0,-95.0,95.0,47.0,63.0,37.0,25.0,8.0,0.0
-12.0,6.0,20.0,-90.0,33.0,4.0,54.0,46.0,37.0,27.0,0.0
0.0,67.0,101.0,-36.0,-37.0,-36.0,19.0,28.0,35.0,22.0,0.0
1.0,86.0,120.0,-11.0,-51.0,-40.0,4.0,20.0,32.0,2.0,0.0
4.0,62.0,30.0,-13.0,-52.0,-38.0,0.0,5.0,18.0,-2.0,0.0
19.0,26.0,-90.0,-63.0,-85.0,-43.0,-2.0,7.0,25.0,11.0,0.0
25.0,35.0,-94.0,-62.0,-86.0,-25.0,-1.0,6.0,40.0,23.0,0.0
57.0,69.0,-72.0,-90.0,-48.0,-10.0,1.0,23.0,56.0,45.0,0.0
65.0,64.0,-93.0,-137.0,-18.0,-24.0,6.0,38.0,70.0,46.0,0.0
39.0,23.0,-89.0,-76.0,31.0,-25.0,5.0,30.0,50.0,29.0,0.0
24.0,0.0,-78.0,-2.0,45.0,-1.0,14.0,41.0,44.0,24.0,0.0
26.0,-15.0,-64.0,21.0,6.0,13.0,26.0,40.0,42.0,28.0,0.0
31.0,6.0,-24.0,50.0,-17.0,5.0,30.0,19.0,30.0,14.0,0.0
16.0,21.0,7.0,41.0,-7.0,9.0,32.0,34.0,23.0,0.0,0.0
0.0,15.0,-3.0,-32.0,-15.0,17.0,30.0,35.0,26.0,-2.0,0.0
-4.0,5.0,0.0,-47.0,-23.0,25.0,17.0,17.0,15.0,-8.0,0.0
-14.0,17.0,33.0,-9.0,-26.0,5.0,3.0,-5.0,-5.0,-26.0,0.0
-13.0,30.0,55.0,-28.0,-32.0,0.0,-7.0,-5.0,-9.0,-17.0,0.0
-3.0,15.0,21.0,-55.0,-26.0,-3.0,3.0,16.0,1.0,-2.0,0.0
-17.0,0.0,0.0,-52.0,-28.0,0.0,-4.0,10.0,4.0,-4.0,0.0
-21.0,0.0,10.0,-9.0,-29.0,-11.0,-11.0,-9.0,0.0,-8.0,0.0
-16.0,1.0,26.0,22.0,-31.0,-28.0,-19.0,-23.0,-11.0,-4.0,0.0
-17.0,2.0,30.0,22.0,-37.0,-38.0,-13.0,-11.0,-12.0,15.0,0.0
-11.0,6.0,46.0,57.0,-20.0,-26.0,-6.0,1.0,8.0,20.0,0.0
-20.0,9.0,43.0,123.0,32.0,-12.0,4.0,1.0,21.0,1.0,0.0
-7.0,13.0,16.0,93.0,56.0,1.0,0.0,5.0,23.0,0.0,0.0
8.0,14.0,9.0,24.0,23.0,3.0,-12.0,3.0,19.0,-1.0,0.0
4.0,0.0,29.0,-9.0,-19.0,2.0,-18.0,-5.0,0.0,-6.0,0.0
-17.0,-6.0,49.0,41.0,7.0,2.0,-36.0,-28.0,-27.0,-21.0,0.0
-26.0,-13.0,40.0,84.0,50.0,5.0,-41.0,-35.0,-41.0,-35.0,0.0
-30.0,-12.0,36.0,99.0,56.0,17.0,-42.0,-37.0,-46.0,-37.0,0.0
-36.0,-10.0,6.0,111.0,41.0,28.0,-35.0,-34.0,-43.0,-49.0,0.0
-20.0,-25.0,-3.0,119.0,41.0,29.0,-32.0,-42.0,-51.0,-57.0,0.0
-25.0,-39.0,12.0,112.0,63.0,34.0,-29.0,-49.0,-64.0,-62.0,0.0
-27.0,-37.0,29.0,78.0,53.0,27.0,-14.0,-31.0,-48.0,-59.0,0.0
-11.0,-16.0,25.0,39.0,29.0,19.0,2.0,-14.0,-22.0,-43.0,0.0
16.0,2.0,57.0,36.0,78.0,24.0,10.0,10.0,0.0,-29.0,0.0
38.0,28.0,99.0,99.0,126.0,31.0,23.0,20.0,20.0,-11.0,0.0
21.0,38.0,165.0,275.0,92.0,32.0,29.0,3.0,14.0,-22.0,0.0
-24.0,12.0,197.0,369.0,62.0,2.0,3.0,-15.0,-31.0,-59.0,0.0
-70.0,-26.0,184.0,320.0,81.0,-14.0,-15.0,-34.0,-56.0,-78.0,0.0
-93.0,-58.0,162.0,212.0,111.0,-3.0,-10.0,-13.0,-60.0,-84.0,0.0
-81.0,-59.0,104.0,37.0,57.0,-19.0,10.0,31.0,-51.0,-72.0,0.0
-49.0,-27.0,47.0,-103.0,-66.0,-52.0,13.0,65.0,-25.0,-35.0,0.0
-23.0,-26.0,-5.0,-123.0,-120.0,-58.0,18.0,36.0,-4.0,-4.0,0.0
-14.0,-21.0,-62.0,-92.0,-95.0,-35.0,16.0,-43.0,-7.0,-7.0,0.0
2.0,-30.0,-77.0,-98.0,-105.0,-20.0,3.0,-56.0,7.0,7.0,0.0
17.0,-16.0,-2.0,-73.0,-107.0,-14.0,0.0,-22.0,36.0,45.0,0.0
28.0,7.0,5.0,-108.0,-97.0,-26.0,-2.0,-4.0,66.0,66.0,0.0
37.0,23.0,-20.0,-219.0,-155.0,-47.0,3.0,8.0,79.0,76.0,0.0
61.0,48.0,-124.0,-294.0,-184.0,-57.0,0.0,27.0,73.0,85.0,0.0
54.0,70.0,-191.0,-285.0,-126.0,-38.0,-10.0,31.0,72.0,68.0,0.0
43.0,82.0,-181.0,-189.0,-17.0,-1.0,-4.0,26.0,61.0,59.0,0.0
33.0,78.0,-185.0,-113.0,29.0,14.0,9.0,34.0,50.0,53.0,0.0
24.0,58.0,-156.0,-87.0,25.0,3.0,12.0,43.0,53.0,48.0,0.0
34.0,50.0,-118.0,-115.0,4.0,-10.0,17.0,48.0,71.0,47.0,0.0
35.0,65.0,-56.0,-124.0,-35.0,-23.0,0.0,36.0,68.0,46.0,0.0
28.0,61.0,-21.0,-130.0,-98.0,-40.0,-7.0,28.0,58.0,45.0,0.0
22.0,55.0,-16.0,-166.0,-149.0,-63.0,2.0,25.0,68.0,49.0,0.0
22.0,35.0,-16.0,-158.0,-118.0,-53.0,9.0,22.0,65.0,50.0,0.0
8.0,19.0,-20.0,-79.0,-35.0,-27.0,3.0,10.0,31.0,29.0,0.0
-2.0,9.0,-39.0,-50.0,4.0,-15.0,5.0,8.0,22.0,18.0,0.0
-5.0,19.0,-34.0,-43.0,-6.0,-24.0,3.0,5.0,6.0,4.0,0.0
-35.0,12.0,-11.0,20.0,-4.0,-29.0,-13.0,-24.0,-30.0,-31.0,0.0
-58.0,-21.0,-25.0,56.0,-10.0,-15.0,-8.0,-25.0,-36.0,-40.0,0.0
-45.0,-18.0,-16.0,25.0,-23.0,17.0,14.0,-4.0,-18.0,-23.0,0.0
-43.0,-6.0,0.0,-21.0,-1.0,40.0,23.0,10.0,-12.0,-25.0,0.0
-36.0,-21.0,8.0,-60.0,15.0,34.0,23.0,19.0,-5.0,-27.0,0.0
-2.0,-9.0,11.0,-160.0,-5.0,15.0,29.0,29.0,12.0,4.0,0.0
44.0,20.0,14.0,-279.0,-46.0,-7.0,21.0,30.0,40.0,44.0,0.0
63.0,29.0,39.0,-283.0,-69.0,-30.0,-2.0,32.0,47.0,47.0,0.0
31.0,12.0,92.0,-35.0,-43.0,-42.0,-26.0,9.0,21.0,7.0,0.0
-23.0,-22.0,121.0,339.0,16.0,-39.0,-21.0,-25.0,-24.0,-28.0,0.0
-38.0,-31.0,92.0,357.0,34.0,-31.0,-18.0,-34.0,-23.0,-43.0,0.0
-34.0,-25.0,43.0,153.0,38.0,-28.0,-19.0,-26.0,-20.0,-30.0,0.0
-36.0,-23.0,29.0,33.0,31.0,-24.0,-18.0,-27.0,-32.0,-27.0,0.0
-38.0,-40.0,2.0,58.0,32.0,-19.0,-12.0,-20.0,-22.0,-12.0,0.0
-22.0,-42.0,-29.0,57.0,11.0,-2.0,10.0,1.0,3.0,20.0,0.0
-20.0,-30.0,-44.0,73.0,16.0,23.0,27.0,18.0,10.0,16.0,0.0
-10.0,-35.0,-82.0,165.0,61.0,53.0,40.0,17.0,0.0,4.0,0.0
-12.0,-40.0,-130.0,170.0,80.0,66.0,56.0,11.0,0.0,8.0,0.0
-25.0,-34.0,-85.0,121.0,54.0,52.0,36.0,5.0,-6.0,0.0,0.0
-21.0,-42.0,3.0,102.0,36.0,44.0,15.0,0.0,-13.0,-22.0,0.0
-30.0,-66.0,84.0,73.0,22.0,28.0,4.0,-9.0,-13.0,-30.0,0.0
-36.0,-69.0,123.0,27.0,5.0,19.0,-2.0,-10.0,-18.0,-33.0,0.0
-26.0,-24.0,55.0,21.0,0.0,28.0,9.0,-4.0,-10.0,-17.0,0.0
-7.0,59.0,28.0,34.0,7.0,37.0,1.0,11.0,0.0,-19.0,0.0
-3.0,93.0,62.0,51.0,36.0,37.0,-3.0,13.0,1.0,-17.0,0.0
-3.0,65.0,69.0,42.0,50.0,40.0,4.0,21.0,1.0,-2.0,0.0
0.0,17.0,36.0,11.0,49.0,23.0,7.0,28.0,2.0,9.0,0.0
-5.0,-4.0,20.0,28.0,21.0,-4.0,-16.0,19.0,2.0,-6.0,0.0
1.0,3.0,41.0,62.0,3.0,-36.0,-44.0,-9.0,-13.0,-20.0,0.0
16.0,24.0,47.0,36.0,9.0,-31.0,-42.0,-24.0,-8.0,-19.0,0.0
23.0,6.0,-2.0,0.0,16.0,-15.0,-29.0,-26.0,-11.0,-16.0,0.0
12.0,-28.0,-56.0,8.0,18.0,-12.0,-25.0,-22.0,-6.0,-13.0,0.0
-1.0,-58.0,-103.0,73.0,36.0,5.0,-13.0,-17.0,-13.0,-29.0,0.0
-13.0,-43.0,-31.0,127.0,55.0,29.0,-11.0,-30.0,-39.0,-42.0,0.0
-30.0,0.0,126.0,123.0,30.0,30.0,-33.0,-57.0,-51.0,-57.0,0.0
-28.0,27.0,188.0,92.0,20.0,14.0,-45.0,-67.0,-47.0,-64.0,0.0
-5.0,57.0,206.0,52.0,-15.0,-22.0,-55.0,-69.0,-54.0,-47.0,0.0
31.0,107.0,153.0,-14.0,-67.0,-48.0,-47.0,-64.0,-51.0,-21.0,0.0
37.0,97.0,57.0,-37.0,-75.0,-32.0,-19.0,-43.0,-42.0,-8.0,0.0
25.0,23.0,-70.0,-39.0,-46.0,-6.0,-2.0,-18.0,-25.0,4.0,0.0
-5.0,-48.0,-159.0,-50.0,-8.0,-2.0,-10.0,-11.0,-33.0,0.0,0.0
-11.0,-64.0,-169.0,-103.0,7.0,-15.0,-14.0,-3.0,-28.0,0.0,0.0
8.0,-13.0,-133.0,-78.0,44.0,-31.0,-18.0,0.0,-23.0,15.0,0.0
35.0,22.0,-43.0,49.0,145.0,-14.0,-19.0,-1.0,-23.0,20.0,0.0
30.0,6.0,-10.0,112.0,178.0,17.0,-3.0,6.0,-18.0,11.0,0.0
10.0,-32.0,-26.0,66.0,91.0,34.0,17.0,24.0,3.0,7.0,0.0
20.0,-33.0,-42.0,-29.0,-3.0,26.0,34.0,41.0,49.0,35.0,0.0
52.0,-6.0,-56.0,-152.0,-100.0,9.0,65.0,50.0,105.0,59.0,0.0
40.0,-6.0,-67.0,-193.0,-187.0,-5.0,49.0,53.0,70.0,44.0,0.0
24.0,-26.0,-50.0,-160.0,-172.0,-6.0,24.0,44.0,21.0,32.0,0.0
43.0,-21.0,-69.0,-145.0,-110.0,14.0,26.0,37.0,24.0,41.0,0.0
65.0,-6.0,-115.0,-171.0,-34.0,36.0,47.0,49.0,58.0,65.0,0.0
77.0,14.0,-89.0,-152.0,-11.0,34.0,48.0,51.0,59.0,69.0,0.0
65.0,28.0,-36.0,-82.0,-26.0,29.0,34.0,42.0,40.0,53.0,0.0
56.0,40.0,-5.0,-58.0,-22.0,32.0,35.0,35.0,33.0,42.0,0.0
40.0,37.0,-19.0,-59.0,2.0,35.0,31.0,36.0,37.0,40.0,0.0
38.0,14.0,-82.0,-131.0,6.0,19.0,23.0,39.0,42.0,44.0,0.0
30.0,6.0,-92.0,-179.0,19.0,18.0,46.0,25.0,78.0,39.0,0.0
-11.0,-30.0,-76.0,-140.0,33.0,-18.0,-13.0,-7.0,24.0,11.0,0.0
-47.0,-55.0,-26.0,-11.0,55.0,-45.0,-72.0,-37.0,-50.0,-36.0,0.0
-51.0,-32.0,59.0,96.0,58.0,-39.0,-90.0,-59.0,-66.0,-66.0,0.0
-37.0,-15.0,78.0,82.0,8.0,-34.0,-71.0,-47.0,-44.0,-51.0,0.0
-20.0,-24.0,61.0,55.0,-20.0,-25.0,-36.0,-19.0,-20.0,-26.0,0.0
-11.0,-23.0,33.0,152.0,8.0,7.0,7.0,3.0,5.0,-11.0,0.0
5.0,-12.0,-19.0,226.0,41.0,42.0,50.0,38.0,24.0,21.0,0.0
2.0,2.0,-37.0,147.0,26.0,44.0,55.0,43.0,34.0,36.0,0.0
-32.0,-2.0,-8.0,107.0,13.0,27.0,34.0,9.0,0.0,0.0,0.0
-37.0,-10.0,14.0,106.0,37.0,25.0,32.0,-7.0,-21.0,-29.0,0.0
-42.0,-11.0,11.0,109.0,95.0,36.0,25.0,-9.0,-31.0,-43.0,0.0
-50.0,-25.0,9.0,153.0,163.0,35.0,11.0,-28.0,-40.0,-57.0,0.0
-43.0,-35.0,3.0,166.0,145.0,14.0,5.0,-30.0,-34.0,-61.0,0.0
-41.0,-45.0,-1.0,129.0,98.0,10.0,1.0,-28.0,-43.0,-63.0,0.0
-32.0,-44.0,0.0,70.0,33.0,4.0,5.0,-35.0,-34.0,-52.0,0.0
-29.0,-28.0,6.0,17.0,-42.0,-1.0,9.0,-23.0,-15.0,-34.0,0.0
-31.0,-21.0,11.0,-41.0,-131.0,-23.0,7.0,-4.0,-10.0,-31.0,0.0
-8.0,-24.0,8.0,-120.0,-189.0,-43.0,16.0,9.0,3.0,-15.0,0.0
0.0,-14.0,11.0,-147.0,-176.0,-40.0,15.0,1.0,21.0,-8.0,0.0
-3.0,-10.0,12.0,-110.0,-103.0,-11.0,11.0,-3.0,16.0,-15.0,0.0
-18.0,-24.0,0.0,-70.0,-42.0,11.0,12.0,-6.0,7.0,-28.0,0.0
-21.0,-51.0,-4.0,-60.0,-26.0,24.0,25.0,-2.0,11.0,-26.0,0.0
-16.0,-63.0,30.0,-55.0,-21.0,40.0,37.0,-7.0,23.0,-25.0,0.0
-28.0,-35.0,15.0,-60.0,-43.0,36.0,13.0,-20.0,-2.0,-29.0,0.0
-45.0,16.0,5.0,-39.0,-60.0,5.0,-3.0,-31.0,-37.0,-41.0,0.0
-39.0,54.0,53.0,38.0,-43.0,-14.0,-8.0,-34.0,-40.0,-48.0,0.0
-51.0,34.0,98.0,117.0,13.0,10.0,-25.0,-48.0,-54.0,-69.0,0.0
-83.0,-13.0,96.0,191.0,109.0,47.0,-15.0,-68.0,-64.0,-89.0,0.0
-83.0,-36.0,107.0,222.0,137.0,57.0,-8.0,-48.0,-53.0,-77.0,0.0
-66.0,-41.0,69.0,96.0,71.0,63.0,27.0,-2.0,-9.0,-36.0,0.0
-26.0,-11.0,74.0,-33.0,-7.0,53.0,82.0,3.0,64.0,2.0,0.0
10.0,48.0,93.0,-84.0,-85.0,1.0,80.0,-22.0,102.0,23.0,0.0
50.0,98.0,80.0,-116.0,-112.0,-19.0,76.0,-12.0,132.0,34.0,0.0
76.0,107.0,25.0,-156.0,-75.0,3.0,99.0,24.0,157.0,59.0,0.0
71.0,69.0,-31.0,-156.0,-48.0,8.0,100.0,43.0,155.0,73.0,0.0
45.0,25.0,-37.0,-110.0,-25.0,1.0,88.0,30.0,127.0,65.0,0.0
21.0,12.0,-23.0,-89.0,-33.0,0.0,77.0,40.0,130.0,58.0,0.0
18.0,4.0,-15.0,-85.0,-23.0,11.0,83.0,47.0,123.0,69.0,0.0
21.0,21.0,2.0,-61.0,10.0,28.0,80.0,43.0,107.0,56.0,0.0
29.0,41.0,25.0,-47.0,12.0,27.0,61.0,26.0,73.0,27.0,0.0
-5.0,17.0,-8.0,-26.0,5.0,13.0,-9.0,15.0,-3.0,3.0,0.0
-42.0,-30.0,-39.0,1.0,19.0,13.0,-42.0,5.0,-56.0,-21.0,0.0
-46.0,-46.0,-40.0,-2.0,23.0,14.0,-24.0,-3.0,-52.0,-32.0,0.0
-21.0,-4.0,-24.0,-27.0,1.0,16.0,5.0,-16.0,-17.0,-34.0,0.0
-27.0,0.0,-53.0,-40.0,-15.0,-11.0,-32.0,-29.0,-49.0,-28.0,0.0
-41.0,-27.0,-80.0,-23.0,22.0,-24.0,-46.0,-25.0,-61.0,-37.0,0.0
-42.0,-41.0,-57.0,9.0,65.0,-10.0,-41.0,-28.0,-66.0,-35.0,0.0
-18.0,-25.0,-16.0,-1.0,66.0,-1.0,-14.0,-10.0,-22.0,-10.0,0.0
-5.0,0.0,21.0,-34.0,25.0,7.0,21.0,-7.0,19.0,0.0,0.0
7.0,20.0,35.0,-42.0,10.0,-9.0,-19.0,-27.0,-23.0,-11.0,0.0
35.0,43.0,11.0,-88.0,-25.0,-22.0,-35.0,-13.0,-33.0,4.0,0.0
18.0,26.0,-13.0,-89.0,-45.0,-45.0,-52.0,-2.0,-29.0,14.0,0.0
1.0,6.0,-10.0,2.0,-20.0,-38.0,-63.0,-13.0,-30.0,-3.0,0.0
0.0,9.0,9.0,127.0,4.0,-26.0,-57.0,-15.0,-36.0,-12.0,0.0
1.0,26.0,21.0,111.0,3.0,-29.0,-68.0,-21.0,-46.0,-24.0,0.0
5.0,24.0,8.0,72.0,11.0,-16.0,-75.0,-18.0,-50.0,-31.0,0.0
1.0,14.0,-5.0,57.0,19.0,2.0,-77.0,-10.0,-45.0,-29.0,0.0
-8.0,15.0,-15.0,37.0,19.0,6.0,-69.0,-16.0,-51.0,-31.0,0.0
-9.0,19.0,0.0,4.0,2.0,-2.0,-64.0,-24.0,-58.0,-29.0,0.0
-9.0,3.0,34.0,-5.0,-10.0,-6.0,-58.0,-10.0,-56.0,-24.0,0.0
-29.0,-14.0,65.0,13.0,-15.0,-1.0,-44.0,-16.0,-55.0,-28.0,0.0
-31.0,-21.0,106.0,61.0,-16.0,-19.0,-28.0,-16.0,-56.0,-49.0,0.0
-18.0,-10.0,118.0,119.0,2.0,-23.0,-29.0,-29.0,-63.0,-47.0,0.0
-20.0,-7.0,60.0,129.0,-8.0,-5.0,-12.0,-33.0,-50.0,-35.0,0.0
-14.0,-7.0,-61.0,89.0,-38.0,3.0,-6.0,-8.0,-34.0,-16.0,0.0
4.0,-19.0,-152.0,-27.0,-85.0,6.0,2.0,17.0,-12.0,7.0,0.0
17.0,-10.0,-130.0,-78.0,-117.0,-21.0,-2.0,20.0,-8.0,9.0,0.0
24.0,8.0,-97.0,-76.0,-96.0,-50.0,-18.0,13.0,-6.0,8.0,0.0
22.0,16.0,-69.0,-45.0,-28.0,-50.0,-28.0,2.0,-17.0,13.0,0.0
9.0,2.0,-21.0,-3.0,76.0,-23.0,-20.0,5.0,-17.0,13.0,0.0
11.0,7.0,6.0,13.0,98.0,-4.0,-7.0,-5.0,-12.0,13.0,0.0
-19.0,-15.0,86.0,19.0,65.0,-12.0,-17.0,-21.0,-31.0,-18.0,0.0
-50.0,-55.0,225.0,105.0,58.0,-18.0,-41.0,-32.0,-41.0,-50.0,0.0
-69.0,-73.0,205.0,190.0,51.0,-23.0,-60.0,-38.0,-54.0,-65.0,0.0
-58.0,-66.0,40.0,190.0,56.0,-10.0,-45.0,-28.0,-45.0,-52.0,0.0
-26.0,-45.0,-142.0,102.0,46.0,30.0,-8.0,9.0,-16.0,-13.0,0.0
9.0,9.0,-114.0,9.0,34.0,60.0,19.0,38.0,4.0,19.0,0.0
40.0,58.0,-14.0,-82.0,29.0,75.0,29.0,34.0,16.0,9.0,0.0
29.0,61.0,25.0,-108.0,47.0,77.0,31.0,15.0,-8.0,-15.0,0.0
27.0,42.0,-14.0,-86.0,71.0,78.0,51.0,18.0,0.0,-21.0,0.0
10.0,21.0,-9.0,-43.0,67.0,84.0,85.0,33.0,42.0,-24.0,0.0
-9.0,-15.0,-25.0,-31.0,16.0,33.0,48.0,69.0,27.0,-15.0,0.0
18.0,10.0,-60.0,-98.0,-55.0,-30.0,9.0,94.0,27.0,22.0,0.0
61.0,83.0,-67.0,-163.0,-96.0,-52.0,0.0,91.0,33.0,51.0,0.0
70.0,108.0,-52.0,-161.0,-79.0,-48.0,-25.0,7.0,10.0,43.0,0.0
60.0,82.0,-103.0,-55.0,30.0,-16.0,-50.0,-71.0,-10.0,23.0,0.0
53.0,55.0,-114.0,47.0,117.0,8.0,-38.0,-65.0,-6.0,20.0,0.0
46.0,29.0,-70.0,47.0,121.0,21.0,-14.0,-47.0,20.0,19.0,0.0
9.0,5.0,-30.0,48.0,130.0,26.0,10.0,-59.0,52.0,24.0,0.0
-27.0,-18.0,-48.0,31.0,114.0,12.0,-33.0,-87.0,-12.0,-2.0,0.0
-42.0,-10.0,-12.0,-6.0,41.0,-12.0,-62.0,-89.0,-51.0,-18.0,0.0
-57.0,15.0,30.0,1.0,-38.0,-25.0,-76.0,-87.0,-71.0,-39.0,0.0
-29.0,51.0,73.0,-36.0,-101.0,-20.0,-55.0,-76.0,-53.0,-25.0,0.0
5.0,67.0,86.0,-6.0,-92.0,20.0,-21.0,-60.0,-27.0,5.0,0.0
23.0,74.0,81.0,76.0,-40.0,36.0,-7.0,-38.0,-13.0,18.0,0.0
18.0,62.0,26.0,98.0,-1.0,32.0,7.0,-18.0,-11.0,16.0,0.0
-7.0,30.0,-39.0,91.0,19.0,45.0,20.0,4.0,0.0,11.0,0.0
-25.0,8.0,-12.0,25.0,-3.0,24.0,0.0,6.0,-10.0,10.0,0.0
-21.0,4.0,22.0,-6.0,-12.0,-11.0,-27.0,0.0,-11.0,3.0,0.0
-15.0,-25.0,-41.0,-22.0,5.0,1.0,-16.0,15.0,9.0,-4.0,0.0
-8.0,-44.0,-62.0,-41.0,23.0,7.0,1.0,20.0,23.0,-5.0,0.0
-7.0,-35.0,-39.0,-31.0,42.0,0.0,8.0,30.0,23.0,14.0,0.0
3.0,-6.0,-17.0,-19.0,18.0,-10.0,13.0,29.0,35.0,24.0,0.0
22.0,25.0,4.0,-6.0,-23.0,-23.0,2.0,34.0,26.0,22.0,0.0
13.0,-1.0,-4.0,-14.0,-48.0,-20.0,-4.0,22.0,7.0,9.0,0.0
0.0,-3.0,37.0,28.0,-35.0,-27.0,-31.0,-5.0,-17.0,-17.0,0.0
1.0,16.0,47.0,69.0,13.0,-32.0,-39.0,-10.0,-28.0,-25.0,0.0
20.0,12.0,-21.0,50.0,36.0,-20.0,-23.0,3.0,-14.0,-4.0,0.0
29.0,-15.0,-66.0,7.0,40.0,-2.0,-5.0,8.0,4.0,-6.0,0.0
0.0,-45.0,-97.0,-45.0,21.0,10.0,7.0,7.0,3.0,-10.0,0.0
-9.0,-39.0,-82.0,-67.0,-13.0,7.0,10.0,0.0,4.0,-5.0,0.0
-2.0,-35.0,-26.0,-78.0,1.0,-2.0,24.0,6.0,21.0,0.0,0.0
16.0,-27.0,7.0,-135.0,-18.0,-33.0,13.0,25.0,24.0,8.0,0.0
17.0,-22.0,35.0,-59.0,-14.0,-43.0,-11.0,21.0,-2.0,7.0,0.0
1.0,-34.0,66.0,66.0,-12.0,-50.0,-18.0,4.0,-23.0,-3.0,0.0
8.0,-5.0,81.0,93.0,-43.0,-60.0,-42.0,-8.0,-35.0,-9.0,0.0
7.0,21.0,93.0,76.0,-56.0,-62.0,-48.0,-31.0,-43.0,-23.0,0.0
0.0,63.0,105.0,36.0,-68.0,-54.0,-52.0,-50.0,-48.0,-35.0,0.0
19.0,140.0,62.0,-73.0,-101.0,-39.0,-32.0,-35.0,-28.0,-8.0,0.0
67.0,164.0,-23.0,-273.0,-112.0,-16.0,26.0,24.0,36.0,52.0,0.0
52.0,102.0,-45.0,-368.0,-86.0,-1.0,31.0,39.0,46.0,56.0,0.0
41.0,62.0,5.0,-293.0,-51.0,-1.0,13.0,25.0,29.0,39.0,0.0
45.0,45.0,53.0,-223.0,-55.0,-22.0,7.0,15.0,17.0,43.0,0.0
26.0,43.0,87.0,-177.0,-60.0,-42.0,-17.0,-2.0,7.0,40.0,0.0
26.0,15.0,27.0,-94.0,2.0,-17.0,-8.0,2.0,16.0,36.0,0.0
33.0,-9.0,-65.0,90.0,76.0,18.0,28.0,21.0,36.0,36.0,0.0
7.0,-6.0,-39.0,281.0,135.0,43.0,42.0,34.0,33.0,28.0,0.0
-12.0,4.0,56.0,352.0,119.0,57.0,48.0,35.0,25.0,3.0,0.0
-8.0,8.0,70.0,366.0,103.0,73.0,42.0,20.0,15.0,-9.0,0.0
-36.0,-21.0,30.0,247.0,94.0,50.0,20.0,1.0,2.0,-27.0,0.0
-49.0,-36.0,36.0,151.0,78.0,45.0,50.0,-5.0,51.0,-27.0,0.0
-6.0,-1.0,-31.0,10.0,25.0,25.0,66.0,9.0,71.0,16.0,0.0
36.0,10.0,-165.0,-147.0,-23.0,5.0,34.0,43.0,47.0,52.0,0.0
37.0,6.0,-172.0,-92.0,-40.0,-14.0,5.0,36.0,-7.0,33.0,0.0
32.0,14.0,-69.0,57.0,-25.0,-41.0,-13.0,15.0,-33.0,6.0,0.0
21.0,13.0,-7.0,72.0,-12.0,-57.0,-16.0,12.0,-23.0,15.0,0.0
18.0,6.0,-22.0,25.0,-7.0,-53.0,-9.0,15.0,9.0,24.0,0.0
16.0,-5.0,-45.0,-5.0,-12.0,-25.0,-8.0,12.0,12.0,30.0,0.0
9.0,-12.0,-23.0,-1.0,-10.0,-13.0,-14.0,0.0,6.0,29.0,0.0
6.0,-14.0,-24.0,7.0,0.0,-9.0,-7.0,-6.0,1.0,18.0,0.0
1.0,-21.0,-38.0,27.0,-2.0,-2.0,-7.0,-9.0,-18.0,9.0,0.0
-1.0,-6.0,-2.0,49.0,-3.0,-3.0,5.0,-5.0,-18.0,-6.0,0.0
8.0,-10.0,20.0,68.0,7.0,4.0,2.0,-11.0,-17.0,-29.0,0.0
12.0,-26.0,19.0,70.0,18.0,12.0,0.0,-17.0,-3.0,-41.0,0.0
0.0,-23.0,17.0,75.0,37.0,34.0,26.0,-20.0,21.0,-45.0,0.0
-22.0,-39.0,-5.0,59.0,25.0,35.0,4.0,-19.0,1.0,-49.0,0.0
-31.0,-49.0,-1.0,29.0,4.0,25.0,-5.0,-5.0,-12.0,-51.0,0.0
-27.0,-34.0,11.0,15.0,-17.0,13.0,-19.0,-1.0,-26.0,-46.0,0.0
-20.0,-27.0,5.0,-7.0,-36.0,10.0,-26.0,-12.0,-28.0,-39.0,0.0
-26.0,-41.0,12.0,17.0,0.0,15.0,-22.0,-15.0,-34.0,-46.0,0.0
-38.0,-46.0,35.0,116.0,79.0,21.0,-27.0,-20.0,-42.0,-51.0,0.0
-50.0,-25.0,53.0,225.0,118.0,11.0,-46.0,-36.0,-68.0,-60.0,0.0
-56.0,-8.0,53.0,247.0,144.0,10.0,-60.0,-49.0,-93.0,-69.0,0.0
-52.0,-6.0,105.0,197.0,199.0,27.0,-46.0,-57.0,-89.0,-72.0,0.0
-39.0,-3.0,139.0,69.0,153.0,29.0,-22.0,-31.0,-61.0,-46.0,0.0
-27.0,1.0,244.0,-20.0,8.0,10.0,-17.0,-8.0,-28.0,-26.0,0.0
-24.0,-8.0,307.0,-51.0,-76.0,-21.0,-13.0,-9.0,-13.0,-5.0,0.0
-21.0,-20.0,190.0,-66.0,-78.0,-30.0,-1.0,-7.0,-15.0,11.0,0.0
-23.0,-30.0,25.0,-95.0,-65.0,-18.0,5.0,-3.0,-15.0,9.0,0.0
19.0,-15.0,-157.0,-188.0,-72.0,6.0,27.0,25.0,26.0,44.0,0.0
76.0,40.0,-221.0,-228.0,-82.0,27.0,53.0,61.0,61.0,86.0,0.0
90.0,46.0,-242.0,-242.0,-131.0,39.0,64.0,71.0,66.0,85.0,0.0
74.0,14.0,-189.0,-208.0,-137.0,24.0,50.0,60.0,52.0,63.0,0.0
65.0,-10.0,-136.0,-174.0,-103.0,16.0,37.0,51.0,36.0,62.0,0.0
59.0,-19.0,-91.0,-149.0,-84.0,21.0,27.0,55.0,32.0,66.0,0.0
27.0,-6.0,-52.0,-84.0,-48.0,8.0,7.0,31.0,6.0,38.0,0.0
0.0,8.0,-21.0,-22.0,-19.0,-9.0,-16.0,9.0,-3.0,9.0,0.0
0.0,12.0,-4.0,-22.0,-4.0,-19.0,-14.0,4.0,9.0,17.0,0.0
16.0,9.0,1.0,-29.0,7.0,-11.0,-17.0,5.0,10.0,24.0,0.0
34.0,11.0,5.0,-42.0,9.0,-12.0,-14.0,3.0,2.0,20.0,0.0
33.0,11.0,2.0,-49.0,2.0,-6.0,0.0,19.0,2.0,23.0,0.0
32.0,8.0,-1.0,-51.0,-1.0,-1.0,-2.0,15.0,10.0,26.0,0.0
21.0,8.0,10.0,-49.0,11.0,-7.0,-13.0,6.0,1.0,35.0,0.0
0.0,-16.0,16.0,-18.0,33.0,-3.0,-18.0,-6.0,-19.0,17.0,0.0
-19.0,-32.0,12.0,31.0,29.0,6.0,-8.0,-6.0,-24.0,-7.0,0.0
-17.0,-48.0,-4.0,0.0,-20.0,10.0,-5.0,6.0,-15.0,-3.0,0.0
-3.0,-38.0,-5.0,-34.0,-42.0,8.0,3.0,22.0,-14.0,3.0,0.0
-3.0,-29.0,5.0,-25.0,-37.0,17.0,5.0,12.0,-17.0,2.0,0.0
-2.0,-15.0,39.0,-31.0,-24.0,14.0,-2.0,1.0,-19.0,-2.0,0.0
0.0,-11.0,57.0,-8.0,-16.0,7.0,-3.0,-8.0,-15.0,-9.0,0.0
0.0,-25.0,31.0,22.0,-5.0,2.0,0.0,-8.0,-10.0,-13.0,0.0
0.0,-36.0,29.0,27.0,-10.0,1.0,5.0,6.0,0.0,3.0,0.0
-4.0,-41.0,9.0,25.0,-14.0,5.0,0.0,8.0,4.0,9.0,0.0
-5.0,-45.0,-2.0,22.0,-2.0,10.0,-4.0,7.0,7.0,1.0,0.0
-6.0,-41.0,-5.0,20.0,8.0,9.0,-1.0,16.0,0.0,-6.0,0.0
-13.0,-39.0,-5.0,23.0,8.0,3.0,-2.0,19.0,11.0,1.0,0.0
-16.0,-47.0,-5.0,33.0,13.0,-2.0,8.0,4.0,16.0,9.0,0.0
-14.0,-26.0,4.0,25.0,12.0,1.0,-6.0,5.0,6.0,1.0,0.0
-22.0,15.0,17.0,24.0,13.0,-9.0,-17.0,-6.0,-6.0,-10.0,0.0
-24.0,31.0,33.0,32.0,7.0,-13.0,-17.0,-15.0,-9.0,2.0,0.0
-14.0,11.0,15.0,41.0,9.0,-2.0,-22.0,-19.0,-14.0,12.0,0.0
5.0,-6.0,3.0,54.0,10.0,9.0,-24.0,-22.0,-17.0,7.0,0.0
-15.0,-26.0,9.0,57.0,18.0,20.0,-25.0,-9.0,-20.0,-5.0,0.0
-40.0,-36.0,20.0,63.0,31.0,29.0,-9.0,-8.0,-19.0,-25.0,0.0
-42.0,-54.0,-10.0,56.0,47.0,44.0,0.0,-21.0,-15.0,-42.0,0.0
-38.0,-73.0,-60.0,45.0,55.0,46.0,10.0,-12.0,-18.0,-32.0,0.0
-29.0,-70.0,-39.0,44.0,45.0,37.0,15.0,-10.0,-37.0,-20.0,0.0
-24.0,-28.0,51.0,84.0,35.0,26.0,1.0,-11.0,-46.0,-22.0,0.0
-15.0,-1.0,129.0,130.0,40.0,17.0,-13.0,-21.0,-53.0,-34.0,0.0
-10.0,-28.0,120.0,78.0,28.0,4.0,-23.0,-19.0,-56.0,-29.0,0.0
-37.0,-67.0,62.0,-9.0,13.0,-7.0,-38.0,-23.0,-65.0,-34.0,0.0
-75.0,-70.0,64.0,27.0,88.0,-12.0,-63.0,-58.0,-104.0,-79.0,0.0
-96.0,-26.0,201.0,99.0,194.0,-19.0,-111.0,-116.0,-160.0,-138.0,0.0
-81.0,44.0,320.0,90.0,228.0,-33.0,-135.0,-142.0,-164.0,-129.0,0.0
-46.0,57.0,305.0,27.0,215.0,-36.0,-118.0,-120.0,-148.0,-105.0,0.0
-22.0,15.0,147.0,-84.0,141.0,-29.0,-76.0,-63.0,-99.0,-46.0,0.0
0.0,-27.0,-41.0,-159.0,29.0,-18.0,-23.0,6.0,-20.0,12.0,0.0
41.0,-18.0,-121.0,-105.0,-57.0,24.0,30.0,67.0,60.0,76.0,0.0
113.0,60.0,-74.0,-188.0,-163.0,38.0,59.0,92.0,105.0,123.0,0.0
86.0,49.0,-34.0,-154.0,-210.0,-6.0,33.0,47.0,67.0,74.0,0.0
22.0,-10.0,-57.0,78.0,-144.0,-30.0,10.0,34.0,29.0,21.0,0.0
6.0,-27.0,-159.0,265.0,-38.0,12.0,45.0,70.0,45.0,25.0,0.0
23.0,10.0,-228.0,179.0,2.0,56.0,88.0,121.0,76.0,49.0,0.0
62.0,33.0,-239.0,-16.0,-49.0,41.0,103.0,171.0,98.0,75.0,0.0
100.0,63.0,-187.0,-121.0,-89.0,27.0,115.0,198.0,110.0,107.0,0.0
123.0,97.0,-97.0,-197.0,-133.0,13.0,108.0,176.0,117.0,132.0,0.0
105.0,97.0,-56.0,-265.0,-169.0,-7.0,63.0,77.0,101.0,116.0,0.0
77.0,60.0,-26.0,-171.0,-104.0,-22.0,19.0,11.0,80.0,81.0,0.0
68.0,39.0,-3.0,-84.0,-43.0,-9.0,0.0,9.0,67.0,58.0,0.0
60.0,27.0,-5.0,-68.0,-52.0,-1.0,0.0,12.0,70.0,56.0,0.0
46.0,17.0,-12.0,-81.0,-74.0,-1.0,6.0,14.0,62.0,55.0,0.0
42.0,7.0,-8.0,-69.0,-56.0,1.0,-1.0,8.0,44.0,36.0,0.0
30.0,0.0,-6.0,-58.0,-46.0,8.0,5.0,4.0,15.0,21.0,0.0
25.0,16.0,1.0,-53.0,-36.0,6.0,-1.0,-2.0,8.0,21.0,0.0
20.0,9.0,2.0,-45.0,-10.0,-2.0,-16.0,-15.0,2.0,9.0,0.0
9.0,-4.0,-7.0,-37.0,-4.0,12.0,-8.0,-17.0,0.0,-2.0,0.0
7.0,-21.0,-10.0,-30.0,-11.0,28.0,2.0,-15.0,-7.0,-15.0,0.0
2.0,-27.0,-11.0,-20.0,-11.0,27.0,-2.0,-14.0,-5.0,-16.0,0.0
-7.0,-32.0,-11.0,-16.0,-3.0,28.0,-6.0,-10.0,-7.0,-22.0,0.0
-24.0,-36.0,-11.0,-15.0,0.0,23.0,0.0,-6.0,-9.0,-24.0,0.0
-21.0,-27.0,-3.0,-14.0,-1.0,16.0,0.0,-4.0,-6.0,-22.0,0.0
-17.0,-23.0,-1.0,-11.0,-4.0,15.0,0.0,3.0,-6.0,-25.0,0.0
-21.0,-25.0,0.0,8.0,3.0,19.0,-6.0,-5.0,-9.0,-30.0,0.0
-7.0,-16.0,21.0,19.0,7.0,12.0,-15.0,-13.0,-8.0,-16.0,0.0
5.0,-6.0,24.0,11.0,-4.0,3.0,-31.0,-8.0,-9.0,2.0,0.0
0.0,-2.0,9.0,7.0,0.0,6.0,-24.0,-11.0,-3.0,7.0,0.0
-14.0,-6.0,-4.0,-1.0,8.0,-9.0,-12.0,-11.0,3.0,-4.0,0.0
-20.0,-11.0,-11.0,5.0,0.0,-16.0,-5.0,-2.0,7.0,-8.0,0.0
-27.0,-5.0,-8.0,6.0,-2.0,-11.0,-4.0,-3.0,3.0,-13.0,0.0
-24.0,2.0,-1.0,19.0,4.0,0.0,4.0,-10.0,4.0,-36.0,0.0
-29.0,-6.0,-1.0,22.0,14.0,8.0,4.0,-12.0,-1.0,-23.0,0.0
-45.0,-21.0,-3.0,30.0,29.0,19.0,6.0,-6.0,-8.0,-24.0,0.0
-60.0,-26.0,-5.0,44.0,52.0,24.0,17.0,-16.0,-16.0,-31.0,0.0
-61.0,-21.0,0.0,72.0,60.0,26.0,16.0,-21.0,-22.0,-39.0,0.0
-57.0,-23.0,28.0,69.0,66.0,23.0,12.0,-14.0,-21.0,-51.0,0.0
-57.0,-31.0,24.0,63.0,65.0,18.0,7.0,-11.0,-15.0,-44.0,0.0
-56.0,-36.0,7.0,51.0,43.0,14.0,18.0,0.0,-8.0,-36.0,0.0
-57.0,-13.0,25.0,57.0,18.0,7.0,18.0,0.0,-11.0,-26.0,0.0
-28.0,6.0,34.0,53.0,-6.0,-7.0,5.0,0.0,-13.0,-32.0,0.0
-5.0,16.0,31.0,39.0,-31.0,-12.0,5.0,-4.0,-11.0,-26.0,0.0
-10.0,15.0,45.0,33.0,-32.0,-13.0,21.0,-2.0,-3.0,-25.0,0.0
-11.0,20.0,59.0,31.0,-17.0,-7.0,24.0,10.0,1.0,-18.0,0.0
-19.0,18.0,73.0,44.0,4.0,2.0,23.0,30.0,10.0,-6.0,0.0
-16.0,19.0,84.0,52.0,22.0,-6.0,26.0,29.0,13.0,3.0,0.0
-16.0,15.0,94.0,45.0,22.0,-20.0,5.0,15.0,8.0,-5.0,0.0
-24.0,-8.0,76.0,43.0,-5.0,-31.0,-23.0,-7.0,-2.0,-26.0,0.0
-8.0,2.0,14.0,5.0,-63.0,-46.0,-21.0,-2.0,0.0,-11.0,0.0
36.0,27.0,-62.0,-86.0,-109.0,-45.0,-3.0,31.0,25.0,15.0,0.0
44.0,27.0,-77.0,-105.0,-83.0,-22.0,15.0,33.0,24.0,18.0,0.0
17.0,3.0,-71.0,-58.0,-39.0,-3.0,24.0,18.0,7.0,12.0,0.0
1.0,-18.0,-52.0,-50.0,-32.0,-2.0,18.0,14.0,10.0,17.0,0.0
10.0,-9.0,-29.0,-34.0,-16.0,-9.0,17.0,17.0,25.0,25.0,0.0
8.0,-7.0,-11.0,63.0,33.0,-12.0,8.0,9.0,18.0,22.0,0.0
3.0,-13.0,-9.0,132.0,72.0,5.0,15.0,11.0,14.0,38.0,0.0
4.0,0.0,-4.0,97.0,57.0,9.0,14.0,20.0,20.0,41.0,0.0
7.0,39.0,52.0,57.0,30.0,-6.0,2.0,15.0,19.0,37.0,0.0
13.0,99.0,83.0,50.0,20.0,-17.0,3.0,7.0,0.0,29.0,0.0
19.0,104.0,67.0,25.0,19.0,-18.0,10.0,1.0,-5.0,24.0,0.0
17.0,52.0,26.0,-12.0,18.0,-19.0,2.0,3.0,7.0,32.0,0.0
16.0,19.0,-16.0,-39.0,-2.0,-20.0,4.0,17.0,23.0,31.0,0.0
26.0,2.0,-12.0,-35.0,-5.0,-24.0,3.0,20.0,31.0,33.0,0.0
27.0,-2.0,7.0,-16.0,-5.0,-33.0,3.0,3.0,23.0,34.0,0.0
13.0,7.0,10.0,-9.0,-25.0,-34.0,-14.0,-3.0,1.0,23.0,0.0
3.0,-6.0,15.0,-18.0,-40.0,-21.0,-19.0,-4.0,-17.0,18.0,0.0
-3.0,-23.0,-14.0,-16.0,-49.0,-1.0,-10.0,-14.0,-11.0,14.0,0.0
-8.0,-17.0,-22.0,0.0,-23.0,8.0,1.0,-15.0,3.0,14.0,0.0
-13.0,-9.0,4.0,22.0,37.0,27.0,8.0,-22.0,-3.0,4.0,0.0
-19.0,-11.0,-1.0,41.0,115.0,44.0,17.0,-18.0,-1.0,-5.0,0.0
-3.0,0.0,4.0,43.0,127.0,48.0,42.0,2.0,34.0,17.0,0.0
15.0,21.0,20.0,25.0,59.0,43.0,63.0,15.0,67.0,40.0,0.0
-3.0,-3.0,10.0,5.0,9.0,13.0,14.0,3.0,16.0,32.0,0.0
-11.0,-18.0,5.0,-2.0,16.0,3.0,4.0,3.0,-2.0,34.0,0.0
-2.0,-26.0,-13.0,-7.0,20.0,5.0,0.0,2.0,0.0,20.0,0.0
0.0,-33.0,-2.0,-22.0,26.0,5.0,2.0,7.0,9.0,12.0,0.0
-1.0,-36.0,-8.0,-33.0,27.0,-9.0,-5.0,1.0,10.0,20.0,0.0
7.0,-29.0,-17.0,-36.0,16.0,-21.0,-15.0,10.0,10.0,14.0,0.0
10.0,-15.0,10.0,5.0,0.0,-24.0,-13.0,8.0,0.0,11.0,0.0
21.0,-1.0,28.0,25.0,-11.0,-31.0,-14.0,0.0,-19.0,0.0,0.0
18.0,21.0,68.0,46.0,16.0,-24.0,-3.0,-21.0,0.0,-16.0,0.0
-9.0,25.0,163.0,104.0,83.0,5.0,30.0,-47.0,29.0,-34.0,0.0
-33.0,27.0,202.0,142.0,110.0,-5.0,-21.0,-65.0,-40.0,-67.0,0.0
-60.0,13.0,168.0,129.0,129.0,-2.0,-36.0,-72.0,-72.0,-92.0,0.0
-91.0,-24.0,50.0,46.0,150.0,23.0,-28.0,-71.0,-74.0,-105.0,0.0
-85.0,-51.0,-61.0,-46.0,125.0,35.0,-5.0,-52.0,-55.0,-93.0,0.0
-49.0,-38.0,-125.0,-93.0,56.0,31.0,0.0,-48.0,-46.0,-66.0,0.0
-16.0,-9.0,-193.0,-115.0,13.0,35.0,3.0,-25.0,-44.0,-49.0,0.0
0.0,10.0,-148.0,-151.0,-20.0,14.0,1.0,-10.0,-33.0,-44.0,0.0
-3.0,7.0,6.0,19.0,-12.0,-9.0,-13.0,-20.0,-25.0,-54.0,0.0
-2.0,-4.0,191.0,448.0,64.0,8.0,-9.0,-6.0,-7.0,-29.0,0.0
-16.0,-31.0,271.0,566.0,114.0,55.0,13.0,9.0,18.0,-10.0,0.0
-23.0,-17.0,263.0,391.0,94.0,54.0,21.0,27.0,35.0,-5.0,0.0
-29.0,14.0,282.0,308.0,19.0,-38.0,-44.0,-13.0,-14.0,-41.0,0.0
-27.0,28.0,184.0,254.0,-70.0,-123.0,-104.0,-55.0,-61.0,-69.0,0.0
17.0,24.0,-66.0,89.0,-48.0,-92.0,-63.0,-19.0,-24.0,-25.0,0.0
45.0,26.0,-258.0,-51.0,50.0,-33.0,0.0,23.0,21.0,24.0,0.0
77.0,29.0,-388.0,-212.0,87.0,6.0,46.0,56.0,64.0,70.0,0.0
97.0,38.0,-365.0,-305.0,31.0,22.0,55.0,66.0,78.0,79.0,0.0
103.0,60.0,-267.0,-319.0,-90.0,7.0,49.0,68.0,88.0,76.0,0.0
110.0,76.0,-219.0,-288.0,-171.0,-4.0,49.0,78.0,102.0,92.0,0.0
92.0,48.0,-164.0,-186.0,-173.0,5.0,63.0,64.0,86.0,75.0,0.0
59.0,18.0,-93.0,-92.0,-157.0,0.0,46.0,34.0,49.0,32.0,0.0
63.0,40.0,-53.0,-126.0,-155.0,8.0,33.0,40.0,38.0,28.0,0.0
75.0,49.0,-37.0,-261.0,-156.0,27.0,43.0,50.0,44.0,47.0,0.0
61.0,12.0,-80.0,-332.0,-133.0,33.0,60.0,62.0,51.0,46.0,0.0
47.0,-13.0,-80.0,-267.0,-103.0,27.0,66.0,57.0,63.0,38.0,0.0
27.0,-12.0,-57.0,-169.0,-72.0,20.0,51.0,51.0,45.0,21.0,0.0
23.0,-17.0,-37.0,-112.0,-88.0,12.0,58.0,50.0,53.0,23.0,0.0
23.0,-10.0,1.0,-94.0,-95.0,22.0,111.0,43.0,95.0,31.0,0.0
11.0,-8.0,3.0,-79.0,-89.0,26.0,116.0,34.0,106.0,10.0,0.0
0.0,-14.0,0.0,-54.0,-63.0,37.0,105.0,23.0,101.0,-7.0,0.0
-23.0,-31.0,20.0,-11.0,23.0,44.0,93.0,2.0,87.0,-35.0,0.0
-20.0,-24.0,51.0,27.0,125.0,42.0,82.0,-21.0,68.0,-34.0,0.0
11.0,30.0,95.0,47.0,104.0,43.0,71.0,-14.0,60.0,-18.0,0.0
36.0,61.0,96.0,57.0,24.0,38.0,65.0,-10.0,71.0,14.0,0.0
26.0,30.0,64.0,71.0,40.0,31.0,45.0,-16.0,84.0,21.0,0.0
14.0,6.0,46.0,66.0,78.0,37.0,41.0,-6.0,79.0,17.0,0.0
15.0,17.0,45.0,37.0,77.0,25.0,16.0,-14.0,37.0,17.0,0.0
0.0,5.0,21.0,13.0,51.0,4.0,-28.0,-26.0,-33.0,1.0,0.0
-19.0,-15.0,-5.0,20.0,36.0,-4.0,-36.0,-23.0,-56.0,-2.0,0.0
-24.0,-30.0,-8.0,26.0,45.0,1.0,-26.0,-13.0,-45.0,-4.0,0.0
-32.0,-28.0,32.0,29.0,64.0,8.0,-14.0,-11.0,-22.0,-11.0,0.0
-30.0,-18.0,32.0,39.0,83.0,-9.0,-54.0,-37.0,-82.0,-22.0,0.0
-18.0,-20.0,20.0,60.0,101.0,-19.0,-58.0,-51.0,-92.0,-16.0,0.0
-24.0,-36.0,16.0,72.0,97.0,-19.0,-45.0,-31.0,-75.0,-7.0,0.0
-20.0,-30.0,11.0,48.0,61.0,-9.0,-6.0,-7.0,-28.0,1.0,0.0
0.0,-11.0,30.0,25.0,32.0,-8.0,11.0,3.0,23.0,1.0,0.0
2.0,10.0,17.0,-29.0,-23.0,-37.0,-42.0,16.0,-23.0,4.0,0.0
0.0,56.0,27.0,-121.0,-73.0,-65.0,-73.0,0.0,-51.0,-17.0,0.0
-15.0,57.0,25.0,-146.0,-71.0,-84.0,-92.0,-33.0,-84.0,-43.0,0.0
-32.0,24.0,57.0,-126.0,-49.0,-93.0,-100.0,-81.0,-120.0,-70.0,0.0
-54.0,-23.0,53.0,-136.0,-56.0,-82.0,-82.0,-87.0,-122.0,-79.0,0.0
-58.0,-43.0,73.0,-178.0,-84.0,-72.0,-65.0,-55.0,-73.0,-42.0,0.0
-56.0,-40.0,130.0,-119.0,-73.0,-59.0,-53.0,-44.0,-44.0,-25.0,0.0
-50.0,-48.0,86.0,84.0,-16.0,-34.0,-31.0,-42.0,-41.0,-24.0,0.0
-31.0,-38.0,9.0,426.0,67.0,25.0,15.0,1.0,-13.0,1.0,0.0
2.0,-1.0,-49.0,495.0,126.0,71.0,76.0,50.0,28.0,40.0,0.0
10.0,20.0,-61.0,246.0,84.0,26.0,54.0,49.0,21.0,40.0,0.0
18.0,21.0,-41.0,71.0,22.0,-11.0,18.0,23.0,2.0,26.0,0.0
0.0,39.0,2.0,73.0,0.0,-26.0,-15.0,-20.0,-38.0,0.0,0.0
-16.0,49.0,43.0,104.0,20.0,-24.0,-39.0,-49.0,-55.0,-32.0,0.0
-14.0,40.0,33.0,59.0,38.0,-9.0,-53.0,-31.0,-36.0,-14.0,0.0
-4.0,24.0,33.0,23.0,30.0,-25.0,-41.0,-20.0,-15.0,5.0,0.0
-17.0,-8.0,54.0,-18.0,6.0,-51.0,-22.0,-6.0,-3.0,12.0,0.0
-39.0,-12.0,81.0,-14.0,4.0,-47.0,-22.0,-4.0,2.0,8.0,0.0
-51.0,-15.0,115.0,124.0,36.0,-44.0,-34.0,-44.0,-28.0,-24.0,0.0
-45.0,-24.0,52.0,174.0,47.0,-36.0,-38.0,-49.0,-30.0,-33.0,0.0
-37.0,-24.0,-16.0,108.0,56.0,-26.0,-33.0,-28.0,-15.0,-12.0,0.0
-26.0,-8.0,-35.0,68.0,74.0,-3.0,-21.0,-17.0,-2.0,-3.0,0.0
10.0,11.0,-73.0,10.0,17.0,5.0,-18.0,1.0,16.0,20.0,0.0
17.0,19.0,-88.0,-33.0,-22.0,1.0,-6.0,6.0,15.0,17.0,0.0
-8.0,6.0,-77.0,-48.0,-33.0,-9.0,4.0,-2.0,1.0,-4.0,0.0
-34.0,-14.0,-57.0,-56.0,-42.0,-14.0,-3.0,-3.0,-14.0,-12.0,0.0
-38.0,-34.0,-51.0,-91.0,-83.0,-22.0,-7.0,-3.0,-19.0,-9.0,0.0
-32.0,-33.0,-43.0,-130.0,-124.0,-29.0,-4.0,0.0,-2.0,11.0,0.0
-20.0,-15.0,-37.0,-144.0,-136.0,-29.0,1.0,13.0,10.0,26.0,0.0
-22.0,-5.0,-21.0,-92.0,-97.0,-23.0,-4.0,5.0,17.0,16.0,0.0
-24.0,-17.0,2.0,-45.0,-63.0,-23.0,-10.0,8.0,13.0,8.0,0.0
-17.0,-20.0,3.0,-34.0,-55.0,-28.0,0.0,4.0,16.0,8.0,0.0
-11.0,-25.0,-22.0,-38.0,-65.0,-38.0,-3.0,12.0,17.0,7.0,0.0
-22.0,-26.0,-30.0,-36.0,-53.0,-28.0,-5.0,18.0,17.0,1.0,0.0
-21.0,-32.0,-15.0,-21.0,-31.0,-30.0,-4.0,19.0,8.0,-2.0,0.0
-20.0,-23.0,3.0,-12.0,-18.0,-30.0,-5.0,13.0,6.0,-2.0,0.0
-20.0,-22.0,-8.0,-13.0,-7.0,-15.0,-8.0,4.0,8.0,-2.0,0.0
-32.0,-15.0,-10.0,-3.0,-5.0,-3.0,0.0,1.0,-9.0,-9.0,0.0
-35.0,-13.0,17.0,0.0,2.0,0.0,2.0,-6.0,-17.0,-34.0,0.0
-33.0,-16.0,0.0,8.0,6.0,8.0,-7.0,-15.0,-10.0,-31.0,0.0
-31.0,-14.0,-1.0,-1.0,13.0,15.0,-3.0,-21.0,0.0,-20.0,0.0
-23.0,-12.0,11.0,-12.0,19.0,18.0,3.0,-14.0,-5.0,-20.0,0.0
-19.0,-14.0,-9.0,-17.0,27.0,10.0,5.0,-19.0,-9.0,-11.0,0.0
-18.0,-18.0,-23.0,-14.0,21.0,-2.0,6.0,-15.0,2.0,-12.0,0.0
-13.0,-25.0,-27.0,-4.0,20.0,-2.0,10.0,-6.0,11.0,-5.0,0.0
-11.0,-17.0,-7.0,2.0,13.0,0.0,0.0,-10.0,8.0,9.0,0.0
-2.0,3.0,11.0,-4.0,6.0,-8.0,-8.0,-16.0,-4.0,12.0,0.0
1.0,18.0,-2.0,-2.0,10.0,-21.0,-13.0,-4.0,-4.0,10.0,0.0
9.0,1.0,5.0,-6.0,13.0,-28.0,-5.0,9.0,-2.0,17.0,0.0
21.0,-25.0,-4.0,-13.0,16.0,-19.0,11.0,10.0,16.0,19.0,0.0
12.0,-27.0,-17.0,-13.0,19.0,-27.0,17.0,7.0,23.0,20.0,0.0
8.0,-20.0,-19.0,-17.0,18.0,-25.0,5.0,0.0,4.0,3.0,0.0
16.0,0.0,4.0,-10.0,23.0,-22.0,-14.0,-14.0,-8.0,-9.0,0.0
12.0,23.0,26.0,-4.0,3.0,-31.0,-26.0,-29.0,-18.0,-17.0,0.0
12.0,22.0,9.0,0.0,-3.0,-28.0,-6.0,-32.0,-7.0,-15.0,0.0
21.0,19.0,15.0,4.0,0.0,-8.0,2.0,-15.0,3.0,-6.0,0.0
14.0,15.0,10.0,29.0,5.0,6.0,-6.0,-12.0,-14.0,-13.0,0.0
5.0,11.0,47.0,40.0,21.0,20.0,-16.0,-15.0,-23.0,-27.0,0.0
-8.0,0.0,55.0,60.0,24.0,30.0,-12.0,-14.0,-31.0,-40.0,0.0
-21.0,-10.0,50.0,75.0,17.0,20.0,-23.0,-22.0,-38.0,-47.0,0.0
-30.0,-18.0,63.0,93.0,30.0,9.0,-32.0,-23.0,-52.0,-41.0,0.0
-35.0,-29.0,73.0,119.0,27.0,-12.0,-30.0,-36.0,-59.0,-40.0,0.0
-41.0,-26.0,85.0,143.0,27.0,-26.0,-41.0,-53.0,-70.0,-63.0,0.0
-44.0,-16.0,75.0,156.0,46.0,-28.0,-49.0,-54.0,-71.0,-61.0,0.0
-58.0,-28.0,67.0,137.0,70.0,-5.0,-27.0,-34.0,-56.0,-52.0,0.0
-62.0,-57.0,53.0,65.0,89.0,16.0,2.0,10.0,-36.0,-45.0,0.0
-38.0,-64.0,66.0,11.0,57.0,-8.0,7.0,30.0,-15.0,-9.0,0.0
-8.0,-44.0,123.0,-58.0,-5.0,-38.0,1.0,58.0,5.0,6.0,0.0
25.0,9.0,122.0,-149.0,-76.0,-49.0,4.0,92.0,14.0,22.0,0.0
70.0,58.0,4.0,-198.0,-79.0,-41.0,32.0,114.0,27.0,40.0,0.0
87.0,60.0,-80.0,-177.0,-53.0,-8.0,55.0,79.0,46.0,54.0,0.0
79.0,10.0,-123.0,-122.0,-9.0,15.0,48.0,7.0,66.0,48.0,0.0
70.0,0.0,-109.0,-86.0,42.0,28.0,28.0,-15.0,47.0,45.0,0.0
57.0,40.0,-62.0,-46.0,51.0,49.0,29.0,-14.0,49.0,33.0,0.0
31.0,20.0,-76.0,-10.0,42.0,46.0,14.0,-4.0,39.0,17.0,0.0
18.0,-8.0,-99.0,-22.0,32.0,24.0,-3.0,-13.0,8.0,10.0,0.0
10.0,-16.0,-97.0,-61.0,0.0,6.0,-15.0,-25.0,-16.0,3.0,0.0
18.0,2.0,-49.0,-77.0,-9.0,-15.0,-18.0,-25.0,-20.0,2.0,0.0
25.0,33.0,48.0,-43.0,3.0,-28.0,-23.0,-22.0,-25.0,-4.0,0.0
30.0,43.0,106.0,-9.0,0.0,-30.0,-24.0,-16.0,-10.0,6.0,0.0
27.0,20.0,83.0,-9.0,-37.0,-23.0,4.0,-5.0,25.0,13.0,0.0
33.0,-13.0,5.0,-16.0,-68.0,-23.0,36.0,17.0,63.0,24.0,0.0
54.0,-14.0,-139.0,-31.0,-49.0,-13.0,28.0,49.0,58.0,53.0,0.0
76.0,2.0,-160.0,-55.0,-23.0,3.0,29.0,59.0,59.0,73.0,0.0
72.0,1.0,-139.0,-61.0,-26.0,4.0,33.0,59.0,48.0,71.0,0.0
58.0,0.0,-136.0,-51.0,-26.0,-1.0,28.0,44.0,46.0,59.0,0.0
43.0,9.0,-81.0,-23.0,-29.0,0.0,12.0,25.0,18.0,30.0,0.0
25.0,20.0,-36.0,3.0,-28.0,-5.0,1.0,13.0,-5.0,13.0,0.0
11.0,6.0,-27.0,-2.0,-30.0,-7.0,12.0,10.0,15.0,6.0,0.0
9.0,-7.0,-15.0,-15.0,-16.0,13.0,43.0,12.0,43.0,3.0,0.0
2.0,-21.0,-12.0,-4.0,-1.0,15.0,26.0,10.0,5.0,0.0,0.0
0.0,-12.0,-13.0,8.0,1.0,14.0,17.0,15.0,-2.0,-6.0,0.0
-2.0,-4.0,-12.0,-2.0,-4.0,11.0,4.0,12.0,-2.0,-4.0,0.0
-13.0,-21.0,-11.0,13.0,1.0,14.0,9.0,4.0,-5.0,-5.0,0.0
-15.0,-33.0,-8.0,27.0,0.0,21.0,20.0,3.0,1.0,-10.0,0.0
-19.0,-19.0,2.0,22.0,-4.0,13.0,19.0,10.0,9.0,-5.0,0.0
-10.0,-9.0,0.0,5.0,-12.0,-10.0,1.0,3.0,9.0,-6.0,0.0
-6.0,-12.0,1.0,-4.0,-34.0,-21.0,-13.0,-4.0,6.0,-13.0,0.0
-9.0,-8.0,10.0,15.0,-46.0,-21.0,-15.0,-6.0,2.0,-18.0,0.0
-6.0,15.0,27.0,27.0,-36.0,-25.0,-11.0,0.0,18.0,4.0,0.0
3.0,21.0,33.0,22.0,-20.0,-12.0,7.0,5.0,47.0,22.0,0.0
6.0,8.0,5.0,-3.0,-23.0,5.0,15.0,-1.0,38.0,12.0,0.0
-3.0,-28.0,-12.0,1.0,-30.0,13.0,7.0,1.0,15.0,2.0,0.0
-19.0,-30.0,-16.0,25.0,-10.0,18.0,0.0,-1.0,4.0,-14.0,0.0
-22.0,-17.0,-20.0,45.0,12.0,23.0,-12.0,-15.0,-23.0,-27.0,0.0
-18.0,-39.0,-35.0,46.0,12.0,29.0,0.0,-10.0,-23.0,-18.0,0.0
-14.0,-58.0,-32.0,59.0,15.0,44.0,17.0,-3.0,-16.0,-24.0,0.0
-23.0,-57.0,-2.0,52.0,14.0,42.0,14.0,-4.0,-8.0,-32.0,0.0
-14.0,-8.0,79.0,56.0,7.0,38.0,-6.0,-15.0,-21.0,-26.0,0.0
-4.0,40.0,132.0,63.0,24.0,46.0,-6.0,-16.0,-21.0,-23.0,0.0
9.0,31.0,95.0,51.0,39.0,72.0,43.0,0.0,19.0,-7.0,0.0
19.0,10.0,37.0,34.0,16.0,61.0,60.0,10.0,38.0,-1.0,0.0
12.0,14.0,-19.0,7.0,-38.0,20.0,-16.0,1.0,-32.0,-19.0,0.0
13.0,41.0,12.0,-11.0,-62.0,-6.0,-60.0,-14.0,-61.0,-30.0,0.0
19.0,40.0,58.0,-9.0,-46.0,-19.0,-61.0,-20.0,-65.0,-30.0,0.0
21.0,28.0,72.0,13.0,-35.0,-27.0,-59.0,-26.0,-58.0,-34.0,0.0
10.0,6.0,71.0,66.0,-17.0,-31.0,-61.0,-20.0,-45.0,-20.0,0.0
1.0,-10.0,68.0,114.0,3.0,-28.0,-65.0,-30.0,-32.0,-16.0,0.0
-19.0,-12.0,50.0,135.0,7.0,-21.0,-76.0,-46.0,-52.0,-38.0,0.0
-27.0,19.0,82.0,162.0,43.0,-1.0,-72.0,-53.0,-82.0,-51.0,0.0
-46.0,50.0,137.0,159.0,108.0,3.0,-63.0,-61.0,-87.0,-61.0,0.0
-96.0,24.0,246.0,210.0,215.0,26.0,-69.0,-83.0,-111.0,-116.0,0.0
-117.0,-30.0,281.0,352.0,399.0,59.0,-45.0,-95.0,-127.0,-140.0,0.0
-106.0,-63.0,189.0,446.0,456.0,80.0,-21.0,-74.0,-107.0,-112.0,0.0
-77.0,-53.0,60.0,390.0,373.0,79.0,-14.0,-47.0,-69.0,-63.0,0.0
-31.0,10.0,34.0,250.0,211.0,43.0,-31.0,-38.0,-47.0,-33.0,0.0
-2.0,41.0,12.0,15.0,45.0,-1.0,-28.0,-10.0,-21.0,-2.0,0.0
15.0,15.0,-90.0,-319.0,-103.0,-27.0,-12.0,32.0,12.0,27.0,0.0
33.0,-1.0,-110.0,-427.0,-256.0,-77.0,-20.0,47.0,27.0,48.0,0.0
81.0,54.0,-120.0,-423.0,-339.0,-83.0,7.0,67.0,85.0,96.0,0.0
143.0,89.0,-223.0,-447.0,-289.0,-46.0,58.0,113.0,159.0,146.0,0.0
154.0,81.0,-256.0,-265.0,-148.0,1.0,73.0,124.0,153.0,153.0,0.0
136.0,87.0,-172.0,-190.0,-95.0,9.0,70.0,117.0,128.0,134.0,0.0
108.0,65.0,-145.0,-251.0,-156.0,-33.0,55.0,97.0,116.0,118.0,0.0
105.0,54.0,-116.0,-262.0,-221.0,-77.0,33.0,74.0,104.0,114.0,0.0
104.0,64.0,-94.0,-239.0,-213.0,-80.0,27.0,53.0,98.0,109.0,0.0
70.0,32.0,-105.0,-225.0,-179.0,-66.0,33.0,41.0,92.0,88.0,0.0
41.0,4.0,-82.0,-197.0,-117.0,-37.0,18.0,40.0,77.0,63.0,0.0
16.0,-7.0,-43.0,-143.0,-48.0,-8.0,4.0,32.0,50.0,31.0,0.0
-4.0,-20.0,-20.0,-110.0,-16.0,2.0,1.0,7.0,20.0,7.0,0.0
-20.0,-32.0,1.0,-48.0,-9.0,7.0,1.0,-23.0,-9.0,-14.0,0.0
-34.0,-32.0,10.0,89.0,16.0,13.0,-10.0,-23.0,-22.0,-25.0,0.0
-19.0,-31.0,-10.0,43.0,1.0,8.0,-10.0,-16.0,-14.0,-19.0,0.0
-10.0,-15.0,-15.0,-27.0,-36.0,-13.0,-21.0,-19.0,-2.0,-12.0,0.0
-10.0,0.0,-16.0,3.0,-38.0,-6.0,-19.0,-12.0,-16.0,-8.0,0.0
-10.0,2.0,-16.0,69.0,-8.0,0.0,0.0,-5.0,-14.0,9.0,0.0
-10.0,-10.0,-20.0,113.0,6.0,10.0,16.0,7.0,-5.0,25.0,0.0
-5.0,-11.0,-14.0,87.0,6.0,7.0,18.0,14.0,5.0,36.0,0.0
2.0,7.0,13.0,50.0,7.0,-9.0,1.0,1.0,1.0,32.0,0.0
9.0,23.0,37.0,29.0,0.0,-18.0,-7.0,-3.0,0.0,34.0,0.0
0.0,14.0,18.0,27.0,-10.0,-10.0,4.0,4.0,8.0,15.0,0.0
-8.0,-3.0,-4.0,21.0,-8.0,11.0,4.0,5.0,17.0,9.0,0.0
-4.0,-15.0,-8.0,24.0,7.0,10.0,-7.0,-2.0,9.0,12.0,0.0
-8.0,-3.0,1.0,52.0,40.0,17.0,-21.0,-1.0,-11.0,1.0,0.0
-30.0,-2.0,41.0,87.0,64.0,19.0,-21.0,-10.0,-29.0,-17.0,0.0
-44.0,-15.0,84.0,113.0,69.0,25.0,-20.0,-18.0,-34.0,-40.0,0.0
-55.0,-34.0,93.0,109.0,61.0,41.0,-11.0,-33.0,-33.0,-52.0,0.0
-64.0,-56.0,54.0,80.0,37.0,36.0,-2.0,-32.0,-43.0,-64.0,0.0
-52.0,-69.0,-2.0,36.0,-16.0,3.0,-13.0,-24.0,-43.0,-56.0,0.0
-46.0,-63.0,-47.0,4.0,-37.0,-21.0,-19.0,-28.0,-34.0,-41.0,0.0
-42.0,-55.0,-62.0,-14.0,-9.0,-15.0,-3.0,-20.0,-30.0,-38.0,0.0
-42.0,-43.0,11.0,18.0,4.0,-14.0,-8.0,-45.0,-48.0,-48.0,0.0
-55.0,-32.0,168.0,109.0,24.0,-26.0,-15.0,-46.0,-53.0,-50.0,0.0
-58.0,-42.0,323.0,159.0,49.0,-23.0,-15.0,-32.0,-44.0,-47.0,0.0
-18.0,-12.0,312.0,145.0,59.0,1.0,-10.0,-24.0,-33.0,-33.0,0.0
19.0,10.0,188.0,87.0,30.0,-4.0,-19.0,-15.0,-20.0,-8.0,0.0
36.0,-3.0,-4.0,54.0,2.0,-20.0,-5.0,-1.0,-1.0,14.0,0.0
44.0,-11.0,-123.0,26.0,0.0,-12.0,24.0,19.0,34.0,54.0,0.0
68.0,11.0,-166.0,-65.0,-7.0,6.0,39.0,34.0,51.0,73.0,0.0
93.0,16.0,-239.0,-166.0,-19.0,22.0,57.0,56.0,69.0,89.0,0.0
91.0,0.0,-242.0,-182.0,-24.0,16.0,61.0,57.0,73.0,83.0,0.0
57.0,-13.0,-174.0,-114.0,-25.0,6.0,48.0,22.0,49.0,57.0,0.0
54.0,7.0,-84.0,-61.0,-20.0,3.0,24.0,12.0,13.0,39.0,0.0
47.0,33.0,-38.0,-23.0,-13.0,14.0,15.0,5.0,0.0,20.0,0.0
27.0,31.0,-14.0,-9.0,7.0,21.0,17.0,-9.0,-12.0,3.0,0.0
20.0,10.0,0.0,-4.0,13.0,25.0,18.0,-4.0,-16.0,-4.0,0.0
10.0,7.0,0.0,-7.0,15.0,23.0,16.0,2.0,-11.0,-11.0,0.0
-1.0,-5.0,53.0,-8.0,19.0,17.0,7.0,2.0,3.0,-7.0,0.0
3.0,-1.0,89.0,-17.0,5.0,1.0,-13.0,0.0,7.0,-1.0,0.0
17.0,28.0,75.0,-43.0,-5.0,-5.0,-24.0,-10.0,7.0,-10.0,0.0
24.0,30.0,36.0,-35.0,-9.0,-12.0,-17.0,-10.0,14.0,0.0,0.0
23.0,16.0,-24.0,-24.0,5.0,-21.0,-15.0,-4.0,14.0,12.0,0.0
28.0,9.0,-24.0,-23.0,16.0,-27.0,-13.0,0.0,23.0,9.0,0.0
17.0,5.0,-35.0,-26.0,10.0,-20.0,-2.0,5.0,29.0,11.0,0.0
11.0,2.0,-64.0,-24.0,6.0,-10.0,2.0,2.0,22.0,15.0,0.0
14.0,-8.0,-63.0,-33.0,-12.0,5.0,13.0,8.0,18.0,16.0,0.0
0.0,-3.0,-30.0,-29.0,-37.0,9.0,16.0,15.0,15.0,10.0,0.0
-6.0,9.0,-8.0,-20.0,-42.0,13.0,16.0,-1.0,4.0,-1.0,0.0
-18.0,5.0,-7.0,-13.0,-41.0,7.0,17.0,-3.0,7.0,-6.0,0.0
-18.0,-29.0,-21.0,-21.0,-34.0,14.0,21.0,6.0,5.0,-6.0,0.0
-12.0,-61.0,-33.0,-6.0,-3.0,35.0,12.0,-10.0,-4.0,-13.0,0.0
-45.0,-79.0,-40.0,31.0,40.0,46.0,8.0,-17.0,-10.0,-19.0,0.0
-60.0,-81.0,-58.0,46.0,50.0,37.0,8.0,-9.0,0.0,-21.0,0.0
-48.0,-71.0,-48.0,34.0,50.0,29.0,11.0,-5.0,7.0,-13.0,0.0
-50.0,-65.0,-48.0,21.0,47.0,38.0,23.0,10.0,27.0,-2.0,0.0
-48.0,-74.0,-48.0,18.0,37.0,30.0,31.0,32.0,37.0,-9.0,0.0
-41.0,-66.0,-1.0,56.0,64.0,11.0,20.0,26.0,23.0,-17.0,0.0
-24.0,-5.0,49.0,75.0,78.0,-13.0,11.0,21.0,9.0,-6.0,0.0
-4.0,15.0,71.0,93.0,60.0,-26.0,-10.0,-9.0,-17.0,-6.0,0.0
-4.0,-1.0,84.0,150.0,70.0,-19.0,-39.0,-54.0,-52.0,-32.0,0.0
-30.0,1.0,109.0,172.0,90.0,-8.0,-50.0,-81.0,-74.0,-67.0,0.0
-36.0,-18.0,87.0,100.0,63.0,3.0,-37.0,-68.0,-67.0,-62.0,0.0
-39.0,-30.0,72.0,66.0,50.0,13.0,-32.0,-56.0,-54.0,-43.0,0.0
-9.0,-2.0,84.0,50.0,56.0,28.0,-21.0,-43.0,-48.0,-28.0,0.0
16.0,44.0,52.0,27.0,31.0,11.0,-4.0,-28.0,-35.0,-4.0,0.0
46.0,84.0,36.0,9.0,-10.0,-17.0,-23.0,-24.0,-24.0,12.0,0.0
75.0,135.0,107.0,9.0,-32.0,-33.0,-46.0,-40.0,-38.0,4.0,0.0
75.0,133.0,114.0,29.0,-18.0,-9.0,-22.0,-28.0,-41.0,-3.0,0.0
55.0,86.0,47.0,35.0,0.0,15.0,16.0,6.0,-13.0,3.0,0.0
27.0,13.0,-7.0,22.0,6.0,18.0,35.0,21.0,5.0,4.0,0.0
28.0,-33.0,-56.0,-17.0,5.0,31.0,42.0,32.0,5.0,2.0,0.0
17.0,-37.0,-9.0,-23.0,-2.0,13.0,17.0,36.0,-5.0,1.0,0.0
5.0,-26.0,131.0,24.0,-14.0,-26.0,-18.0,14.0,-24.0,-10.0,0.0
0.0,-24.0,122.0,25.0,-31.0,-50.0,-31.0,-6.0,-27.0,-18.0,0.0
2.0,-10.0,68.0,-11.0,-52.0,-54.0,-37.0,-13.0,-29.0,-17.0,0.0
11.0,-4.0,-33.0,-76.0,-48.0,-38.0,-38.0,-4.0,-30.0,-6.0,0.0
30.0,21.0,-84.0,-117.0,-41.0,-30.0,-21.0,8.0,-17.0,9.0,0.0
40.0,40.0,-86.0,-136.0,-61.0,-32.0,-1.0,16.0,-11.0,25.0,0.0
30.0,13.0,-142.0,-140.0,-62.0,-23.0,4.0,12.0,-4.0,36.0,0.0
17.0,-3.0,-159.0,-131.0,-57.0,-21.0,20.0,15.0,5.0,34.0,0.0
16.0,-13.0,-118.0,-105.0,-62.0,-17.0,28.0,16.0,13.0,27.0,0.0
2.0,-32.0,-80.0,-7.0,24.0,10.0,24.0,0.0,-4.0,2.0,0.0
-28.0,-42.0,-30.0,164.0,141.0,39.0,18.0,-4.0,-23.0,-6.0,0.0
-29.0,-40.0,-9.0,287.0,247.0,61.0,30.0,7.0,-17.0,-8.0,0.0
-15.0,-31.0,-3.0,203.0,220.0,59.0,34.0,15.0,0.0,-4.0,0.0
-1.0,-2.0,23.0,78.0,86.0,33.0,24.0,13.0,7.0,-3.0,0.0
6.0,12.0,-1.0,-27.0,-46.0,19.0,25.0,14.0,10.0,-3.0,0.0
13.0,11.0,-29.0,-116.0,-137.0,16.0,34.0,40.0,18.0,28.0,0.0
24.0,11.0,-30.0,-185.0,-166.0,-6.0,26.0,35.0,27.0,43.0,0.0
17.0,18.0,-2.0,-163.0,-116.0,-28.0,-1.0,19.0,4.0,32.0,0.0
11.0,22.0,-5.0,-121.0,-49.0,-22.0,-13.0,9.0,-17.0,7.0,0.0
19.0,7.0,-110.0,-154.0,-17.0,0.0,8.0,23.0,11.0,13.0,0.0
33.0,8.0,-135.0,-179.0,-51.0,-10.0,24.0,49.0,47.0,32.0,0.0
24.0,6.0,-70.0,-62.0,-57.0,-24.0,15.0,47.0,38.0,20.0,0.0
8.0,3.0,-42.0,23.0,-41.0,-15.0,9.0,23.0,19.0,11.0,0.0
-9.0,-7.0,-16.0,70.0,-9.0,-5.0,0.0,-2.0,11.0,10.0,0.0
-10.0,-7.0,-5.0,40.0,-27.0,-13.0,-14.0,-14.0,10.0,14.0,0.0
-3.0,-17.0,-13.0,-88.0,-60.0,-25.0,-23.0,-10.0,13.0,14.0,0.0
-15.0,-23.0,16.0,-110.0,-40.0,-10.0,0.0,-10.0,11.0,2.0,0.0
-18.0,-13.0,87.0,-61.0,9.0,12.0,6.0,-11.0,8.0,-7.0,0.0
-36.0,-20.0,131.0,10.0,39.0,29.0,0.0,-20.0,-13.0,-25.0,0.0
-72.0,-41.0,126.0,124.0,69.0,35.0,-3.0,-39.0,-34.0,-51.0,0.0
-88.0,-51.0,69.0,216.0,77.0,33.0,-1.0,-25.0,-30.0,-57.0,0.0
-42.0,-18.0,-34.0,248.0,87.0,48.0,27.0,5.0,3.0,-18.0,0.0
-10.0,13.0,-110.0,226.0,81.0,47.0,45.0,19.0,14.0,3.0,0.0
-2.0,14.0,-99.0,85.0,43.0,28.0,41.0,29.0,22.0,17.0,0.0
-6.0,28.0,-2.0,-10.0,16.0,-2.0,14.0,18.0,16.0,17.0,0.0
-23.0,18.0,36.0,-34.0,19.0,0.0,-11.0,13.0,3.0,8.0,0.0
-21.0,19.0,72.0,-27.0,1.0,-8.0,-26.0,1.0,-2.0,6.0,0.0
-15.0,36.0,111.0,14.0,-8.0,-44.0,-33.0,-3.0,-8.0,2.0,0.0
-16.0,26.0,90.0,7.0,-11.0,-50.0,-33.0,-1.0,-7.0,4.0,0.0
-10.0,2.0,12.0,-39.0,-18.0,-47.0,-10.0,-4.0,4.0,8.0,0.0
0.0,-13.0,-37.0,-84.0,-34.0,-40.0,-1.0,4.0,12.0,17.0,0.0
-4.0,-30.0,-74.0,-43.0,-40.0,-31.0,12.0,11.0,21.0,20.0,0.0
10.0,-15.0,-81.0,106.0,-14.0,-9.0,38.0,24.0,42.0,29.0,0.0
26.0,8.0,-79.0,87.0,5.0,26.0,49.0,36.0,53.0,44.0,0.0
10.0,10.0,-61.0,23.0,-2.0,27.0,38.0,27.0,33.0,30.0,0.0
-30.0,2.0,-39.0,82.0,21.0,38.0,21.0,3.0,-7.0,-13.0,0.0
-65.0,-42.0,-50.0,109.0,46.0,56.0,25.0,7.0,-28.0,-45.0,0.0
-52.0,-63.0,-41.0,79.0,40.0,36.0,21.0,2.0,-27.0,-45.0,0.0
-35.0,-38.0,74.0,83.0,22.0,5.0,-7.0,-19.0,-43.0,-49.0,0.0
-31.0,37.0,280.0,128.0,15.0,-12.0,-23.0,-34.0,-48.0,-52.0,0.0
-11.0,89.0,242.0,125.0,8.0,-19.0,-29.0,-27.0,-35.0,-27.0,0.0
-8.0,65.0,57.0,130.0,4.0,-14.0,-25.0,-10.0,-18.0,-9.0,0.0
-19.0,24.0,-57.0,107.0,-14.0,-26.0,-23.0,-5.0,-14.0,-5.0,0.0
-26.0,-1.0,-116.0,33.0,-16.0,-20.0,-15.0,7.0,-2.0,2.0,0.0
-12.0,0.0,-180.0,-92.0,-9.0,14.0,17.0,23.0,22.0,24.0,0.0
14.0,18.0,-182.0,-156.0,-25.0,27.0,29.0,29.0,35.0,35.0,0.0
37.0,30.0,-104.0,-180.0,-49.0,10.0,17.0,13.0,43.0,39.0,0.0
20.0,17.0,-71.0,-168.0,-41.0,5.0,19.0,0.0,34.0,38.0,0.0
12.0,0.0,-70.0,-131.0,-15.0,24.0,35.0,6.0,23.0,28.0,0.0
25.0,1.0,-50.0,-86.0,18.0,35.0,37.0,8.0,21.0,10.0,0.0
21.0,6.0,-48.0,-76.0,26.0,29.0,29.0,7.0,13.0,4.0,0.0
11.0,34.0,-42.0,-62.0,21.0,25.0,7.0,1.0,-5.0,-2.0,0.0
0.0,67.0,-26.0,-19.0,28.0,20.0,-1.0,-15.0,-18.0,-19.0,0.0
-4.0,44.0,-13.0,-6.0,16.0,4.0,10.0,-28.0,-25.0,-20.0,0.0
-17.0,4.0,-17.0,-2.0,11.0,-3.0,13.0,-27.0,-23.0,-25.0,0.0
-35.0,-17.0,-45.0,-6.0,11.0,2.0,10.0,-15.0,-21.0,-19.0,0.0
-21.0,-19.0,-57.0,-36.0,-8.0,-7.0,6.0,-10.0,-6.0,-2.0,0.0
-19.0,-15.0,-5.0,-18.0,2.0,-19.0,0.0,-17.0,-8.0,5.0,0.0
-22.0,18.0,83.0,44.0,36.0,-26.0,-13.0,-42.0,-30.0,-17.0,0.0
-18.0,54.0,126.0,58.0,46.0,-27.0,-31.0,-55.0,-44.0,-27.0,0.0
-4.0,45.0,82.0,45.0,74.0,-4.0,0.0,-50.0,3.0,-24.0,0.0
-5.0,15.0,42.0,39.0,87.0,5.0,4.0,-30.0,24.0,-24.0,0.0
-9.0,4.0,48.0,47.0,64.0,-19.0,-18.0,-29.0,-10.0,-24.0,0.0
15.0,49.0,45.0,3.0,15.0,-19.0,-19.0,-20.0,-5.0,-8.0,0.0
20.0,51.0,27.0,-33.0,1.0,-4.0,-13.0,-15.0,-1.0,6.0,0.0
2.0,-6.0,-11.0,-24.0,15.0,7.0,-1.0,-13.0,-9.0,6.0,0.0
-11.0,-22.0,0.0,8.0,12.0,10.0,6.0,0.0,-17.0,0.0,0.0
0.0,-9.0,17.0,34.0,0.0,10.0,17.0,7.0,-9.0,-6.0,0.0
3.0,9.0,17.0,34.0,0.0,22.0,8.0,0.0,-7.0,-3.0,0.0
16.0,18.0,2.0,0.0,10.0,29.0,5.0,0.0,0.0,7.0,0.0
15.0,18.0,-13.0,-46.0,-5.0,23.0,5.0,3.0,7.0,8.0,0.0
9.0,7.0,-2.0,-45.0,0.0,39.0,53.0,8.0,62.0,17.0,0.0
9.0,-2.0,1.0,-42.0,9.0,46.0,58.0,8.0,78.0,10.0,0.0
8.0,-9.0,-1.0,-34.0,-13.0,28.0,11.0,16.0,22.0,1.0,0.0
0.0,-16.0,5.0,-9.0,-34.0,1.0,-14.0,10.0,-6.0,-7.0,0.0
-4.0,-20.0,-4.0,-8.0,-60.0,-22.0,-32.0,-7.0,-25.0,-5.0,0.0
-8.0,-14.0,-12.0,-18.0,-80.0,-35.0,-41.0,-12.0,-29.0,-12.0,0.0
8.0,-3.0,-35.0,-54.0,-63.0,-30.0,-37.0,-7.0,-19.0,-19.0,0.0
24.0,16.0,-62.0,-79.0,1.0,-18.0,-33.0,-2.0,-18.0,-11.0,0.0
28.0,20.0,-32.0,-64.0,53.0,-20.0,-33.0,14.0,-13.0,7.0,0.0
16.0,7.0,-13.0,-54.0,12.0,-10.0,-25.0,15.0,-8.0,15.0,0.0
-10.0,-20.0,-33.0,-70.0,-26.0,-17.0,-33.0,-14.0,-20.0,-1.0,0.0
-31.0,-44.0,-27.0,1.0,48.0,-26.0,-45.0,-32.0,-28.0,-26.0,0.0
-35.0,-52.0,1.0,170.0,134.0,-3.0,-34.0,-24.0,-30.0,-41.0,0.0
-17.0,-40.0,32.0,281.0,160.0,12.0,-35.0,-5.0,-25.0,-15.0,0.0
-8.0,-32.0,15.0,273.0,171.0,17.0,-32.0,0.0,-12.0,0.0,0.0
-8.0,-32.0,-1.0,201.0,164.0,39.0,-19.0,14.0,3.0,-2.0,0.0
9.0,-9.0,46.0,70.0,90.0,43.0,-4.0,36.0,26.0,16.0,0.0
34.0,28.0,204.0,-19.0,-70.0,11.0,5.0,37.0,40.0,45.0,0.0
26.0,23.0,229.0,-17.0,-156.0,-30.0,-9.0,20.0,28.0,42.0,0.0
-6.0,-12.0,130.0,6.0,-96.0,-58.0,-23.0,-2.0,6.0,15.0,0.0
4.0,-18.0,-40.0,14.0,-42.0,-40.0,-22.0,0.0,14.0,30.0,0.0
17.0,3.0,-125.0,7.0,6.0,-5.0,-9.0,17.0,30.0,42.0,0.0
23.0,18.0,-132.0,-7.0,27.0,9.0,16.0,35.0,36.0,38.0,0.0
12.0,4.0,-138.0,-57.0,-7.0,12.0,11.0,27.0,25.0,27.0,0.0
10.0,-17.0,-124.0,-108.0,-71.0,-1.0,0.0,28.0,12.0,18.0,0.0
11.0,-7.0,-104.0,-128.0,-115.0,-24.0,1.0,26.0,16.0,20.0,0.0
21.0,12.0,-88.0,-136.0,-103.0,-21.0,0.0,19.0,15.0,6.0,0.0
18.0,21.0,-56.0,-59.0,-27.0,-14.0,-19.0,0.0,-1.0,-9.0,0.0
2.0,15.0,-34.0,14.0,20.0,-8.0,-31.0,-3.0,-12.0,-30.0,0.0
4.0,30.0,8.0,3.0,2.0,1.0,-17.0,-3.0,-6.0,-30.0,0.0
11.0,37.0,26.0,-50.0,-30.0,18.0,40.0,8.0,51.0,-25.0,0.0
11.0,29.0,17.0,-71.0,-52.0,37.0,92.0,18.0,94.0,-6.0,0.0
-2.0,8.0,7.0,-46.0,-30.0,39.0,83.0,20.0,91.0,-11.0,0.0
-17.0,5.0,21.0,-34.0,11.0,38.0,80.0,22.0,72.0,-24.0,0.0
-25.0,3.0,55.0,-63.0,12.0,31.0,71.0,4.0,61.0,-25.0,0.0
-31.0,-10.0,82.0,-66.0,1.0,17.0,66.0,4.0,59.0,-24.0,0.0
-10.0,1.0,86.0,-61.0,-21.0,-2.0,62.0,17.0,61.0,-14.0,0.0
1.0,21.0,93.0,-52.0,-37.0,-7.0,49.0,16.0,50.0,-5.0,0.0
-7.0,13.0,48.0,-14.0,-26.0,-2.0,31.0,9.0,43.0,-15.0,0.0
-19.0,6.0,44.0,12.0,-8.0,-12.0,8.0,-7.0,27.0,-39.0,0.0
-17.0,0.0,56.0,27.0,-2.0,-30.0,-45.0,-21.0,-28.0,-49.0,0.0
-12.0,0.0,84.0,23.0,20.0,-29.0,-79.0,-20.0,-69.0,-45.0,0.0
-1.0,-1.0,35.0,-25.0,35.0,-18.0,-61.0,-11.0,-64.0,-33.0,0.0
-5.0,-16.0,-19.0,-46.0,19.0,-35.0,-46.0,-27.0,-70.0,-34.0,0.0
-1.0,-15.0,-39.0,-17.0,-31.0,-29.0,-21.0,-24.0,-33.0,-17.0,0.0
25.0,-16.0,-133.0,-93.0,-54.0,-15.0,4.0,28.0,21.0,28.0,0.0
24.0,-40.0,-200.0,-46.0,-39.0,-9.0,10.0,54.0,2.0,14.0,0.0
-9.0,-73.0,-174.0,200.0,12.0,19.0,45.0,62.0,2.0,-17.0,0.0
-22.0,-73.0,-105.0,195.0,6.0,43.0,100.0,85.0,43.0,-11.0,0.0
-21.0,-67.0,-72.0,40.0,-39.0,24.0,82.0,113.0,29.0,-1.0,0.0
-27.0,-69.0,-95.0,-66.0,-52.0,-17.0,18.0,108.0,-26.0,-12.0,0.0
-29.0,-67.0,-74.0,-66.0,-47.0,-33.0,-17.0,48.0,-45.0,-20.0,0.0
-34.0,-45.0,4.0,-14.0,-26.0,-35.0,-55.0,-69.0,-82.0,-46.0,0.0
-31.0,-36.0,66.0,17.0,0.0,-31.0,-87.0,-107.0,-84.0,-62.0,0.0
-39.0,-53.0,94.0,46.0,34.0,-22.0,-90.0,-91.0,-82.0,-63.0,0.0
-52.0,-47.0,55.0,59.0,38.0,-19.0,-91.0,-71.0,-80.0,-62.0,0.0
-30.0,-4.0,14.0,36.0,10.0,-24.0,-76.0,-49.0,-56.0,-32.0,0.0
9.0,9.0,-33.0,69.0,27.0,-9.0,-28.0,-16.0,-19.0,15.0,0.0
37.0,-5.0,-84.0,35.0,17.0,11.0,4.0,10.0,18.0,39.0,0.0
