channel0,channel1,channel2,channel3,channel4,channel5,channel6,channel7,channel8,channel9,true_locs
6.0,1.0,3.0,3.0,-15.0,-18.0,6.0,11.0,-5.0,0.0,0.0
-4.0,9.0,2.0,0.0,8.0,-4.0,4.0,6.0,-7.0,-6.0,0.0
1.0,7.0,0.0,-9.0,20.0,3.0,-8.0,3.0,-6.0,-13.0,0.0
0.0,4.0,0.0,-3.0,19.0,27.0,0.0,4.0,-3.0,-18.0,0.0
-11.0,6.0,1.0,17.0,23.0,43.0,5.0,8.0,0.0,-12.0,0.0
-14.0,2.0,4.0,19.0,16.0,44.0,4.0,13.0,3.0,-6.0,0.0
-16.0,8.0,1.0,22.0,20.0,46.0,0.0,19.0,-5.0,-2.0,0.0
-11.0,0.0,-14.0,10.0,14.0,36.0,-6.0,19.0,-15.0,7.0,0.0
-11.0,-5.0,-20.0,2.0,8.0,14.0,1.0,19.0,-10.0,15.0,0.0
-9.0,-8.0,-19.0,-15.0,17.0,6.0,9.0,14.0,-2.0,1.0,0.0
-2.0,-4.0,-9.0,-28.0,29.0,-5.0,1.0,-2.0,-16.0,-8.0,0.0
7.0,-3.0,-4.0,-32.0,29.0,-28.0,8.0,-2.0,-16.0,-1.0,0.0
15.0,9.0,0.0,-32.0,26.0,-46.0,-7.0,-5.0,-12.0,10.0,0.0
16.0,16.0,9.0,-13.0,4.0,-53.0,-10.0,-11.0,-5.0,17.0,0.0
9.0,6.0,6.0,-16.0,-8.0,-61.0,-13.0,4.0,2.0,6.0,0.0
8.0,4.0,-18.0,-37.0,-17.0,-58.0,-15.0,9.0,17.0,-5.0,0.0
3.0,8.0,-8.0,-42.0,-3.0,-48.0,-17.0,-7.0,1.0,-14.0,0.0
14.0,15.0,6.0,-28.0,6.0,-28.0,-35.0,-18.0,-22.0,-18.0,0.0
9.0,25.0,0.0,-24.0,13.0,-14.0,-39.0,-18.0,-29.0,-18.0,0.0
1.0,17.0,-2.0,-17.0,11.0,20.0,-21.0,-7.0,-12.0,-16.0,0.0
3.0,0.0,-11.0,-3.0,13.0,50.0,0.0,0.0,-8.0,-19.0,0.0
0.0,-10.0,-9.0,1.0,31.0,67.0,5.0,-5.0,-19.0,-36.0,0.0
0.0,-1.0,1.0,-2.0,20.0,54.0,-1.0,-11.0,-26.0,-40.0,0.0
-3.0,8.0,-3.0,-24.0,6.0,44.0,16.0,-10.0,-18.0,-29.0,0.0
-2.0,8.0,-3.0,-36.0,-1.0,39.0,26.0,3.0,-9.0,-11.0,0.0
0.0,6.0,1.0,-27.0,0.0,20.0,26.0,7.0,-3.0,-1.0,0.0
0.0,16.0,8.0,-6.0,4.0,1.0,23.0,19.0,3.0,4.0,0.0
-9.0,16.0,-2.0,-9.0,9.0,-19.0,26.0,23.0,17.0,7.0,0.0
5.0,5.0,-17.0,-24.0,4.0,-47.0,33.0,26.0,28.0,7.0,0.0
11.0,-2.0,-17.0,-30.0,-12.0,-51.0,35.0,30.0,26.0,18.0,0.0
15.0,-8.0,-16.0,-36.0,-30.0,-59.0,36.0,29.0,18.0,23.0,0.0
10.0,-8.0,-7.0,-49.0,-40.0,-37.0,36.0,30.0,11.0,2.0,0.0
-1.0,-27.0,-11.0,-59.0,-23.0,0.0,39.0,16.0,11.0,-25.0,0.0
-8.0,-38.0,-24.0,-41.0,4.0,13.0,22.0,18.0,6.0,-31.0,0.0
-11.0,-30.0,-23.0,-31.0,7.0,17.0,8.0,18.0,6.0,-13.0,0.0
-8.0,-15.0,-16.0,-19.0,-5.0,-13.0,-5.0,10.0,10.0,-6.0,0.0
-7.0,-11.0,-12.0,4.0,-2.0,-11.0,-11.0,10.0,0.0,-16.0,0.0
-10.0,-15.0,-15.0,12.0,5.0,20.0,1.0,14.0,0.0,-30.0,0.0
-22.0,-20.0,-15.0,14.0,18.0,45.0,-1.0,7.0,2.0,-32.0,0.0
-16.0,-5.0,-8.0,20.0,28.0,50.0,4.0,1.0,6.0,-23.0,0.0
-5.0,11.0,4.0,27.0,28.0,41.0,13.0,17.0,9.0,-3.0,0.0
-8.0,12.0,21.0,22.0,14.0,12.0,16.0,16.0,14.0,-8.0,0.0
0.0,18.0,17.0,19.0,-5.0,-11.0,18.0,6.0,10.0,-1.0,0.0
5.0,27.0,14.0,10.0,-23.0,-34.0,12.0,20.0,8.0,15.0,0.0
10.0,23.0,7.0,10.0,-40.0,-53.0,8.0,31.0,11.0,16.0,0.0
14.0,26.0,-1.0,2.0,-39.0,-47.0,22.0,47.0,23.0,6.0,0.0
13.0,20.0,4.0,4.0,-30.0,-40.0,17.0,51.0,19.0,0.0,0.0
0.0,18.0,10.0,13.0,-14.0,-28.0,13.0,33.0,13.0,4.0,0.0
-6.0,17.0,5.0,16.0,2.0,-17.0,15.0,13.0,10.0,6.0,0.0
-8.0,13.0,0.0,11.0,5.0,-24.0,9.0,-4.0,-4.0,4.0,0.0
-6.0,3.0,1.0,18.0,9.0,-9.0,-6.0,-9.0,-24.0,-3.0,0.0
-11.0,2.0,3.0,25.0,15.0,5.0,-8.0,-12.0,-44.0,-24.0,0.0
-25.0,-11.0,-3.0,30.0,12.0,42.0,2.0,-5.0,-51.0,-31.0,0.0
-48.0,-15.0,-16.0,35.0,19.0,77.0,11.0,-7.0,-47.0,-28.0,0.0
-58.0,-25.0,-27.0,44.0,51.0,101.0,18.0,-16.0,-44.0,-34.0,0.0
-60.0,-33.0,-31.0,30.0,67.0,98.0,13.0,-24.0,-45.0,-39.0,0.0
-43.0,-22.0,-16.0,36.0,55.0,74.0,0.0,-28.0,-37.0,-24.0,0.0
-25.0,-5.0,10.0,37.0,32.0,32.0,-12.0,-21.0,-35.0,-11.0,0.0
-16.0,2.0,23.0,37.0,3.0,-13.0,-25.0,-13.0,-35.0,0.0,0.0
-8.0,1.0,9.0,3.0,-23.0,-52.0,-25.0,-2.0,-28.0,4.0,0.0
-2.0,-6.0,-20.0,-29.0,-38.0,-39.0,0.0,18.0,-14.0,7.0,0.0
-2.0,-10.0,-31.0,-43.0,-27.0,-33.0,8.0,17.0,-8.0,13.0,0.0
1.0,7.0,-5.0,-35.0,-33.0,-58.0,-14.0,5.0,-12.0,15.0,0.0
8.0,18.0,10.0,-42.0,-44.0,-74.0,-34.0,-12.0,-14.0,12.0,0.0
-1.0,3.0,-6.0,-70.0,-50.0,-51.0,-2.0,1.0,-2.0,7.0,0.0
-1.0,1.0,-13.0,-63.0,-54.0,-50.0,10.0,23.0,8.0,22.0,0.0
-7.0,3.0,-6.0,-42.0,-36.0,-59.0,-6.0,35.0,20.0,14.0,0.0
-12.0,5.0,-11.0,-28.0,-22.0,-31.0,-13.0,30.0,8.0,11.0,0.0
-13.0,16.0,-5.0,-11.0,1.0,5.0,-8.0,24.0,2.0,9.0,0.0
-16.0,4.0,0.0,3.0,8.0,30.0,-11.0,12.0,-10.0,0.0,0.0
-27.0,-10.0,9.0,28.0,9.0,45.0,-3.0,2.0,-10.0,7.0,0.0
-22.0,-19.0,7.0,42.0,11.0,45.0,-16.0,-2.0,1.0,11.0,0.0
-13.0,-13.0,0.0,41.0,14.0,35.0,-28.0,-7.0,13.0,7.0,0.0
-9.0,-14.0,-2.0,31.0,26.0,8.0,-38.0,0.0,10.0,3.0,0.0
-7.0,-16.0,-1.0,21.0,54.0,11.0,-41.0,-10.0,2.0,0.0,0.0
-16.0,-27.0,-15.0,17.0,51.0,34.0,-24.0,-16.0,-3.0,-15.0,0.0
-30.0,-34.0,-20.0,2.0,28.0,41.0,-10.0,-14.0,-1.0,-22.0,0.0
-26.0,-23.0,7.0,-12.0,12.0,-1.0,-21.0,-24.0,4.0,-7.0,0.0
-15.0,-9.0,3.0,-42.0,8.0,-37.0,-36.0,-30.0,12.0,7.0,0.0
-5.0,-1.0,-14.0,-68.0,-15.0,-37.0,-6.0,-8.0,25.0,4.0,0.0
11.0,14.0,-4.0,-69.0,-27.0,-25.0,18.0,24.0,32.0,16.0,0.0
16.0,23.0,28.0,-44.0,-22.0,-34.0,5.0,15.0,25.0,19.0,0.0
17.0,28.0,43.0,-19.0,-12.0,-48.0,-13.0,0.0,7.0,22.0,0.0
13.0,21.0,16.0,-4.0,0.0,-30.0,-27.0,-3.0,-3.0,23.0,0.0
8.0,4.0,10.0,10.0,-4.0,3.0,-14.0,-5.0,2.0,13.0,0.0
5.0,-1.0,22.0,35.0,-4.0,28.0,12.0,4.0,0.0,1.0,0.0
-3.0,2.0,37.0,51.0,-7.0,38.0,10.0,0.0,3.0,-6.0,0.0
-15.0,6.0,34.0,45.0,-7.0,43.0,3.0,-7.0,-3.0,0.0,0.0
-18.0,-9.0,20.0,19.0,-18.0,59.0,25.0,11.0,10.0,2.0,0.0
-13.0,-11.0,10.0,22.0,-19.0,59.0,27.0,23.0,6.0,-3.0,0.0
-11.0,-12.0,15.0,30.0,-16.0,53.0,14.0,18.0,-23.0,-19.0,0.0
-6.0,-12.0,20.0,11.0,-15.0,21.0,12.0,-9.0,-31.0,-23.0,0.0
-11.0,-10.0,5.0,-9.0,-1.0,8.0,19.0,-21.0,-16.0,-28.0,0.0
-9.0,-1.0,0.0,-9.0,4.0,-2.0,12.0,-19.0,-14.0,-18.0,0.0
16.0,14.0,19.0,-13.0,-17.0,-35.0,5.0,7.0,1.0,3.0,0.0
34.0,24.0,30.0,-16.0,-46.0,-61.0,-2.0,26.0,16.0,18.0,0.0
23.0,15.0,19.0,-35.0,-58.0,-67.0,8.0,28.0,11.0,4.0,0.0
12.0,19.0,7.0,-57.0,-56.0,-49.0,18.0,24.0,23.0,3.0,0.0
9.0,16.0,-1.0,-49.0,-49.0,-38.0,10.0,25.0,25.0,7.0,0.0
13.0,18.0,-7.0,-23.0,-37.0,-27.0,-10.0,3.0,16.0,9.0,0.0
17.0,10.0,-16.0,-1.0,-23.0,-17.0,-11.0,-12.0,11.0,0.0,1.0
12.0,2.0,-18.0,20.0,-2.0,-13.0,-12.0,-15.0,10.0,-4.0,1.0
0.0,-10.0,-20.0,32.0,26.0,23.0,-1.0,-21.0,0.0,-11.0,1.0
-12.0,-21.0,-9.0,36.0,38.0,48.0,-16.0,-18.0,-8.0,-25.0,1.0
-15.0,-13.0,-1.0,35.0,37.0,64.0,-24.0,-13.0,-13.0,-26.0,1.0
-13.0,0.0,3.0,25.0,24.0,62.0,-15.0,-16.0,-11.0,-16.0,1.0
-6.0,19.0,14.0,17.0,-10.0,46.0,1.0,-7.0,8.0,6.0,1.0
0.0,7.0,0.0,0.0,-28.0,25.0,18.0,7.0,24.0,5.0,1.0
7.0,6.0,3.0,-9.0,-21.0,23.0,14.0,22.0,21.0,-6.0,1.0
2.0,10.0,-1.0,-24.0,2.0,6.0,15.0,19.0,9.0,-7.0,1.0
6.0,23.0,-2.0,-29.0,9.0,-21.0,12.0,1.0,9.0,1.0,1.0
22.0,31.0,5.0,-31.0,0.0,-50.0,0.0,-4.0,31.0,0.0,1.0
32.0,26.0,11.0,-22.0,10.0,-59.0,-18.0,0.0,29.0,8.0,1.0
28.0,12.0,3.0,-34.0,7.0,-47.0,-20.0,-3.0,14.0,5.0,1.0
18.0,-2.0,-8.0,-48.0,-8.0,-24.0,3.0,-1.0,3.0,-10.0,1.0
6.0,-16.0,-16.0,-66.0,-21.0,10.0,16.0,8.0,-5.0,-10.0,1.0
13.0,-8.0,0.0,-45.0,-33.0,6.0,1.0,2.0,0.0,-2.0,1.0
0.0,-20.0,-9.0,-44.0,-14.0,23.0,-14.0,-13.0,9.0,-10.0,1.0
-6.0,-30.0,-12.0,-48.0,-1.0,32.0,-12.0,-17.0,10.0,-13.0,0.0
2.0,-19.0,-2.0,-33.0,1.0,43.0,-9.0,-4.0,24.0,-7.0,0.0
-2.0,-18.0,3.0,-15.0,1.0,38.0,6.0,6.0,26.0,-5.0,0.0
14.0,-11.0,14.0,2.0,5.0,8.0,0.0,-3.0,17.0,-3.0,0.0
19.0,1.0,17.0,15.0,4.0,4.0,-4.0,5.0,16.0,2.0,0.0
13.0,-11.0,6.0,2.0,12.0,18.0,3.0,2.0,16.0,-2.0,0.0
3.0,-9.0,5.0,3.0,18.0,21.0,19.0,-7.0,28.0,-2.0,0.0
2.0,-8.0,11.0,24.0,10.0,3.0,20.0,0.0,20.0,0.0,0.0
7.0,3.0,18.0,17.0,-9.0,-20.0,23.0,15.0,15.0,6.0,0.0
1.0,-2.0,5.0,0.0,-17.0,-33.0,28.0,17.0,16.0,1.0,0.0
2.0,7.0,-8.0,1.0,-20.0,-51.0,22.0,6.0,11.0,14.0,0.0
7.0,12.0,-1.0,-14.0,-26.0,-53.0,15.0,-2.0,4.0,22.0,0.0
22.0,10.0,3.0,-4.0,-26.0,-43.0,1.0,-12.0,-10.0,28.0,0.0
19.0,17.0,5.0,0.0,-23.0,-53.0,-22.0,-18.0,-21.0,35.0,0.0
7.0,12.0,0.0,5.0,-8.0,-51.0,-12.0,-11.0,-13.0,28.0,0.0
1.0,-6.0,-15.0,5.0,6.0,-28.0,12.0,-8.0,-20.0,10.0,0.0
1.0,-1.0,-19.0,3.0,9.0,-2.0,11.0,-11.0,-22.0,0.0,0.0
-8.0,-8.0,-9.0,16.0,4.0,21.0,9.0,-24.0,-22.0,-3.0,0.0
-13.0,-12.0,-7.0,25.0,0.0,38.0,5.0,-19.0,-22.0,-4.0,0.0
-23.0,-6.0,-11.0,26.0,9.0,48.0,6.0,-10.0,-9.0,-3.0,0.0
-33.0,-9.0,-14.0,27.0,18.0,52.0,12.0,-18.0,-4.0,-4.0,0.0
-38.0,-12.0,-11.0,28.0,15.0,43.0,0.0,-21.0,-10.0,-4.0,0.0
-30.0,-5.0,-3.0,19.0,12.0,29.0,-12.0,-19.0,-13.0,-7.0,0.0
-14.0,1.0,1.0,3.0,4.0,14.0,-18.0,-15.0,-9.0,-7.0,0.0
-8.0,4.0,1.0,-3.0,6.0,-8.0,-16.0,-12.0,0.0,-7.0,0.0
-2.0,-6.0,-15.0,-5.0,10.0,-10.0,-21.0,-17.0,0.0,4.0,0.0
1.0,-6.0,-17.0,-12.0,14.0,-24.0,-5.0,-13.0,0.0,2.0,0.0
-7.0,-3.0,1.0,-17.0,7.0,-36.0,3.0,-10.0,0.0,8.0,0.0
-2.0,0.0,15.0,-10.0,-1.0,-47.0,-16.0,-13.0,0.0,15.0,0.0
3.0,-11.0,7.0,-21.0,-9.0,-53.0,-4.0,-10.0,-5.0,11.0,0.0
-1.0,-17.0,-5.0,-30.0,-8.0,-31.0,17.0,-4.0,-9.0,13.0,0.0
-4.0,-15.0,-8.0,-15.0,-2.0,-17.0,8.0,-6.0,-1.0,22.0,0.0
-11.0,-7.0,0.0,-21.0,3.0,8.0,8.0,-16.0,-5.0,31.0,0.0
-9.0,-9.0,6.0,-33.0,8.0,15.0,15.0,-18.0,-13.0,13.0,0.0
-14.0,-26.0,0.0,-13.0,13.0,34.0,10.0,-15.0,-9.0,-1.0,0.0
-22.0,-35.0,2.0,3.0,27.0,52.0,16.0,-10.0,-7.0,-6.0,0.0
-19.0,-32.0,17.0,7.0,31.0,57.0,22.0,3.0,-13.0,-4.0,0.0
-19.0,-27.0,17.0,-1.0,18.0,70.0,17.0,12.0,-18.0,2.0,0.0
-21.0,-18.0,15.0,-10.0,25.0,67.0,4.0,4.0,-22.0,1.0,0.0
-17.0,-17.0,0.0,-12.0,29.0,36.0,-1.0,15.0,-13.0,-4.0,0.0
-22.0,-12.0,-4.0,-13.0,14.0,14.0,-9.0,18.0,-5.0,0.0,0.0
-26.0,-9.0,3.0,-27.0,8.0,5.0,-14.0,10.0,-1.0,6.0,0.0
-23.0,-3.0,-4.0,-39.0,4.0,-25.0,-11.0,-8.0,-4.0,8.0,0.0
-9.0,7.0,-6.0,-17.0,4.0,-42.0,-13.0,-14.0,-2.0,8.0,0.0
0.0,4.0,-3.0,-15.0,1.0,-38.0,-22.0,-13.0,-2.0,14.0,0.0
-2.0,12.0,4.0,-5.0,-1.0,-35.0,-16.0,-23.0,0.0,11.0,0.0
1.0,19.0,0.0,-4.0,-2.0,-33.0,-27.0,-50.0,-9.0,16.0,0.0
12.0,41.0,15.0,0.0,0.0,-40.0,-28.0,-60.0,9.0,29.0,0.0
12.0,44.0,20.0,8.0,-2.0,-29.0,-18.0,-65.0,16.0,35.0,0.0
14.0,37.0,-1.0,19.0,-2.0,-3.0,-17.0,-68.0,6.0,20.0,0.0
1.0,28.0,-7.0,25.0,2.0,11.0,-8.0,-51.0,-2.0,6.0,0.0
-4.0,17.0,-1.0,28.0,8.0,42.0,-16.0,-50.0,-13.0,-2.0,0.0
-5.0,4.0,-3.0,25.0,12.0,67.0,-22.0,-51.0,-30.0,-17.0,0.0
-17.0,-16.0,-16.0,22.0,23.0,72.0,-3.0,-37.0,-29.0,-26.0,0.0
-24.0,-25.0,-18.0,1.0,45.0,71.0,6.0,-52.0,-16.0,-32.0,0.0
-22.0,-19.0,-12.0,-5.0,51.0,77.0,4.0,-49.0,-14.0,-28.0,0.0
-20.0,-23.0,-16.0,-10.0,36.0,70.0,7.0,-40.0,-14.0,-30.0,0.0
0.0,-13.0,-7.0,-5.0,18.0,31.0,16.0,-22.0,-9.0,-24.0,0.0
14.0,-4.0,-5.0,5.0,13.0,-2.0,17.0,-19.0,-8.0,-8.0,0.0
12.0,-5.0,-13.0,-16.0,6.0,-16.0,24.0,-23.0,5.0,-5.0,0.0
20.0,7.0,-13.0,-20.0,-17.0,-50.0,9.0,-15.0,10.0,5.0,0.0
30.0,18.0,-5.0,0.0,-30.0,-100.0,3.0,-13.0,14.0,23.0,0.0
28.0,22.0,-1.0,-11.0,-36.0,-94.0,-5.0,-5.0,23.0,34.0,0.0
15.0,9.0,0.0,-31.0,-51.0,-54.0,-4.0,4.0,14.0,29.0,0.0
17.0,7.0,-3.0,-27.0,-55.0,-39.0,-2.0,1.0,9.0,17.0,0.0
27.0,4.0,-2.0,-1.0,-30.0,-33.0,-17.0,-12.0,3.0,14.0,0.0
16.0,-15.0,-2.0,6.0,-6.0,18.0,-6.0,-18.0,0.0,-1.0,0.0
-6.0,-15.0,-12.0,17.0,12.0,56.0,16.0,-20.0,3.0,-17.0,0.0
-13.0,-10.0,-12.0,31.0,21.0,63.0,12.0,-21.0,-9.0,-33.0,0.0
-8.0,-1.0,3.0,32.0,7.0,61.0,-6.0,-21.0,-16.0,-28.0,0.0
-3.0,-6.0,2.0,26.0,-7.0,33.0,-11.0,0.0,-13.0,-17.0,0.0
0.0,-10.0,-3.0,6.0,-15.0,9.0,0.0,16.0,-6.0,-21.0,0.0
3.0,-10.0,6.0,6.0,0.0,12.0,10.0,0.0,-4.0,-26.0,0.0
3.0,-6.0,14.0,4.0,-5.0,8.0,0.0,0.0,3.0,-18.0,0.0
1.0,0.0,0.0,-6.0,-7.0,0.0,-7.0,9.0,-4.0,-9.0,0.0
-5.0,-2.0,-10.0,-23.0,-5.0,-16.0,-4.0,24.0,-1.0,-11.0,0.0
-3.0,-2.0,-1.0,-21.0,-3.0,-50.0,-3.0,10.0,-2.0,-16.0,0.0
3.0,0.0,3.0,-15.0,-18.0,-49.0,-2.0,12.0,-4.0,-8.0,0.0
14.0,-2.0,1.0,-23.0,-18.0,-41.0,-3.0,12.0,-4.0,0.0,0.0
9.0,-1.0,2.0,-30.0,-10.0,-32.0,-6.0,13.0,2.0,11.0,0.0
11.0,3.0,-3.0,-22.0,6.0,-21.0,2.0,16.0,16.0,16.0,0.0
20.0,-4.0,10.0,-4.0,14.0,-17.0,-11.0,14.0,16.0,15.0,0.0
13.0,-13.0,21.0,1.0,14.0,-5.0,-11.0,6.0,13.0,11.0,0.0
0.0,-15.0,24.0,-1.0,18.0,1.0,-10.0,6.0,-3.0,7.0,0.0
-9.0,-3.0,24.0,18.0,21.0,22.0,-7.0,2.0,-20.0,5.0,0.0
-12.0,-2.0,20.0,27.0,25.0,46.0,-9.0,4.0,-18.0,6.0,0.0
-19.0,-16.0,22.0,33.0,42.0,55.0,-14.0,0.0,-25.0,0.0,0.0
-17.0,-16.0,18.0,47.0,60.0,49.0,-28.0,-12.0,-28.0,-13.0,0.0
-16.0,-17.0,20.0,36.0,76.0,48.0,-17.0,-6.0,-27.0,-4.0,0.0
-19.0,-20.0,4.0,22.0,71.0,46.0,0.0,11.0,-20.0,-2.0,0.0
-1.0,-16.0,-2.0,14.0,50.0,27.0,0.0,5.0,-14.0,1.0,0.0
11.0,-2.0,18.0,8.0,27.0,-17.0,-20.0,-17.0,-3.0,10.0,0.0
27.0,14.0,18.0,-13.0,-13.0,-75.0,-35.0,-25.0,0.0,30.0,0.0
17.0,0.0,-8.0,-40.0,-32.0,-78.0,-5.0,-1.0,12.0,25.0,0.0
3.0,-14.0,-15.0,-49.0,-38.0,-39.0,25.0,8.0,19.0,8.0,0.0
15.0,-12.0,-11.0,-45.0,-32.0,-17.0,35.0,-2.0,25.0,16.0,0.0
24.0,3.0,-4.0,-28.0,-32.0,-20.0,23.0,1.0,29.0,32.0,0.0
34.0,5.0,1.0,-15.0,-30.0,-34.0,9.0,8.0,14.0,49.0,0.0
30.0,-4.0,5.0,1.0,-22.0,-16.0,5.0,3.0,-7.0,48.0,0.0
24.0,4.0,1.0,14.0,-14.0,1.0,-2.0,-12.0,-15.0,32.0,0.0
16.0,8.0,-4.0,6.0,-7.0,10.0,-6.0,-31.0,-17.0,27.0,0.0
7.0,-2.0,-6.0,7.0,-6.0,27.0,3.0,-33.0,-13.0,10.0,0.0
4.0,6.0,16.0,20.0,10.0,34.0,4.0,-33.0,-6.0,7.0,0.0
2.0,15.0,25.0,33.0,34.0,34.0,-4.0,-19.0,3.0,5.0,0.0
-2.0,3.0,10.0,38.0,48.0,39.0,0.0,-12.0,0.0,3.0,0.0
-20.0,-11.0,-11.0,35.0,34.0,49.0,13.0,-7.0,-4.0,3.0,0.0
-19.0,-12.0,0.0,30.0,29.0,44.0,17.0,3.0,-7.0,3.0,0.0
-4.0,1.0,10.0,17.0,3.0,18.0,11.0,13.0,-6.0,-1.0,0.0
12.0,0.0,6.0,-18.0,-41.0,-5.0,2.0,19.0,0.0,3.0,0.0
16.0,0.0,-4.0,-40.0,-53.0,-22.0,5.0,28.0,8.0,3.0,0.0
17.0,0.0,-9.0,-15.0,-32.0,-55.0,7.0,26.0,-1.0,12.0,0.0
12.0,0.0,-3.0,-3.0,-5.0,-52.0,5.0,29.0,-9.0,11.0,0.0
4.0,-5.0,-1.0,-2.0,8.0,-23.0,13.0,15.0,-11.0,1.0,0.0
-1.0,-23.0,1.0,3.0,34.0,-14.0,6.0,-8.0,-19.0,-13.0,0.0
12.0,-9.0,16.0,23.0,31.0,3.0,-12.0,-7.0,-18.0,0.0,0.0
3.0,-4.0,19.0,24.0,32.0,32.0,-7.0,-3.0,-23.0,5.0,0.0
-16.0,-17.0,-2.0,10.0,30.0,59.0,15.0,16.0,-17.0,-17.0,0.0
-25.0,-29.0,-9.0,7.0,29.0,73.0,27.0,23.0,-13.0,-36.0,0.0
-13.0,-13.0,10.0,21.0,19.0,50.0,9.0,12.0,-17.0,-39.0,0.0
-11.0,-14.0,9.0,17.0,13.0,37.0,9.0,17.0,-10.0,-30.0,0.0
-7.0,-24.0,0.0,-1.0,2.0,55.0,13.0,21.0,-7.0,-21.0,0.0
-4.0,-18.0,-3.0,0.0,8.0,53.0,-4.0,10.0,-13.0,-1.0,0.0
-3.0,-19.0,6.0,3.0,21.0,30.0,-6.0,0.0,-13.0,0.0,0.0
-7.0,-15.0,10.0,0.0,20.0,4.0,-8.0,2.0,-16.0,-10.0,0.0
6.0,-14.0,7.0,-6.0,2.0,-19.0,-21.0,2.0,-16.0,-16.0,0.0
6.0,0.0,20.0,-18.0,-20.0,-41.0,-14.0,-1.0,0.0,-10.0,0.0
5.0,-2.0,25.0,-21.0,-33.0,-60.0,-4.0,5.0,11.0,-3.0,0.0
2.0,-2.0,23.0,-43.0,-33.0,-60.0,17.0,12.0,4.0,3.0,0.0
1.0,5.0,16.0,-38.0,-27.0,-66.0,11.0,11.0,1.0,-2.0,0.0
5.0,6.0,16.0,-18.0,-26.0,-65.0,-2.0,0.0,0.0,-15.0,0.0
-5.0,-1.0,9.0,-15.0,0.0,-41.0,-7.0,-14.0,-6.0,-17.0,0.0
-11.0,0.0,2.0,-15.0,24.0,-22.0,-11.0,-19.0,-15.0,-30.0,0.0
-12.0,-10.0,-4.0,-5.0,25.0,7.0,-17.0,-20.0,-19.0,-37.0,0.0
-19.0,-16.0,1.0,12.0,21.0,22.0,-16.0,-16.0,-18.0,-38.0,0.0
-12.0,-8.0,12.0,33.0,10.0,32.0,-9.0,-7.0,-1.0,-21.0,0.0
-10.0,-2.0,6.0,24.0,-11.0,41.0,2.0,2.0,11.0,-10.0,0.0
-14.0,-9.0,-14.0,17.0,-27.0,37.0,16.0,15.0,14.0,-4.0,0.0
-15.0,-17.0,-13.0,16.0,-13.0,28.0,21.0,11.0,11.0,-13.0,0.0
-15.0,-10.0,-11.0,22.0,-7.0,28.0,22.0,-1.0,0.0,-12.0,0.0
-3.0,-6.0,-1.0,20.0,-9.0,19.0,15.0,12.0,4.0,-13.0,0.0
0.0,5.0,5.0,10.0,-17.0,0.0,9.0,18.0,14.0,-19.0,0.0
-4.0,7.0,-7.0,0.0,-21.0,-20.0,1.0,4.0,23.0,-23.0,0.0
13.0,9.0,-6.0,-16.0,-30.0,-40.0,4.0,14.0,21.0,-13.0,0.0
19.0,4.0,-11.0,-27.0,-27.0,-37.0,16.0,22.0,26.0,-13.0,0.0
11.0,12.0,-7.0,-32.0,-17.0,-39.0,16.0,25.0,12.0,-16.0,0.0
4.0,18.0,-8.0,-36.0,-11.0,-20.0,28.0,14.0,0.0,-25.0,0.0
-6.0,9.0,-8.0,-34.0,-7.0,-18.0,34.0,-3.0,-5.0,-35.0,0.0
-11.0,5.0,1.0,-34.0,-4.0,-2.0,18.0,-3.0,-12.0,-24.0,0.0
-8.0,21.0,-1.0,-20.0,-2.0,-3.0,13.0,4.0,-21.0,-19.0,0.0
7.0,28.0,5.0,3.0,-3.0,-15.0,-2.0,18.0,-15.0,-9.0,0.0
12.0,26.0,23.0,7.0,2.0,-12.0,-8.0,15.0,-19.0,-7.0,0.0
9.0,20.0,28.0,3.0,11.0,9.0,-9.0,3.0,-23.0,-5.0,0.0
7.0,20.0,29.0,-7.0,16.0,15.0,-14.0,2.0,-17.0,0.0,0.0
0.0,32.0,39.0,-2.0,19.0,14.0,-22.0,-4.0,-12.0,5.0,0.0
-4.0,20.0,37.0,-4.0,19.0,16.0,-24.0,-11.0,-21.0,11.0,0.0
-4.0,19.0,32.0,-3.0,15.0,14.0,-14.0,2.0,-16.0,18.0,0.0
-2.0,23.0,25.0,-22.0,16.0,1.0,-15.0,5.0,-8.0,18.0,0.0
-5.0,23.0,27.0,-28.0,15.0,-22.0,-5.0,21.0,-5.0,7.0,0.0
-2.0,30.0,16.0,-27.0,14.0,-26.0,-10.0,19.0,-2.0,-6.0,0.0
3.0,24.0,21.0,-38.0,12.0,-41.0,-1.0,15.0,5.0,-8.0,0.0
6.0,12.0,15.0,-44.0,1.0,-45.0,8.0,28.0,4.0,0.0,0.0
5.0,13.0,-11.0,-40.0,-1.0,-62.0,0.0,26.0,4.0,3.0,0.0
0.0,12.0,-6.0,-21.0,-3.0,-56.0,-2.0,16.0,11.0,5.0,0.0
1.0,1.0,11.0,-7.0,-2.0,-26.0,6.0,21.0,2.0,2.0,0.0
-7.0,-7.0,0.0,-6.0,1.0,-20.0,18.0,23.0,0.0,-11.0,0.0
-21.0,-11.0,-13.0,-8.0,-5.0,-9.0,28.0,24.0,-1.0,-8.0,0.0
-13.0,-2.0,-13.0,-4.0,8.0,3.0,24.0,23.0,0.0,-11.0,0.0
-4.0,0.0,-2.0,16.0,29.0,24.0,27.0,28.0,-5.0,-12.0,0.0
-2.0,1.0,12.0,48.0,28.0,28.0,16.0,16.0,0.0,-15.0,0.0
0.0,15.0,14.0,59.0,24.0,30.0,4.0,17.0,1.0,2.0,0.0
-8.0,12.0,13.0,60.0,15.0,23.0,5.0,22.0,1.0,5.0,0.0
-17.0,5.0,19.0,57.0,5.0,23.0,5.0,22.0,9.0,-6.0,0.0
-22.0,6.0,4.0,45.0,-7.0,21.0,6.0,23.0,13.0,-12.0,0.0
-27.0,4.0,-11.0,23.0,-13.0,11.0,3.0,22.0,9.0,-18.0,0.0
-24.0,0.0,-12.0,23.0,-21.0,-3.0,11.0,23.0,2.0,-25.0,0.0
-10.0,0.0,0.0,14.0,-25.0,-30.0,13.0,22.0,-2.0,-25.0,0.0
-6.0,1.0,4.0,2.0,-18.0,-30.0,20.0,9.0,-7.0,-15.0,0.0
6.0,11.0,-2.0,-2.0,-6.0,-17.0,24.0,17.0,9.0,-1.0,0.0
12.0,6.0,-2.0,-14.0,-8.0,-37.0,7.0,17.0,16.0,5.0,0.0
5.0,-1.0,3.0,-7.0,-8.0,-40.0,-2.0,8.0,4.0,-9.0,0.0
-19.0,-23.0,-20.0,-19.0,0.0,-4.0,11.0,5.0,-5.0,-34.0,0.0
-20.0,-24.0,-37.0,-24.0,-5.0,22.0,29.0,5.0,-5.0,-34.0,0.0
-19.0,-9.0,-29.0,-9.0,-7.0,0.0,12.0,-7.0,-9.0,-27.0,0.0
-9.0,9.0,-3.0,12.0,1.0,0.0,-17.0,-12.0,-14.0,-31.0,0.0
1.0,16.0,6.0,24.0,6.0,-10.0,-38.0,-3.0,-6.0,-17.0,0.0
-10.0,21.0,0.0,26.0,5.0,-12.0,-43.0,-5.0,2.0,-8.0,0.0
-22.0,10.0,-25.0,20.0,3.0,27.0,-16.0,0.0,2.0,-21.0,0.0
-6.0,14.0,-24.0,29.0,4.0,63.0,-7.0,19.0,9.0,-17.0,0.0
8.0,22.0,0.0,33.0,-8.0,37.0,-12.0,13.0,21.0,-9.0,0.0
8.0,19.0,-3.0,27.0,10.0,2.0,-32.0,-6.0,16.0,-13.0,0.0
1.0,4.0,-22.0,21.0,34.0,-6.0,-50.0,-4.0,8.0,-20.0,0.0
-3.0,7.0,-16.0,30.0,41.0,-9.0,-53.0,-5.0,4.0,-18.0,0.0
1.0,8.0,-10.0,31.0,34.0,-9.0,-42.0,-6.0,-2.0,-18.0,0.0
14.0,11.0,-2.0,15.0,-8.0,-8.0,3.0,13.0,-4.0,-18.0,0.0
17.0,14.0,-26.0,-39.0,-40.0,0.0,40.0,36.0,7.0,0.0,0.0
34.0,24.0,-47.0,-76.0,-71.0,-28.0,25.0,52.0,33.0,29.0,0.0
43.0,37.0,-29.0,-48.0,-73.0,-52.0,14.0,53.0,41.0,36.0,0.0
23.0,33.0,-8.0,0.0,-42.0,-39.0,7.0,37.0,45.0,24.0,0.0
9.0,16.0,0.0,7.0,-25.0,-5.0,2.0,30.0,32.0,6.0,0.0
4.0,7.0,0.0,1.0,-11.0,14.0,6.0,24.0,4.0,-1.0,0.0
1.0,8.0,14.0,10.0,8.0,23.0,15.0,15.0,4.0,-12.0,0.0
0.0,3.0,20.0,14.0,21.0,45.0,13.0,12.0,3.0,-3.0,0.0
-5.0,-9.0,6.0,11.0,4.0,67.0,11.0,-5.0,5.0,5.0,0.0
4.0,-5.0,7.0,22.0,4.0,65.0,-1.0,-18.0,9.0,14.0,0.0
15.0,15.0,22.0,43.0,10.0,40.0,-3.0,-4.0,7.0,14.0,0.0
8.0,8.0,10.0,42.0,-4.0,36.0,0.0,14.0,13.0,11.0,0.0
-1.0,6.0,-7.0,14.0,-17.0,21.0,8.0,24.0,15.0,4.0,0.0
-6.0,13.0,-2.0,5.0,-18.0,0.0,1.0,27.0,16.0,-8.0,0.0
0.0,17.0,8.0,7.0,-4.0,-16.0,5.0,17.0,4.0,-9.0,0.0
18.0,11.0,-1.0,-3.0,-8.0,-34.0,15.0,7.0,-7.0,-5.0,0.0
25.0,6.0,-8.0,-12.0,-25.0,-35.0,8.0,0.0,-18.0,1.0,0.0
31.0,-1.0,-4.0,-11.0,-29.0,-51.0,-5.0,-11.0,-25.0,2.0,0.0
33.0,4.0,5.0,-10.0,-20.0,-50.0,-5.0,-12.0,-20.0,-2.0,0.0
30.0,6.0,-3.0,-12.0,-9.0,-27.0,9.0,3.0,-8.0,8.0,0.0
17.0,4.0,-10.0,0.0,1.0,-16.0,12.0,1.0,-10.0,8.0,0.0
16.0,4.0,-9.0,9.0,11.0,5.0,8.0,-9.0,-16.0,-6.0,0.0
12.0,8.0,-8.0,11.0,17.0,14.0,15.0,-14.0,-5.0,-7.0,0.0
7.0,9.0,-14.0,18.0,18.0,26.0,22.0,-6.0,-3.0,-2.0,0.0
-5.0,-8.0,-5.0,23.0,26.0,40.0,14.0,-3.0,-8.0,-13.0,0.0
-8.0,-13.0,9.0,30.0,38.0,49.0,0.0,-13.0,-17.0,-30.0,0.0
-3.0,-13.0,20.0,49.0,45.0,43.0,2.0,-18.0,-29.0,-24.0,0.0
3.0,5.0,28.0,48.0,42.0,31.0,9.0,-18.0,-32.0,-11.0,0.0
9.0,13.0,15.0,28.0,34.0,28.0,-1.0,-23.0,-25.0,1.0,0.0
10.0,10.0,1.0,18.0,28.0,21.0,-4.0,-26.0,-30.0,-1.0,0.0
9.0,4.0,1.0,-2.0,23.0,12.0,0.0,-17.0,-20.0,3.0,0.0
13.0,-8.0,-14.0,-13.0,17.0,-1.0,15.0,0.0,-14.0,3.0,0.0
3.0,-17.0,-17.0,-17.0,14.0,-15.0,16.0,9.0,-12.0,2.0,0.0
13.0,-6.0,0.0,-21.0,-11.0,-58.0,4.0,11.0,6.0,9.0,0.0
24.0,0.0,-2.0,-17.0,-25.0,-57.0,2.0,16.0,11.0,29.0,0.0
18.0,-4.0,-2.0,-12.0,-18.0,-49.0,-1.0,9.0,-1.0,25.0,0.0
16.0,-2.0,-5.0,-3.0,-8.0,-50.0,-10.0,-12.0,-1.0,22.0,0.0
15.0,-9.0,3.0,5.0,7.0,-24.0,-19.0,-14.0,10.0,18.0,0.0
19.0,-9.0,12.0,5.0,16.0,-21.0,-2.0,-2.0,21.0,23.0,0.0
13.0,-1.0,12.0,3.0,2.0,-16.0,7.0,1.0,17.0,15.0,0.0
2.0,-1.0,4.0,16.0,3.0,4.0,0.0,-1.0,16.0,3.0,0.0
-6.0,-8.0,-14.0,20.0,23.0,28.0,-10.0,-2.0,9.0,-6.0,0.0
3.0,-5.0,-19.0,8.0,48.0,43.0,-11.0,-6.0,11.0,-2.0,0.0
10.0,0.0,-6.0,4.0,51.0,45.0,-14.0,-14.0,9.0,-2.0,0.0
1.0,0.0,10.0,6.0,40.0,50.0,-19.0,-20.0,10.0,-7.0,0.0
2.0,7.0,15.0,11.0,8.0,27.0,-6.0,-9.0,20.0,4.0,0.0
27.0,-1.0,7.0,-21.0,-19.0,5.0,21.0,18.0,36.0,18.0,0.0
36.0,-8.0,4.0,-47.0,-35.0,-26.0,35.0,28.0,48.0,25.0,0.0
31.0,-8.0,-1.0,-50.0,-21.0,-31.0,36.0,25.0,43.0,18.0,0.0
22.0,-6.0,-2.0,-47.0,-5.0,-49.0,18.0,4.0,16.0,9.0,0.0
26.0,11.0,-5.0,-39.0,0.0,-70.0,4.0,-13.0,13.0,9.0,0.0
20.0,21.0,-5.0,-26.0,0.0,-63.0,1.0,-18.0,13.0,4.0,0.0
20.0,16.0,1.0,-19.0,11.0,-64.0,-4.0,-26.0,4.0,3.0,0.0
21.0,14.0,8.0,-5.0,6.0,-59.0,-25.0,-27.0,-3.0,10.0,0.0
11.0,17.0,19.0,20.0,-3.0,-44.0,-26.0,-28.0,-6.0,1.0,0.0
5.0,20.0,33.0,19.0,-17.0,-33.0,-11.0,-3.0,10.0,7.0,0.0
-1.0,5.0,1.0,-2.0,-41.0,0.0,24.0,15.0,28.0,13.0,0.0
-4.0,-7.0,-18.0,-7.0,-40.0,41.0,22.0,12.0,26.0,5.0,0.0
0.0,3.0,5.0,16.0,-27.0,41.0,-1.0,8.0,13.0,3.0,0.0
8.0,5.0,8.0,37.0,-10.0,37.0,-15.0,-8.0,18.0,3.0,0.0
9.0,3.0,4.0,50.0,-4.0,17.0,-6.0,-26.0,17.0,-3.0,0.0
12.0,-2.0,6.0,30.0,-1.0,10.0,-1.0,-28.0,15.0,-4.0,0.0
12.0,0.0,5.0,22.0,3.0,5.0,-5.0,-5.0,21.0,0.0,0.0
2.0,-4.0,4.0,17.0,19.0,-10.0,1.0,10.0,24.0,0.0,0.0
6.0,-9.0,-5.0,9.0,25.0,-10.0,9.0,16.0,33.0,8.0,0.0
-2.0,-9.0,-4.0,-4.0,17.0,-14.0,21.0,24.0,34.0,14.0,0.0
-5.0,-5.0,-12.0,-12.0,0.0,-35.0,16.0,33.0,37.0,24.0,0.0
6.0,-1.0,3.0,-12.0,-12.0,-46.0,6.0,20.0,42.0,31.0,0.0
11.0,2.0,11.0,-9.0,-31.0,-39.0,12.0,12.0,31.0,34.0,0.0
-2.0,1.0,-6.0,-26.0,-36.0,-31.0,24.0,5.0,23.0,21.0,0.0
-5.0,5.0,-11.0,-26.0,-34.0,-23.0,17.0,-19.0,16.0,11.0,0.0
0.0,15.0,15.0,1.0,-6.0,-2.0,1.0,-35.0,0.0,13.0,0.0
6.0,12.0,29.0,15.0,10.0,5.0,-3.0,-41.0,0.0,17.0,0.0
7.0,17.0,21.0,18.0,22.0,22.0,-6.0,-28.0,-3.0,22.0,0.0
0.0,9.0,11.0,4.0,23.0,36.0,-13.0,-27.0,-12.0,8.0,0.0
-7.0,5.0,10.0,-7.0,22.0,44.0,-20.0,-36.0,-25.0,2.0,0.0
-2.0,0.0,12.0,5.0,15.0,36.0,-29.0,-45.0,-31.0,15.0,0.0
8.0,-1.0,22.0,7.0,4.0,17.0,-34.0,-38.0,-25.0,13.0,0.0
11.0,-9.0,8.0,0.0,-1.0,14.0,-15.0,-19.0,-10.0,9.0,0.0
17.0,-8.0,-1.0,-11.0,-11.0,1.0,4.0,-4.0,-12.0,-1.0,0.0
20.0,-7.0,-4.0,-21.0,-10.0,2.0,10.0,6.0,-9.0,-11.0,0.0
21.0,-6.0,-5.0,-28.0,-14.0,-5.0,3.0,13.0,-7.0,-11.0,0.0
14.0,-7.0,-6.0,-32.0,-16.0,-4.0,-11.0,18.0,3.0,-11.0,0.0
15.0,-6.0,-8.0,-22.0,-9.0,-23.0,-11.0,17.0,11.0,-5.0,0.0
15.0,0.0,-11.0,-14.0,5.0,-20.0,-1.0,17.0,10.0,18.0,0.0
4.0,-3.0,-9.0,-29.0,0.0,-17.0,4.0,14.0,5.0,8.0,0.0
-5.0,-17.0,-13.0,-36.0,-8.0,-17.0,-5.0,15.0,-7.0,-1.0,0.0
2.0,-14.0,-2.0,-16.0,-7.0,7.0,-14.0,7.0,-15.0,6.0,0.0
1.0,-8.0,-14.0,6.0,9.0,21.0,-18.0,5.0,-10.0,0.0,0.0
-7.0,0.0,-13.0,13.0,15.0,36.0,-12.0,11.0,0.0,-9.0,0.0
-11.0,1.0,-12.0,27.0,27.0,54.0,-7.0,4.0,-5.0,-18.0,0.0
-25.0,0.0,-5.0,39.0,43.0,81.0,-2.0,5.0,-7.0,-22.0,0.0
-24.0,0.0,-8.0,36.0,45.0,85.0,-8.0,7.0,1.0,-21.0,0.0
-20.0,-2.0,-14.0,39.0,41.0,77.0,-10.0,12.0,3.0,-12.0,0.0
-15.0,-7.0,-6.0,40.0,21.0,57.0,-17.0,12.0,3.0,-4.0,0.0
-19.0,-13.0,-12.0,29.0,22.0,36.0,-23.0,7.0,5.0,-9.0,0.0
-21.0,-17.0,-12.0,9.0,44.0,15.0,-20.0,8.0,0.0,-14.0,0.0
-23.0,-9.0,-26.0,-2.0,52.0,0.0,-17.0,4.0,-1.0,-14.0,0.0
-20.0,-9.0,-32.0,-11.0,51.0,-1.0,-5.0,-11.0,-9.0,-14.0,0.0
-2.0,1.0,-18.0,-15.0,38.0,5.0,1.0,-11.0,-4.0,0.0,0.0
15.0,4.0,3.0,0.0,7.0,-3.0,2.0,-8.0,7.0,16.0,0.0
5.0,0.0,0.0,-11.0,-29.0,-23.0,3.0,-10.0,19.0,19.0,0.0
7.0,4.0,-11.0,-30.0,-54.0,-76.0,7.0,6.0,23.0,21.0,0.0
18.0,5.0,-12.0,-17.0,-63.0,-100.0,-5.0,4.0,29.0,25.0,0.0
14.0,9.0,-10.0,-5.0,-30.0,-68.0,-4.0,4.0,15.0,23.0,0.0
15.0,11.0,-13.0,0.0,-10.0,-29.0,-10.0,21.0,3.0,16.0,0.0
-1.0,2.0,-13.0,12.0,-3.0,0.0,-10.0,2.0,-6.0,8.0,0.0
-8.0,-11.0,-18.0,22.0,4.0,13.0,-9.0,-34.0,-19.0,4.0,0.0
-8.0,-7.0,-29.0,32.0,-1.0,22.0,-11.0,-49.0,-19.0,-7.0,0.0
-14.0,-9.0,-38.0,32.0,4.0,45.0,-3.0,-34.0,-22.0,-2.0,0.0
-14.0,-15.0,-21.0,23.0,1.0,39.0,-2.0,-34.0,-26.0,4.0,0.0
0.0,1.0,-4.0,21.0,-6.0,21.0,-4.0,-17.0,-6.0,13.0,0.0
24.0,5.0,8.0,16.0,-5.0,2.0,12.0,-4.0,4.0,8.0,0.0
31.0,3.0,11.0,10.0,-7.0,-8.0,11.0,-7.0,3.0,7.0,0.0
21.0,0.0,-3.0,-5.0,-8.0,-15.0,11.0,-3.0,-4.0,9.0,0.0
11.0,-5.0,-20.0,-5.0,-7.0,-21.0,8.0,-6.0,-2.0,-1.0,0.0
0.0,-22.0,-37.0,-1.0,-13.0,-27.0,4.0,-15.0,-6.0,-10.0,0.0
6.0,-23.0,-29.0,-2.0,-18.0,-35.0,-1.0,-21.0,-12.0,-13.0,0.0
5.0,-28.0,-25.0,-4.0,-15.0,-17.0,-18.0,-26.0,-23.0,-14.0,0.0
17.0,-16.0,-24.0,-15.0,-1.0,-5.0,-6.0,-5.0,-10.0,-4.0,0.0
8.0,-22.0,-32.0,-13.0,26.0,19.0,7.0,2.0,-12.0,-2.0,0.0
-9.0,-39.0,-30.0,-15.0,43.0,46.0,0.0,5.0,-31.0,-21.0,0.0
-6.0,-40.0,-25.0,3.0,48.0,64.0,-2.0,5.0,-39.0,-27.0,0.0
1.0,-26.0,2.0,36.0,46.0,54.0,-6.0,-12.0,-45.0,-15.0,0.0
16.0,-14.0,13.0,43.0,31.0,45.0,-11.0,-18.0,-41.0,-2.0,0.0
18.0,-4.0,9.0,27.0,-3.0,26.0,0.0,11.0,-27.0,17.0,0.0
16.0,9.0,1.0,30.0,-14.0,11.0,1.0,26.0,-15.0,25.0,0.0
10.0,13.0,10.0,26.0,-2.0,5.0,-9.0,22.0,-15.0,4.0,0.0
8.0,5.0,8.0,9.0,9.0,-4.0,-3.0,20.0,-13.0,1.0,0.0
7.0,4.0,-6.0,-12.0,7.0,-9.0,7.0,18.0,-15.0,1.0,0.0
-4.0,-2.0,-7.0,-27.0,10.0,25.0,33.0,20.0,-30.0,-9.0,0.0
-4.0,-9.0,-9.0,-30.0,28.0,25.0,41.0,21.0,-36.0,-7.0,0.0
-1.0,-13.0,-11.0,-39.0,39.0,1.0,32.0,16.0,-32.0,-7.0,0.0
-8.0,-12.0,-9.0,-36.0,49.0,-16.0,28.0,14.0,-17.0,-5.0,0.0
1.0,4.0,14.0,3.0,50.0,-43.0,12.0,17.0,-5.0,16.0,0.0
4.0,24.0,27.0,20.0,50.0,-66.0,-2.0,14.0,-2.0,25.0,0.0
-15.0,8.0,-2.0,3.0,45.0,-47.0,1.0,17.0,-9.0,0.0,0.0
-48.0,-24.0,-28.0,-12.0,41.0,26.0,32.0,26.0,-19.0,-20.0,0.0
-35.0,-14.0,-7.0,-21.0,11.0,38.0,41.0,23.0,-11.0,-14.0,0.0
-22.0,4.0,14.0,-8.0,-9.0,29.0,26.0,10.0,7.0,-7.0,0.0
-18.0,14.0,21.0,-9.0,-26.0,29.0,22.0,-5.0,9.0,-4.0,0.0
5.0,35.0,41.0,-1.0,-42.0,-1.0,-9.0,-20.0,-13.0,7.0,0.0
16.0,46.0,43.0,8.0,-45.0,-12.0,-28.0,-33.0,-23.0,22.0,0.0
12.0,33.0,24.0,7.0,-40.0,5.0,-5.0,-16.0,-17.0,24.0,0.0
13.0,22.0,8.0,-2.0,-38.0,32.0,27.0,-7.0,-19.0,21.0,0.0
20.0,25.0,29.0,-1.0,-39.0,19.0,21.0,-20.0,-16.0,23.0,0.0
19.0,23.0,29.0,-1.0,-35.0,-11.0,3.0,-23.0,-8.0,24.0,0.0
12.0,23.0,20.0,-4.0,-32.0,-26.0,5.0,-9.0,-9.0,22.0,0.0
5.0,7.0,9.0,-7.0,-30.0,-39.0,24.0,-4.0,-16.0,16.0,0.0
9.0,6.0,6.0,-7.0,-39.0,-56.0,28.0,7.0,-2.0,21.0,0.0
6.0,13.0,21.0,-11.0,-39.0,-55.0,27.0,17.0,13.0,39.0,0.0
0.0,2.0,33.0,-16.0,-28.0,-46.0,30.0,22.0,18.0,21.0,0.0
-2.0,-1.0,16.0,-27.0,-19.0,-9.0,31.0,26.0,9.0,5.0,0.0
-13.0,0.0,10.0,-9.0,0.0,17.0,34.0,17.0,15.0,-7.0,0.0
-18.0,-8.0,7.0,13.0,46.0,37.0,19.0,6.0,7.0,-17.0,0.0
-23.0,-15.0,5.0,37.0,77.0,43.0,3.0,8.0,-7.0,-25.0,0.0
-30.0,-22.0,23.0,54.0,59.0,49.0,-2.0,9.0,-19.0,-29.0,0.0
-22.0,-2.0,50.0,63.0,26.0,43.0,-15.0,4.0,-26.0,-35.0,0.0
-19.0,6.0,62.0,45.0,-3.0,40.0,-13.0,1.0,-23.0,-32.0,0.0
-13.0,9.0,56.0,4.0,-46.0,31.0,7.0,24.0,13.0,-12.0,0.0
-16.0,3.0,22.0,-10.0,-71.0,35.0,23.0,51.0,19.0,0.0,0.0
-12.0,-9.0,6.0,-11.0,-68.0,30.0,24.0,59.0,12.0,1.0,0.0
-10.0,5.0,13.0,-11.0,-40.0,19.0,4.0,58.0,13.0,1.0,0.0
-13.0,14.0,7.0,-6.0,-26.0,9.0,-2.0,47.0,12.0,6.0,0.0
-1.0,21.0,6.0,-6.0,-29.0,-12.0,-3.0,39.0,29.0,11.0,0.0
8.0,22.0,14.0,-11.0,-49.0,-49.0,-4.0,37.0,37.0,8.0,0.0
9.0,28.0,24.0,-24.0,-54.0,-56.0,2.0,36.0,32.0,17.0,0.0
11.0,28.0,9.0,-35.0,-61.0,-48.0,15.0,29.0,28.0,17.0,0.0
12.0,20.0,5.0,-36.0,-65.0,-53.0,5.0,22.0,15.0,10.0,0.0
7.0,16.0,2.0,-24.0,-59.0,-43.0,-1.0,25.0,12.0,18.0,0.0
-8.0,16.0,2.0,-14.0,-49.0,-26.0,0.0,10.0,13.0,15.0,0.0
-24.0,15.0,-5.0,0.0,-38.0,0.0,5.0,0.0,5.0,13.0,0.0
-15.0,8.0,-22.0,22.0,-34.0,16.0,1.0,-1.0,6.0,10.0,0.0
-6.0,-1.0,-22.0,23.0,-24.0,46.0,4.0,3.0,6.0,5.0,0.0
0.0,-4.0,-19.0,11.0,-20.0,58.0,9.0,1.0,6.0,-1.0,0.0
3.0,-6.0,-3.0,3.0,-13.0,48.0,-1.0,-7.0,-2.0,-14.0,0.0
11.0,-1.0,-3.0,11.0,6.0,43.0,-7.0,-19.0,-18.0,-11.0,0.0
11.0,-10.0,-7.0,24.0,10.0,38.0,-10.0,-15.0,-18.0,-12.0,0.0
4.0,-8.0,-1.0,11.0,-5.0,20.0,-9.0,-14.0,-12.0,-6.0,0.0
14.0,3.0,4.0,0.0,-5.0,-11.0,-7.0,-12.0,-9.0,-2.0,0.0
18.0,-4.0,-1.0,3.0,-2.0,-15.0,-4.0,-18.0,-10.0,5.0,0.0
17.0,-6.0,-11.0,0.0,-19.0,-27.0,13.0,-12.0,-18.0,5.0,0.0
17.0,-2.0,-18.0,-21.0,-34.0,-34.0,20.0,-2.0,-12.0,16.0,0.0
12.0,3.0,-21.0,-32.0,-22.0,-40.0,27.0,2.0,-11.0,17.0,0.0
12.0,4.0,-22.0,-23.0,-23.0,-39.0,16.0,0.0,-5.0,9.0,0.0
16.0,11.0,-18.0,-11.0,-11.0,-43.0,-7.0,-18.0,-7.0,4.0,0.0
19.0,17.0,-22.0,-4.0,-4.0,-46.0,-22.0,-16.0,-8.0,11.0,0.0
13.0,13.0,-18.0,-6.0,2.0,-21.0,-24.0,-1.0,-10.0,20.0,0.0
2.0,19.0,-17.0,16.0,21.0,1.0,-22.0,-2.0,-9.0,12.0,0.0
-6.0,19.0,-8.0,26.0,28.0,23.0,-21.0,-15.0,-4.0,5.0,0.0
-1.0,-1.0,-11.0,23.0,17.0,50.0,-2.0,-9.0,-2.0,11.0,0.0
5.0,-10.0,-3.0,25.0,-1.0,54.0,3.0,-7.0,0.0,4.0,0.0
5.0,-3.0,3.0,14.0,1.0,43.0,2.0,-5.0,2.0,-10.0,0.0
0.0,-6.0,-1.0,-6.0,5.0,40.0,1.0,-1.0,-1.0,-8.0,0.0
-2.0,-13.0,0.0,-16.0,-3.0,27.0,-1.0,8.0,11.0,-2.0,0.0
4.0,-1.0,-3.0,-17.0,-9.0,21.0,-4.0,-5.0,25.0,3.0,0.0
0.0,6.0,-1.0,-35.0,-7.0,0.0,0.0,-3.0,18.0,0.0,0.0
11.0,9.0,-12.0,-44.0,-10.0,-18.0,-4.0,2.0,14.0,-2.0,0.0
25.0,0.0,-10.0,-33.0,-13.0,-34.0,-6.0,-6.0,23.0,1.0,0.0
28.0,1.0,2.0,-37.0,-15.0,-56.0,0.0,-11.0,28.0,9.0,0.0
26.0,4.0,-1.0,-41.0,-18.0,-39.0,-3.0,3.0,18.0,4.0,0.0
24.0,-3.0,-18.0,-40.0,-16.0,-37.0,-4.0,3.0,13.0,-7.0,0.0
8.0,-10.0,-23.0,-34.0,-1.0,-40.0,2.0,5.0,17.0,-1.0,0.0
6.0,-14.0,-30.0,-27.0,2.0,-23.0,5.0,-8.0,4.0,-2.0,0.0
0.0,-21.0,-28.0,-18.0,9.0,-5.0,3.0,-19.0,0.0,-10.0,0.0
-4.0,-24.0,-14.0,8.0,36.0,26.0,-6.0,-29.0,7.0,-6.0,0.0
-2.0,-20.0,4.0,31.0,42.0,57.0,-9.0,-35.0,2.0,-9.0,0.0
-13.0,-23.0,-11.0,29.0,35.0,75.0,-4.0,-40.0,5.0,-21.0,0.0
-13.0,-26.0,4.0,24.0,46.0,83.0,-7.0,-41.0,3.0,-18.0,0.0
-11.0,-27.0,0.0,19.0,69.0,80.0,-13.0,-41.0,7.0,-28.0,0.0
-9.0,-23.0,-2.0,22.0,63.0,53.0,-26.0,-33.0,13.0,-28.0,0.0
3.0,1.0,27.0,15.0,23.0,0.0,-25.0,-29.0,24.0,-10.0,0.0
22.0,13.0,34.0,5.0,-10.0,-41.0,-24.0,-19.0,32.0,7.0,0.0
20.0,7.0,24.0,-10.0,-26.0,-32.0,-7.0,0.0,25.0,15.0,0.0
12.0,-4.0,2.0,-46.0,-35.0,-32.0,24.0,21.0,22.0,17.0,0.0
15.0,1.0,-17.0,-68.0,-38.0,-41.0,40.0,44.0,26.0,22.0,0.0
9.0,5.0,-24.0,-62.0,-34.0,-63.0,29.0,60.0,34.0,28.0,0.0
2.0,-5.0,-9.0,-51.0,-25.0,-66.0,22.0,53.0,33.0,25.0,0.0
-1.0,-14.0,-4.0,-43.0,-13.0,-41.0,18.0,36.0,18.0,18.0,0.0
-11.0,-24.0,-7.0,-41.0,-5.0,-23.0,14.0,26.0,0.0,2.0,0.0
-18.0,-11.0,-8.0,-31.0,5.0,-1.0,19.0,32.0,-1.0,-4.0,0.0
-16.0,2.0,3.0,-12.0,20.0,11.0,6.0,42.0,5.0,-2.0,0.0
-21.0,0.0,8.0,9.0,29.0,28.0,-10.0,36.0,-1.0,-3.0,0.0
-21.0,0.0,6.0,4.0,27.0,46.0,-5.0,19.0,-10.0,-11.0,0.0
-26.0,-3.0,-3.0,-18.0,30.0,62.0,2.0,16.0,-11.0,-13.0,0.0
-27.0,0.0,8.0,-20.0,32.0,55.0,-14.0,-2.0,-22.0,-7.0,0.0
-22.0,9.0,6.0,-15.0,18.0,58.0,-15.0,-13.0,-18.0,-11.0,0.0
-7.0,18.0,12.0,3.0,26.0,57.0,-8.0,0.0,1.0,2.0,0.0
12.0,24.0,14.0,0.0,16.0,6.0,-9.0,4.0,9.0,24.0,0.0
28.0,25.0,10.0,-19.0,0.0,-35.0,-4.0,4.0,19.0,32.0,0.0
18.0,11.0,4.0,-31.0,-1.0,-45.0,-7.0,-9.0,17.0,23.0,0.0
11.0,-5.0,-4.0,-24.0,2.0,-51.0,11.0,-15.0,4.0,13.0,0.0
0.0,-9.0,-21.0,-27.0,11.0,-52.0,17.0,4.0,11.0,7.0,0.0
-14.0,-11.0,-17.0,-42.0,5.0,-38.0,12.0,16.0,13.0,11.0,0.0
-13.0,-25.0,-7.0,-10.0,-10.0,6.0,6.0,-10.0,-4.0,11.0,0.0
3.0,-3.0,-10.0,23.0,19.0,36.0,-14.0,-20.0,-14.0,24.0,0.0
1.0,8.0,9.0,30.0,30.0,62.0,-26.0,-36.0,-30.0,0.0,0.0
2.0,1.0,21.0,10.0,35.0,70.0,-24.0,-56.0,-25.0,-15.0,0.0
0.0,-2.0,10.0,-11.0,25.0,75.0,-15.0,-46.0,-19.0,-12.0,0.0
-5.0,-11.0,-2.0,-5.0,19.0,74.0,-17.0,-28.0,-22.0,-5.0,0.0
0.0,-25.0,5.0,-3.0,5.0,45.0,-15.0,-12.0,-18.0,1.0,0.0
10.0,-7.0,24.0,-6.0,-27.0,-22.0,-11.0,3.0,14.0,20.0,0.0
30.0,10.0,18.0,-10.0,-42.0,-64.0,-9.0,5.0,33.0,38.0,0.0
26.0,2.0,10.0,-31.0,-52.0,-52.0,1.0,17.0,35.0,42.0,0.0
20.0,1.0,8.0,-29.0,-50.0,-55.0,-5.0,17.0,40.0,34.0,0.0
19.0,6.0,8.0,-15.0,-40.0,-47.0,-8.0,25.0,39.0,27.0,0.0
24.0,19.0,1.0,-14.0,-34.0,-60.0,-3.0,14.0,25.0,26.0,0.0
27.0,14.0,10.0,-14.0,-28.0,-68.0,8.0,-1.0,22.0,20.0,0.0
21.0,4.0,6.0,-1.0,-13.0,-43.0,9.0,-4.0,5.0,8.0,0.0
19.0,-8.0,2.0,12.0,-1.0,-25.0,4.0,-13.0,3.0,3.0,0.0
20.0,-14.0,-10.0,20.0,2.0,-5.0,1.0,-25.0,-5.0,-1.0,0.0
11.0,-17.0,-6.0,24.0,12.0,12.0,-2.0,-29.0,-21.0,-1.0,0.0
8.0,-15.0,-6.0,32.0,6.0,32.0,2.0,-22.0,-20.0,1.0,0.0
14.0,-11.0,2.0,39.0,13.0,38.0,3.0,-16.0,-14.0,-6.0,0.0
20.0,-8.0,-1.0,42.0,13.0,29.0,-4.0,-17.0,-4.0,-7.0,0.0
9.0,-17.0,-14.0,31.0,21.0,28.0,9.0,-7.0,2.0,-1.0,0.0
-9.0,-12.0,-18.0,18.0,20.0,44.0,37.0,-4.0,3.0,0.0,0.0
-11.0,-7.0,-18.0,14.0,31.0,35.0,38.0,-11.0,3.0,-12.0,0.0
-12.0,-2.0,-22.0,6.0,30.0,2.0,7.0,-6.0,0.0,-3.0,0.0
-25.0,-6.0,-35.0,19.0,30.0,-11.0,-14.0,0.0,8.0,0.0,0.0
-22.0,1.0,-32.0,25.0,27.0,-47.0,-29.0,-14.0,12.0,-3.0,0.0
-10.0,9.0,-15.0,34.0,25.0,-77.0,-35.0,-33.0,-4.0,-10.0,0.0
-16.0,-2.0,-25.0,-2.0,41.0,-28.0,-16.0,-19.0,-19.0,-23.0,0.0
-20.0,-14.0,-49.0,-32.0,29.0,-3.0,7.0,-2.0,-5.0,-19.0,0.0
-1.0,0.0,-49.0,-23.0,0.0,-18.0,0.0,0.0,10.0,-5.0,0.0
8.0,4.0,-30.0,-14.0,-13.0,-28.0,-11.0,-17.0,11.0,2.0,0.0
0.0,-6.0,-30.0,-5.0,-22.0,-15.0,-14.0,-13.0,8.0,0.0,0.0
10.0,5.0,-29.0,-9.0,-44.0,-7.0,-7.0,7.0,12.0,1.0,0.0
15.0,18.0,-11.0,-15.0,-46.0,-10.0,3.0,28.0,26.0,33.0,0.0
0.0,8.0,-11.0,-7.0,-41.0,-8.0,-1.0,17.0,27.0,26.0,0.0
-7.0,0.0,-16.0,4.0,-21.0,22.0,-1.0,-7.0,21.0,-3.0,0.0
-15.0,-7.0,-12.0,13.0,0.0,44.0,-3.0,-12.0,9.0,-19.0,0.0
-29.0,-17.0,-9.0,10.0,9.0,38.0,1.0,-15.0,8.0,-19.0,0.0
-15.0,-33.0,-13.0,20.0,13.0,30.0,5.0,-13.0,14.0,-12.0,0.0
-6.0,-18.0,-7.0,27.0,9.0,20.0,6.0,-8.0,12.0,-12.0,0.0
-5.0,-14.0,-13.0,10.0,-4.0,2.0,-1.0,-11.0,9.0,-7.0,0.0
8.0,-10.0,-11.0,5.0,-12.0,-19.0,-15.0,-14.0,15.0,6.0,0.0
7.0,2.0,-3.0,0.0,-27.0,-59.0,-11.0,-7.0,22.0,12.0,0.0
13.0,13.0,7.0,-17.0,-29.0,-56.0,-7.0,-3.0,9.0,4.0,0.0
11.0,12.0,-3.0,-36.0,-19.0,-53.0,1.0,0.0,4.0,7.0,0.0
7.0,4.0,-4.0,-39.0,-26.0,-60.0,-6.0,0.0,-1.0,7.0,0.0
12.0,9.0,9.0,-20.0,-15.0,-43.0,-17.0,-1.0,-3.0,15.0,0.0
0.0,-2.0,8.0,-16.0,-12.0,-17.0,-10.0,-4.0,0.0,12.0,0.0
2.0,-13.0,15.0,-14.0,-22.0,-6.0,-4.0,-12.0,-3.0,-2.0,0.0
8.0,-10.0,0.0,-3.0,0.0,21.0,9.0,-12.0,-12.0,-13.0,0.0
6.0,-14.0,-4.0,14.0,17.0,33.0,0.0,-24.0,-17.0,-14.0,0.0
-2.0,-10.0,9.0,17.0,24.0,50.0,-8.0,-30.0,-20.0,-2.0,0.0
-8.0,-9.0,29.0,19.0,14.0,55.0,-8.0,-26.0,-21.0,-4.0,0.0
-12.0,-21.0,14.0,-3.0,5.0,75.0,5.0,-23.0,-26.0,-12.0,0.0
-24.0,-36.0,-9.0,-22.0,15.0,92.0,8.0,-8.0,-21.0,-8.0,0.0
-28.0,-37.0,-19.0,-11.0,29.0,81.0,14.0,2.0,-2.0,-3.0,0.0
-25.0,-30.0,-22.0,-7.0,26.0,53.0,16.0,12.0,13.0,-9.0,0.0
-18.0,-23.0,-27.0,-13.0,20.0,32.0,20.0,8.0,14.0,-17.0,0.0
-19.0,-15.0,-5.0,-4.0,14.0,22.0,21.0,2.0,14.0,-20.0,0.0
-19.0,-17.0,-1.0,-11.0,2.0,23.0,26.0,2.0,15.0,-10.0,0.0
-5.0,-16.0,-5.0,-32.0,-2.0,20.0,35.0,0.0,7.0,-20.0,0.0
-8.0,-16.0,-5.0,-46.0,-11.0,18.0,38.0,3.0,3.0,-20.0,0.0
-4.0,-17.0,-5.0,-38.0,-21.0,-7.0,9.0,-5.0,0.0,-8.0,0.0
17.0,-6.0,13.0,-6.0,-27.0,-62.0,-22.0,-22.0,2.0,6.0,0.0
20.0,6.0,27.0,0.0,-28.0,-63.0,-20.0,-23.0,16.0,19.0,0.0
5.0,-7.0,10.0,-5.0,-17.0,-19.0,-5.0,-13.0,19.0,5.0,0.0
-1.0,-17.0,1.0,-6.0,-18.0,3.0,-1.0,-5.0,30.0,9.0,0.0
3.0,-16.0,24.0,20.0,-26.0,-6.0,-6.0,6.0,26.0,19.0,0.0
5.0,-8.0,13.0,28.0,-34.0,5.0,0.0,0.0,18.0,12.0,0.0
-9.0,-16.0,-3.0,16.0,-40.0,30.0,10.0,8.0,31.0,5.0,0.0
-10.0,-26.0,4.0,18.0,-31.0,45.0,0.0,4.0,23.0,3.0,0.0
-4.0,-19.0,10.0,23.0,-13.0,37.0,-3.0,-16.0,13.0,-7.0,0.0
-2.0,-11.0,12.0,17.0,-12.0,17.0,-16.0,-43.0,13.0,-6.0,0.0
1.0,-12.0,14.0,8.0,-20.0,2.0,-11.0,-37.0,5.0,1.0,0.0
15.0,-7.0,13.0,14.0,-28.0,-13.0,-1.0,-30.0,0.0,4.0,0.0
11.0,-10.0,10.0,-7.0,-41.0,-21.0,-14.0,-3.0,5.0,-1.0,0.0
15.0,-14.0,-1.0,0.0,-28.0,-14.0,-5.0,-6.0,-7.0,-1.0,0.0
7.0,-15.0,-9.0,6.0,-1.0,-8.0,-15.0,-17.0,-27.0,-2.0,0.0
-1.0,-44.0,-1.0,-11.0,5.0,-43.0,-68.0,-44.0,-91.0,-10.0,0.0
-5.0,-33.0,10.0,1.0,-6.0,-30.0,-40.0,-30.0,-53.0,0.0,0.0
10.0,0.0,13.0,22.0,0.0,1.0,5.0,-9.0,-1.0,17.0,0.0
3.0,1.0,7.0,19.0,13.0,28.0,12.0,0.0,6.0,10.0,0.0
-7.0,-14.0,-4.0,29.0,35.0,41.0,14.0,-8.0,0.0,-2.0,0.0
-12.0,-19.0,-3.0,43.0,42.0,53.0,14.0,-11.0,-16.0,-12.0,0.0
-7.0,-14.0,13.0,51.0,19.0,58.0,7.0,1.0,-17.0,3.0,0.0
8.0,4.0,24.0,58.0,2.0,38.0,-6.0,-4.0,-10.0,15.0,0.0
4.0,16.0,26.0,51.0,0.0,31.0,-13.0,-16.0,-11.0,17.0,0.0
-1.0,17.0,11.0,45.0,7.0,32.0,-2.0,0.0,-18.0,23.0,0.0
3.0,14.0,15.0,49.0,8.0,8.0,0.0,-4.0,-26.0,6.0,0.0
5.0,13.0,16.0,41.0,4.0,-18.0,0.0,2.0,-12.0,3.0,0.0
-10.0,-3.0,9.0,27.0,15.0,-19.0,1.0,13.0,5.0,5.0,0.0
-12.0,0.0,10.0,21.0,4.0,-15.0,-7.0,23.0,-1.0,11.0,0.0
-5.0,7.0,10.0,-3.0,-14.0,-36.0,-2.0,18.0,-9.0,26.0,0.0
2.0,8.0,13.0,-4.0,-17.0,-46.0,-13.0,21.0,-10.0,44.0,0.0
10.0,0.0,12.0,-6.0,-18.0,-67.0,-19.0,18.0,-19.0,40.0,0.0
2.0,-1.0,12.0,-30.0,-14.0,-48.0,-4.0,22.0,-9.0,22.0,0.0
-6.0,-4.0,5.0,-35.0,-7.0,-23.0,4.0,27.0,-16.0,15.0,0.0
-10.0,-5.0,3.0,-13.0,13.0,-1.0,11.0,19.0,-21.0,12.0,0.0
-13.0,-6.0,13.0,14.0,16.0,6.0,5.0,12.0,-17.0,11.0,0.0
-3.0,-3.0,13.0,18.0,4.0,30.0,3.0,10.0,-18.0,0.0,0.0
-10.0,-4.0,0.0,0.0,6.0,58.0,10.0,8.0,-9.0,-3.0,0.0
-38.0,-22.0,-8.0,-5.0,16.0,65.0,13.0,5.0,-18.0,6.0,0.0
-29.0,-15.0,-2.0,2.0,13.0,46.0,-4.0,6.0,-26.0,16.0,0.0
-8.0,-10.0,-9.0,5.0,10.0,26.0,-19.0,4.0,-14.0,21.0,0.0
-12.0,-6.0,-4.0,-1.0,23.0,27.0,-9.0,4.0,-23.0,12.0,0.0
-21.0,-16.0,-6.0,-4.0,46.0,32.0,-2.0,0.0,-24.0,-4.0,0.0
-40.0,-25.0,-8.0,8.0,56.0,26.0,-2.0,-2.0,-28.0,-9.0,0.0
-35.0,-24.0,-14.0,4.0,44.0,10.0,3.0,-15.0,-24.0,-9.0,0.0
-14.0,-4.0,-17.0,0.0,7.0,-34.0,-6.0,-14.0,-13.0,-2.0,0.0
25.0,33.0,13.0,-20.0,-55.0,-113.0,-38.0,7.0,13.0,43.0,0.0
13.0,26.0,-5.0,-20.0,-52.0,-78.0,-4.0,13.0,27.0,39.0,0.0
0.0,9.0,-11.0,-11.0,-17.0,-37.0,-15.0,-6.0,-5.0,18.0,0.0
-11.0,-24.0,-16.0,7.0,8.0,-40.0,-75.0,-37.0,-76.0,-13.0,0.0
-12.0,-19.0,-17.0,25.0,9.0,-19.0,-48.0,-19.0,-39.0,-10.0,0.0
0.0,-10.0,-12.0,35.0,-2.0,3.0,-23.0,0.0,4.0,2.0,0.0
8.0,-6.0,7.0,42.0,-2.0,0.0,-15.0,6.0,11.0,13.0,0.0
14.0,1.0,26.0,33.0,0.0,14.0,-12.0,14.0,13.0,18.0,0.0
16.0,-1.0,22.0,28.0,13.0,29.0,-9.0,8.0,11.0,10.0,0.0
1.0,-11.0,1.0,17.0,24.0,39.0,-3.0,13.0,-2.0,-9.0,0.0
8.0,-1.0,9.0,31.0,27.0,36.0,11.0,29.0,-2.0,-9.0,0.0
5.0,16.0,21.0,39.0,3.0,16.0,16.0,37.0,8.0,0.0,0.0
-1.0,16.0,13.0,27.0,-18.0,8.0,24.0,36.0,7.0,2.0,0.0
-3.0,8.0,-14.0,18.0,-33.0,1.0,34.0,28.0,4.0,-3.0,0.0
0.0,3.0,-26.0,4.0,-32.0,-17.0,38.0,30.0,10.0,3.0,0.0
7.0,0.0,-13.0,-11.0,-24.0,-44.0,27.0,29.0,17.0,16.0,0.0
8.0,4.0,-14.0,-19.0,-18.0,-50.0,12.0,9.0,11.0,20.0,0.0
8.0,14.0,-12.0,-33.0,-30.0,-63.0,7.0,3.0,10.0,15.0,0.0
11.0,20.0,-11.0,-28.0,-15.0,-53.0,3.0,-5.0,4.0,7.0,0.0
6.0,33.0,-19.0,-16.0,29.0,-19.0,5.0,-5.0,11.0,16.0,0.0
-9.0,10.0,-28.0,11.0,75.0,-15.0,-10.0,-5.0,15.0,7.0,0.0
-14.0,-7.0,-24.0,48.0,85.0,-10.0,-18.0,-4.0,-1.0,0.0,0.0
-19.0,-7.0,1.0,68.0,75.0,9.0,-27.0,-17.0,-21.0,-7.0,0.0
-21.0,-2.0,26.0,86.0,45.0,30.0,-31.0,-24.0,-27.0,-11.0,0.0
-33.0,-4.0,18.0,61.0,17.0,73.0,17.0,-2.0,-18.0,-17.0,0.0
-28.0,-21.0,-24.0,-6.0,-15.0,80.0,62.0,35.0,-5.0,-8.0,0.0
-19.0,-11.0,-27.0,-5.0,-8.0,39.0,40.0,34.0,-7.0,3.0,0.0
-18.0,-15.0,1.0,26.0,32.0,21.0,9.0,11.0,-25.0,5.0,0.0
-15.0,-17.0,13.0,34.0,36.0,10.0,7.0,5.0,-11.0,0.0,0.0
0.0,0.0,24.0,20.0,2.0,-13.0,10.0,14.0,-1.0,14.0,0.0
12.0,13.0,28.0,9.0,-33.0,-39.0,9.0,18.0,0.0,24.0,0.0
18.0,19.0,18.0,-29.0,-57.0,-54.0,5.0,19.0,20.0,27.0,0.0
24.0,20.0,12.0,-59.0,-64.0,-86.0,8.0,29.0,36.0,25.0,0.0
33.0,19.0,13.0,-35.0,-52.0,-87.0,0.0,19.0,29.0,25.0,0.0
27.0,10.0,-1.0,-25.0,-27.0,-65.0,0.0,13.0,11.0,18.0,0.0
9.0,3.0,-1.0,-19.0,-22.0,-52.0,4.0,12.0,-3.0,17.0,0.0
8.0,2.0,9.0,-9.0,-14.0,-33.0,10.0,25.0,1.0,14.0,0.0
13.0,-1.0,10.0,-15.0,4.0,-5.0,8.0,16.0,3.0,8.0,0.0
0.0,1.0,16.0,-24.0,18.0,14.0,6.0,-2.0,1.0,0.0,0.0
-4.0,3.0,12.0,-30.0,30.0,26.0,11.0,-7.0,2.0,0.0,0.0
-9.0,-2.0,18.0,-18.0,32.0,33.0,-7.0,-12.0,2.0,4.0,0.0
-12.0,-13.0,18.0,-15.0,28.0,43.0,-13.0,-6.0,-3.0,1.0,0.0
-15.0,-8.0,8.0,-14.0,25.0,49.0,-13.0,7.0,2.0,-10.0,0.0
-17.0,-3.0,7.0,-17.0,25.0,40.0,-11.0,10.0,-1.0,-20.0,0.0
-16.0,3.0,10.0,-7.0,23.0,35.0,-16.0,7.0,-15.0,-16.0,0.0
-3.0,4.0,9.0,-3.0,19.0,21.0,-2.0,5.0,-7.0,-18.0,0.0
0.0,5.0,1.0,-5.0,6.0,5.0,9.0,25.0,-4.0,-9.0,0.0
-7.0,4.0,0.0,-28.0,-5.0,-14.0,26.0,32.0,-3.0,-2.0,0.0
-9.0,1.0,-4.0,-35.0,8.0,-30.0,24.0,27.0,1.0,-5.0,0.0
0.0,4.0,-16.0,-35.0,23.0,-21.0,5.0,24.0,-16.0,-8.0,0.0
-3.0,-7.0,-19.0,-30.0,17.0,-33.0,-6.0,6.0,-19.0,-7.0,0.0
0.0,-18.0,-7.0,-16.0,13.0,-26.0,-22.0,-12.0,-18.0,-13.0,0.0
9.0,-8.0,-4.0,4.0,7.0,-31.0,-17.0,-12.0,-20.0,1.0,0.0
15.0,-1.0,-12.0,7.0,-8.0,-35.0,0.0,2.0,-13.0,16.0,0.0
18.0,4.0,-1.0,0.0,-17.0,-27.0,3.0,2.0,-12.0,9.0,0.0
13.0,2.0,5.0,7.0,2.0,-7.0,2.0,-14.0,-9.0,-7.0,0.0
0.0,1.0,-1.0,9.0,9.0,23.0,2.0,-25.0,-5.0,-15.0,0.0
-7.0,10.0,-6.0,10.0,7.0,33.0,1.0,-26.0,-14.0,-8.0,0.0
-7.0,9.0,-6.0,15.0,17.0,39.0,-4.0,-29.0,-13.0,-5.0,0.0
-4.0,2.0,-5.0,11.0,10.0,40.0,-4.0,-44.0,-12.0,-20.0,0.0
0.0,-7.0,-2.0,2.0,-2.0,32.0,0.0,-31.0,-15.0,-20.0,0.0
2.0,-2.0,-5.0,-1.0,-10.0,18.0,0.0,-30.0,-14.0,-17.0,0.0
11.0,7.0,0.0,0.0,-9.0,-3.0,-3.0,-43.0,-6.0,-17.0,0.0
9.0,8.0,-1.0,-17.0,-7.0,-9.0,4.0,-38.0,0.0,-3.0,0.0
15.0,12.0,-3.0,-21.0,-9.0,-17.0,7.0,-39.0,8.0,-1.0,0.0
15.0,7.0,-9.0,-37.0,-26.0,-31.0,8.0,-31.0,7.0,-2.0,0.0
12.0,0.0,-2.0,-56.0,-40.0,-56.0,8.0,-41.0,11.0,-5.0,0.0
21.0,0.0,-2.0,-48.0,-24.0,-55.0,19.0,-46.0,11.0,-10.0,0.0
4.0,-6.0,-13.0,-38.0,-3.0,-36.0,30.0,-35.0,22.0,-14.0,0.0
-15.0,-8.0,-28.0,-31.0,9.0,-6.0,30.0,-32.0,21.0,-27.0,0.0
-34.0,-12.0,-12.0,-11.0,43.0,31.0,29.0,-27.0,3.0,-32.0,0.0
-40.0,-16.0,5.0,19.0,72.0,48.0,-1.0,-42.0,-12.0,-39.0,0.0
-46.0,-28.0,0.0,29.0,96.0,81.0,-20.0,-49.0,-35.0,-48.0,0.0
-57.0,-40.0,5.0,37.0,81.0,87.0,-9.0,-47.0,-49.0,-59.0,0.0
-49.0,-18.0,21.0,48.0,23.0,45.0,-9.0,-24.0,-31.0,-46.0,0.0
-33.0,-8.0,24.0,27.0,-7.0,22.0,-17.0,-4.0,-15.0,-20.0,0.0
-26.0,-7.0,1.0,1.0,-12.0,33.0,27.0,24.0,8.0,8.0,0.0
-10.0,18.0,2.0,0.0,-26.0,9.0,42.0,36.0,27.0,31.0,0.0
4.0,40.0,5.0,2.0,-42.0,-26.0,16.0,27.0,30.0,32.0,0.0
12.0,30.0,-3.0,-10.0,-46.0,-27.0,6.0,23.0,31.0,9.0,0.0
10.0,17.0,-7.0,-30.0,-45.0,-26.0,16.0,32.0,21.0,0.0,0.0
2.0,19.0,-2.0,-27.0,-38.0,-40.0,19.0,40.0,16.0,9.0,0.0
5.0,18.0,5.0,-51.0,-47.0,-46.0,15.0,36.0,17.0,10.0,0.0
11.0,23.0,9.0,-62.0,-47.0,-69.0,21.0,36.0,20.0,8.0,0.0
17.0,31.0,0.0,-54.0,-45.0,-55.0,13.0,50.0,23.0,11.0,0.0
7.0,27.0,-7.0,-39.0,-40.0,-44.0,23.0,51.0,22.0,15.0,0.0
-2.0,17.0,3.0,-40.0,-21.0,-20.0,17.0,31.0,7.0,4.0,0.0
-9.0,14.0,12.0,-40.0,-11.0,0.0,5.0,19.0,2.0,-4.0,0.0
-19.0,14.0,15.0,-23.0,-6.0,23.0,1.0,16.0,0.0,-6.0,0.0
-18.0,12.0,17.0,-8.0,5.0,46.0,-9.0,5.0,-13.0,0.0,0.0
-24.0,10.0,10.0,11.0,5.0,58.0,-15.0,-3.0,-15.0,-1.0,0.0
-21.0,9.0,0.0,0.0,-5.0,54.0,-16.0,-9.0,-9.0,-1.0,0.0
-9.0,7.0,5.0,-12.0,-1.0,39.0,-15.0,-8.0,-10.0,0.0,0.0
5.0,12.0,0.0,4.0,3.0,38.0,-18.0,-14.0,-14.0,0.0,0.0
-3.0,23.0,7.0,18.0,-6.0,22.0,-26.0,-12.0,-3.0,12.0,0.0
-3.0,18.0,2.0,12.0,-17.0,10.0,-10.0,-1.0,10.0,20.0,0.0
2.0,5.0,0.0,10.0,-20.0,-2.0,0.0,6.0,6.0,6.0,0.0
8.0,5.0,0.0,-19.0,-8.0,-18.0,-6.0,-7.0,11.0,1.0,0.0
17.0,7.0,10.0,-38.0,-12.0,-22.0,-11.0,-9.0,23.0,5.0,0.0
17.0,4.0,11.0,-49.0,-20.0,-38.0,-25.0,-1.0,35.0,5.0,0.0
9.0,8.0,-1.0,-48.0,-23.0,-33.0,-11.0,6.0,35.0,0.0,0.0
3.0,15.0,2.0,-47.0,-23.0,-16.0,-4.0,7.0,27.0,9.0,0.0
0.0,10.0,0.0,-30.0,-23.0,-6.0,-4.0,0.0,23.0,8.0,0.0
-8.0,7.0,9.0,-11.0,-2.0,0.0,3.0,-6.0,12.0,4.0,0.0
-6.0,13.0,22.0,10.0,8.0,4.0,12.0,-8.0,-1.0,-14.0,0.0
1.0,21.0,17.0,10.0,3.0,22.0,7.0,-19.0,4.0,-21.0,0.0
-11.0,0.0,8.0,15.0,12.0,58.0,1.0,-19.0,3.0,-30.0,0.0
-23.0,-22.0,-4.0,33.0,38.0,88.0,0.0,-16.0,-3.0,-42.0,0.0
-33.0,-37.0,-15.0,33.0,74.0,111.0,-7.0,-11.0,-10.0,-46.0,0.0
-38.0,-34.0,-11.0,32.0,83.0,106.0,-5.0,-19.0,-26.0,-46.0,0.0
-35.0,-27.0,-13.0,37.0,66.0,96.0,-22.0,-44.0,-34.0,-57.0,0.0
-13.0,2.0,-4.0,40.0,24.0,50.0,-32.0,-68.0,-26.0,-44.0,0.0
0.0,18.0,1.0,17.0,2.0,7.0,-26.0,-59.0,-13.0,-26.0,0.0
-1.0,17.0,-17.0,-24.0,-15.0,-15.0,-2.0,-5.0,8.0,0.0,0.0
9.0,15.0,-24.0,-53.0,-55.0,-60.0,3.0,20.0,22.0,18.0,0.0
22.0,15.0,-5.0,-53.0,-62.0,-72.0,-16.0,16.0,10.0,11.0,0.0
26.0,22.0,-16.0,-65.0,-54.0,-64.0,-14.0,15.0,7.0,9.0,0.0
32.0,13.0,-27.0,-55.0,-40.0,-67.0,-14.0,24.0,9.0,9.0,0.0
28.0,26.0,-6.0,-27.0,-47.0,-79.0,-21.0,33.0,21.0,20.0,0.0
24.0,34.0,16.0,-3.0,-37.0,-81.0,-17.0,27.0,19.0,40.0,0.0
22.0,24.0,14.0,4.0,-23.0,-58.0,-15.0,19.0,19.0,33.0,0.0
6.0,8.0,5.0,-7.0,-14.0,-24.0,-25.0,19.0,17.0,10.0,0.0
-4.0,0.0,6.0,5.0,-2.0,-6.0,-15.0,16.0,5.0,18.0,0.0
-6.0,7.0,20.0,39.0,8.0,2.0,-7.0,14.0,4.0,18.0,0.0
-10.0,0.0,27.0,42.0,8.0,31.0,-17.0,0.0,9.0,0.0,0.0
-21.0,-11.0,14.0,26.0,12.0,61.0,-8.0,-8.0,0.0,-11.0,0.0
-22.0,-16.0,14.0,18.0,12.0,61.0,2.0,-3.0,0.0,-20.0,0.0
-17.0,-4.0,5.0,8.0,14.0,43.0,-4.0,8.0,11.0,-23.0,0.0
-21.0,0.0,-3.0,5.0,21.0,30.0,0.0,22.0,12.0,-9.0,0.0
-19.0,-9.0,-11.0,7.0,8.0,6.0,3.0,27.0,11.0,-10.0,0.0
-20.0,-9.0,-19.0,5.0,-3.0,-23.0,6.0,18.0,1.0,-10.0,0.0
-11.0,-10.0,-14.0,-8.0,6.0,-31.0,6.0,18.0,3.0,-10.0,0.0
-2.0,-3.0,-1.0,-30.0,-6.0,-39.0,0.0,33.0,10.0,-5.0,0.0
-9.0,-2.0,-3.0,-34.0,0.0,-32.0,-2.0,19.0,0.0,-7.0,0.0
-6.0,0.0,4.0,-22.0,26.0,-22.0,-9.0,0.0,-14.0,-11.0,0.0
-10.0,1.0,-1.0,-9.0,30.0,-11.0,-18.0,-5.0,-20.0,-11.0,0.0
-4.0,-4.0,-3.0,-2.0,15.0,-15.0,-20.0,-9.0,-17.0,-23.0,0.0
0.0,-3.0,-19.0,-5.0,3.0,5.0,-13.0,-17.0,-21.0,-35.0,0.0
8.0,5.0,-21.0,0.0,-7.0,11.0,-7.0,-9.0,-19.0,-12.0,0.0
10.0,10.0,-6.0,12.0,0.0,1.0,-8.0,-3.0,-5.0,-9.0,0.0
-3.0,6.0,9.0,28.0,20.0,21.0,-3.0,-12.0,-10.0,-25.0,0.0
-19.0,-3.0,2.0,34.0,42.0,51.0,-1.0,-21.0,-19.0,-29.0,0.0
-17.0,-2.0,3.0,45.0,51.0,68.0,-2.0,-19.0,-15.0,-28.0,0.0
-17.0,-5.0,-3.0,44.0,58.0,60.0,7.0,-14.0,-8.0,-26.0,0.0
-9.0,0.0,-10.0,38.0,50.0,28.0,-1.0,-18.0,-14.0,-6.0,0.0
3.0,7.0,4.0,17.0,38.0,-4.0,-9.0,-19.0,-22.0,5.0,0.0
2.0,5.0,12.0,10.0,25.0,-18.0,-16.0,-14.0,-18.0,0.0,0.0
15.0,1.0,13.0,-5.0,4.0,-27.0,-5.0,6.0,-9.0,3.0,0.0
21.0,-3.0,-8.0,-39.0,-13.0,-9.0,31.0,42.0,-1.0,-3.0,0.0
13.0,-12.0,-24.0,-61.0,-19.0,-5.0,51.0,57.0,16.0,4.0,0.0
11.0,-13.0,-23.0,-48.0,-12.0,-31.0,44.0,43.0,15.0,7.0,0.0
14.0,-6.0,-2.0,-29.0,19.0,-32.0,19.0,21.0,-4.0,1.0,0.0
9.0,-1.0,6.0,11.0,46.0,-13.0,19.0,1.0,-23.0,-9.0,0.0
2.0,3.0,4.0,44.0,54.0,4.0,19.0,-8.0,-30.0,-8.0,0.0
-13.0,11.0,4.0,45.0,28.0,26.0,15.0,-2.0,-31.0,-4.0,0.0
-7.0,11.0,2.0,46.0,5.0,33.0,13.0,-9.0,-29.0,-8.0,0.0
-4.0,11.0,9.0,38.0,-5.0,65.0,12.0,-10.0,-26.0,-3.0,0.0
-19.0,-1.0,-15.0,14.0,-17.0,91.0,30.0,4.0,-23.0,3.0,0.0
-16.0,-14.0,-11.0,15.0,-16.0,82.0,45.0,2.0,-12.0,-1.0,0.0
-14.0,-13.0,4.0,27.0,-11.0,71.0,38.0,8.0,-10.0,-1.0,0.0
-22.0,-16.0,-1.0,36.0,-20.0,49.0,29.0,6.0,1.0,-1.0,0.0
-15.0,3.0,3.0,41.0,-27.0,-2.0,29.0,0.0,14.0,4.0,0.0
-10.0,10.0,3.0,38.0,-8.0,-16.0,30.0,-3.0,16.0,12.0,0.0
-14.0,18.0,0.0,31.0,-7.0,-16.0,21.0,-3.0,8.0,9.0,0.0
-5.0,27.0,6.0,24.0,-18.0,-34.0,0.0,-8.0,12.0,13.0,0.0
7.0,17.0,-1.0,-10.0,-25.0,-41.0,12.0,-8.0,22.0,10.0,0.0
13.0,10.0,-18.0,-19.0,-24.0,-26.0,14.0,-7.0,7.0,13.0,0.0
18.0,18.0,3.0,3.0,-21.0,-43.0,-11.0,-8.0,-3.0,17.0,0.0
25.0,23.0,29.0,18.0,-23.0,-55.0,-29.0,-11.0,-9.0,14.0,0.0
22.0,17.0,22.0,26.0,-32.0,-51.0,-28.0,-19.0,-11.0,-4.0,0.0
15.0,6.0,12.0,39.0,-38.0,-16.0,-12.0,-16.0,-5.0,-4.0,0.0
5.0,-4.0,2.0,33.0,-28.0,1.0,0.0,6.0,0.0,1.0,0.0
8.0,-5.0,-10.0,32.0,-10.0,19.0,5.0,29.0,-5.0,9.0,0.0
10.0,-3.0,-11.0,35.0,1.0,20.0,1.0,37.0,-4.0,25.0,0.0
3.0,-4.0,-2.0,41.0,7.0,10.0,0.0,31.0,-1.0,26.0,0.0
0.0,-7.0,-1.0,45.0,0.0,4.0,8.0,14.0,-12.0,9.0,0.0
-17.0,-11.0,-3.0,47.0,-9.0,18.0,2.0,11.0,-17.0,-4.0,0.0
-22.0,-16.0,-5.0,41.0,-4.0,19.0,-1.0,21.0,-17.0,-4.0,0.0
-21.0,-21.0,-16.0,36.0,5.0,8.0,4.0,15.0,-15.0,0.0,0.0
-9.0,-13.0,-7.0,46.0,22.0,-9.0,3.0,32.0,-6.0,6.0,0.0
9.0,8.0,-3.0,43.0,17.0,-35.0,13.0,45.0,19.0,28.0,0.0
6.0,22.0,-1.0,23.0,11.0,-60.0,9.0,43.0,17.0,35.0,0.0
14.0,28.0,15.0,12.0,14.0,-68.0,3.0,41.0,9.0,32.0,0.0
12.0,3.0,-6.0,-18.0,14.0,-54.0,8.0,41.0,20.0,7.0,0.0
-12.0,-18.0,-36.0,-53.0,3.0,-9.0,27.0,34.0,20.0,-17.0,0.0
-32.0,-15.0,-39.0,-36.0,1.0,13.0,33.0,34.0,21.0,-14.0,0.0
-19.0,1.0,-8.0,3.0,-2.0,-2.0,8.0,13.0,19.0,-4.0,0.0
3.0,8.0,20.0,14.0,-12.0,-25.0,2.0,4.0,21.0,1.0,0.0
5.0,9.0,14.0,23.0,-8.0,-14.0,-4.0,3.0,13.0,13.0,0.0
2.0,3.0,15.0,24.0,10.0,7.0,-25.0,-9.0,-7.0,3.0,0.0
0.0,-5.0,21.0,13.0,28.0,25.0,-30.0,-23.0,-15.0,-8.0,0.0
-4.0,-14.0,15.0,24.0,28.0,26.0,-36.0,-29.0,-21.0,-13.0,0.0
0.0,-2.0,0.0,9.0,30.0,29.0,-25.0,-26.0,-23.0,-14.0,0.0
6.0,-4.0,-6.0,-3.0,29.0,17.0,-17.0,-14.0,-24.0,-6.0,0.0
0.0,-6.0,-9.0,-6.0,17.0,8.0,-8.0,9.0,-14.0,-14.0,0.0
1.0,-1.0,-7.0,-14.0,16.0,-2.0,0.0,22.0,-7.0,-15.0,0.0
3.0,2.0,-10.0,-21.0,22.0,-16.0,-2.0,34.0,0.0,-7.0,0.0
4.0,13.0,-18.0,-28.0,17.0,-26.0,9.0,37.0,4.0,-7.0,0.0
-3.0,7.0,-14.0,-35.0,10.0,-39.0,19.0,29.0,1.0,-3.0,0.0
-2.0,0.0,-9.0,-42.0,7.0,-49.0,7.0,16.0,-2.0,0.0,0.0
-1.0,-2.0,-13.0,-44.0,-1.0,-59.0,0.0,11.0,3.0,-9.0,0.0
8.0,5.0,-7.0,-34.0,5.0,-33.0,3.0,-9.0,3.0,-10.0,0.0
7.0,11.0,2.0,-15.0,9.0,-22.0,-4.0,-28.0,-14.0,-12.0,0.0
9.0,9.0,3.0,15.0,17.0,-16.0,-23.0,-46.0,-14.0,-10.0,0.0
-5.0,2.0,-6.0,40.0,35.0,7.0,-25.0,-49.0,-5.0,-13.0,0.0
-13.0,-10.0,-11.0,37.0,49.0,34.0,-10.0,-26.0,-10.0,-19.0,0.0
-26.0,-29.0,-19.0,52.0,62.0,63.0,-4.0,-16.0,-20.0,-27.0,0.0
-19.0,-22.0,-2.0,62.0,56.0,78.0,-10.0,-15.0,-17.0,-31.0,0.0
-16.0,-21.0,3.0,50.0,46.0,72.0,-5.0,-27.0,-17.0,-23.0,0.0
-9.0,-21.0,0.0,36.0,38.0,61.0,-3.0,-40.0,-3.0,-17.0,0.0
10.0,-13.0,2.0,47.0,46.0,51.0,-13.0,-32.0,-2.0,-23.0,0.0
2.0,-15.0,-15.0,38.0,46.0,41.0,-12.0,-29.0,-11.0,-30.0,0.0
0.0,-8.0,-23.0,27.0,25.0,18.0,-6.0,-16.0,-18.0,-17.0,0.0
0.0,1.0,-16.0,18.0,-8.0,-13.0,-8.0,-13.0,-4.0,1.0,0.0
2.0,0.0,-18.0,-11.0,-18.0,-28.0,0.0,-28.0,4.0,7.0,0.0
-1.0,-12.0,-23.0,-52.0,-14.0,-13.0,21.0,-21.0,5.0,-5.0,0.0
-1.0,-8.0,-22.0,-59.0,-7.0,4.0,12.0,-15.0,-3.0,-5.0,0.0
5.0,-6.0,-20.0,-54.0,-3.0,6.0,4.0,-5.0,-3.0,3.0,0.0
-1.0,-9.0,-6.0,-48.0,-3.0,11.0,-3.0,-3.0,-11.0,5.0,0.0
-6.0,-15.0,2.0,-37.0,-17.0,6.0,-12.0,-12.0,-4.0,1.0,0.0
9.0,9.0,7.0,-18.0,-27.0,-15.0,-22.0,-8.0,6.0,16.0,0.0
29.0,30.0,15.0,-2.0,-12.0,-30.0,-19.0,-2.0,11.0,25.0,0.0
24.0,20.0,20.0,1.0,1.0,-14.0,-33.0,-9.0,0.0,21.0,0.0
13.0,12.0,9.0,6.0,4.0,24.0,-41.0,-18.0,-2.0,0.0,0.0
8.0,3.0,-4.0,9.0,20.0,46.0,-43.0,-21.0,4.0,0.0,0.0
7.0,8.0,-3.0,20.0,35.0,53.0,-34.0,-18.0,2.0,-3.0,0.0
6.0,5.0,0.0,26.0,34.0,48.0,-24.0,-12.0,-5.0,-7.0,0.0
-2.0,3.0,2.0,19.0,20.0,44.0,-20.0,-18.0,3.0,0.0,0.0
5.0,7.0,7.0,15.0,10.0,27.0,-4.0,-16.0,9.0,14.0,0.0
6.0,1.0,8.0,-9.0,7.0,14.0,-5.0,-11.0,5.0,24.0,0.0
13.0,1.0,5.0,4.0,-2.0,-15.0,-8.0,-13.0,-1.0,24.0,0.0
23.0,2.0,-2.0,13.0,-5.0,-38.0,-10.0,-23.0,-8.0,23.0,0.0
25.0,3.0,-1.0,-4.0,2.0,-61.0,-10.0,-21.0,4.0,26.0,0.0
5.0,-1.0,6.0,-9.0,11.0,-45.0,-8.0,-25.0,4.0,8.0,0.0
-4.0,-5.0,4.0,-2.0,2.0,-30.0,14.0,-15.0,5.0,10.0,0.0
4.0,0.0,-6.0,-4.0,-1.0,-20.0,18.0,-10.0,8.0,11.0,0.0
15.0,4.0,0.0,-3.0,6.0,-30.0,9.0,-16.0,15.0,8.0,0.0
10.0,0.0,9.0,9.0,15.0,-9.0,11.0,-5.0,19.0,2.0,0.0
13.0,-15.0,10.0,26.0,14.0,9.0,4.0,-6.0,10.0,-11.0,0.0
12.0,-18.0,-3.0,36.0,26.0,27.0,2.0,-25.0,-1.0,-10.0,0.0
7.0,-18.0,-8.0,33.0,34.0,49.0,6.0,-16.0,-3.0,-11.0,0.0
5.0,-14.0,3.0,15.0,34.0,52.0,19.0,-12.0,1.0,-5.0,0.0
-4.0,-5.0,2.0,2.0,37.0,57.0,12.0,-8.0,-4.0,-9.0,0.0
-11.0,-15.0,-15.0,1.0,45.0,70.0,5.0,-16.0,-14.0,-16.0,0.0
-6.0,-36.0,-34.0,-9.0,62.0,60.0,3.0,-15.0,-17.0,-32.0,0.0
4.0,-28.0,-22.0,-3.0,54.0,30.0,-1.0,-10.0,-4.0,-32.0,0.0
33.0,-5.0,12.0,-1.0,27.0,-22.0,-11.0,-6.0,3.0,-14.0,0.0
39.0,7.0,15.0,-14.0,-10.0,-72.0,-27.0,7.0,9.0,2.0,0.0
33.0,6.0,-9.0,-43.0,-42.0,-76.0,-18.0,9.0,8.0,10.0,0.0
29.0,-6.0,-25.0,-74.0,-52.0,-52.0,-5.0,19.0,9.0,6.0,0.0
38.0,-11.0,-19.0,-55.0,-37.0,-30.0,-4.0,20.0,1.0,12.0,0.0
38.0,-9.0,-20.0,-34.0,-16.0,-27.0,-3.0,10.0,-20.0,7.0,0.0
11.0,-22.0,-31.0,-34.0,23.0,-5.0,24.0,9.0,-32.0,-1.0,0.0
-6.0,-34.0,-25.0,-11.0,47.0,24.0,39.0,-12.0,-33.0,-14.0,0.0
-4.0,-26.0,-14.0,25.0,45.0,42.0,33.0,-9.0,-27.0,-18.0,0.0
-6.0,-20.0,-2.0,45.0,11.0,31.0,21.0,7.0,-7.0,-15.0,0.0
-1.0,-14.0,4.0,48.0,-17.0,13.0,10.0,12.0,0.0,-3.0,0.0
-1.0,-21.0,0.0,28.0,-33.0,18.0,17.0,7.0,-4.0,-8.0,0.0
17.0,0.0,10.0,30.0,-45.0,11.0,6.0,0.0,3.0,-12.0,0.0
19.0,21.0,15.0,36.0,-27.0,7.0,7.0,-15.0,2.0,2.0,0.0
6.0,14.0,5.0,38.0,-5.0,10.0,4.0,-24.0,-3.0,9.0,0.0
4.0,8.0,-3.0,28.0,11.0,-3.0,-7.0,-25.0,-7.0,10.0,0.0
1.0,-1.0,-16.0,14.0,39.0,0.0,-11.0,-30.0,-11.0,-14.0,0.0
-15.0,-12.0,-40.0,-5.0,70.0,18.0,1.0,-20.0,-21.0,-21.0,0.0
-11.0,-13.0,-40.0,0.0,59.0,-17.0,4.0,-22.0,-15.0,-15.0,0.0
2.0,9.0,-3.0,9.0,16.0,-73.0,-29.0,-24.0,-6.0,-2.0,0.0
17.0,32.0,16.0,10.0,-45.0,-72.0,-16.0,3.0,6.0,7.0,0.0
29.0,31.0,6.0,-18.0,-87.0,-70.0,16.0,24.0,28.0,8.0,0.0
25.0,7.0,-18.0,-57.0,-100.0,-60.0,26.0,24.0,34.0,11.0,0.0
29.0,6.0,-21.0,-52.0,-79.0,-61.0,25.0,26.0,31.0,18.0,0.0
22.0,6.0,-17.0,-22.0,-20.0,-30.0,14.0,13.0,9.0,11.0,0.0
10.0,14.0,0.0,1.0,-5.0,-11.0,0.0,-12.0,-13.0,4.0,0.0
10.0,21.0,16.0,23.0,-22.0,-8.0,-7.0,-31.0,-17.0,3.0,0.0
18.0,18.0,16.0,24.0,-40.0,-10.0,-14.0,-37.0,-14.0,-1.0,0.0
13.0,2.0,12.0,0.0,-47.0,17.0,-15.0,-35.0,-2.0,-20.0,0.0
5.0,0.0,10.0,-27.0,-60.0,27.0,6.0,-21.0,6.0,-13.0,0.0
4.0,5.0,10.0,-27.0,-47.0,15.0,15.0,-10.0,13.0,-11.0,0.0
16.0,0.0,4.0,-32.0,-36.0,3.0,12.0,-6.0,19.0,-13.0,0.0
16.0,7.0,1.0,-32.0,-31.0,-10.0,8.0,-10.0,15.0,-12.0,0.0
8.0,12.0,-5.0,-42.0,-27.0,-28.0,20.0,-3.0,25.0,-7.0,0.0
5.0,14.0,6.0,-46.0,-23.0,-34.0,26.0,13.0,35.0,-9.0,0.0
3.0,4.0,5.0,-31.0,-10.0,-49.0,14.0,29.0,40.0,-20.0,0.0
8.0,1.0,8.0,-15.0,-18.0,-56.0,11.0,23.0,32.0,-13.0,0.0
15.0,11.0,-1.0,-12.0,-18.0,-61.0,2.0,3.0,29.0,-11.0,0.0
21.0,30.0,8.0,-11.0,-18.0,-78.0,-13.0,-25.0,5.0,-16.0,0.0
18.0,33.0,11.0,0.0,-2.0,-55.0,-13.0,-33.0,0.0,-19.0,0.0
17.0,17.0,2.0,3.0,0.0,-20.0,-6.0,-22.0,-2.0,-10.0,0.0
10.0,23.0,10.0,23.0,0.0,-23.0,-10.0,-9.0,-8.0,-4.0,0.0
-1.0,31.0,10.0,32.0,0.0,0.0,-9.0,2.0,0.0,-6.0,0.0
-7.0,7.0,6.0,22.0,-1.0,31.0,4.0,6.0,-3.0,-15.0,0.0
-15.0,4.0,10.0,23.0,-2.0,40.0,14.0,18.0,-5.0,-20.0,0.0
-23.0,1.0,1.0,13.0,4.0,51.0,22.0,39.0,7.0,-23.0,0.0
-14.0,0.0,6.0,0.0,7.0,55.0,29.0,52.0,8.0,-17.0,0.0
-7.0,-1.0,25.0,4.0,-2.0,34.0,15.0,55.0,6.0,-7.0,0.0
-8.0,4.0,26.0,13.0,-6.0,3.0,3.0,44.0,26.0,-4.0,0.0
-6.0,0.0,3.0,6.0,-16.0,-10.0,7.0,28.0,27.0,-3.0,0.0
-19.0,-13.0,-1.0,-4.0,1.0,-3.0,9.0,33.0,12.0,0.0,0.0
-26.0,-16.0,-4.0,-14.0,16.0,-3.0,5.0,37.0,8.0,0.0,0.0
-25.0,-10.0,-22.0,-30.0,18.0,-4.0,2.0,30.0,2.0,-10.0,0.0
-5.0,7.0,-3.0,-9.0,9.0,-26.0,-11.0,13.0,-6.0,-4.0,0.0
18.0,27.0,16.0,7.0,-7.0,-53.0,-26.0,0.0,-14.0,13.0,0.0
19.0,17.0,7.0,-18.0,-20.0,-40.0,-33.0,3.0,-27.0,11.0,0.0
26.0,27.0,18.0,-21.0,-28.0,-43.0,-29.0,11.0,-20.0,20.0,0.0
24.0,31.0,19.0,3.0,-26.0,-64.0,-35.0,0.0,-30.0,34.0,0.0
8.0,18.0,19.0,12.0,-15.0,-43.0,-26.0,-19.0,-25.0,20.0,0.0
1.0,7.0,0.0,17.0,3.0,-5.0,-28.0,-13.0,-18.0,6.0,0.0
-8.0,3.0,-1.0,16.0,12.0,18.0,-27.0,-17.0,-19.0,5.0,0.0
-13.0,0.0,2.0,13.0,11.0,27.0,-26.0,-21.0,-17.0,3.0,0.0
-21.0,-9.0,2.0,3.0,13.0,58.0,-23.0,-22.0,-22.0,-12.0,0.0
-26.0,-16.0,2.0,-5.0,7.0,67.0,-11.0,-15.0,-24.0,-12.0,0.0
-30.0,-18.0,-7.0,-9.0,0.0,58.0,-3.0,-14.0,-26.0,-7.0,0.0
-31.0,-14.0,-14.0,-25.0,-11.0,26.0,3.0,1.0,-24.0,3.0,0.0
-17.0,-6.0,-20.0,-35.0,-34.0,1.0,9.0,25.0,-11.0,14.0,0.0
-3.0,-1.0,-14.0,-18.0,-45.0,-18.0,15.0,31.0,11.0,20.0,0.0
3.0,-2.0,-12.0,-21.0,-49.0,-39.0,3.0,28.0,16.0,23.0,0.0
-6.0,-7.0,-20.0,-23.0,-51.0,-59.0,14.0,30.0,14.0,17.0,0.0
-7.0,-7.0,-23.0,-22.0,-34.0,-44.0,18.0,16.0,12.0,9.0,0.0
-19.0,-17.0,-22.0,-33.0,-11.0,-12.0,14.0,12.0,-1.0,-2.0,0.0
-29.0,-24.0,-26.0,-38.0,4.0,1.0,10.0,8.0,-9.0,1.0,0.0
-31.0,-23.0,-18.0,-13.0,4.0,0.0,-3.0,1.0,-9.0,-2.0,0.0
-32.0,-11.0,0.0,11.0,6.0,-10.0,-15.0,3.0,-8.0,-6.0,0.0
-15.0,-9.0,2.0,8.0,5.0,9.0,0.0,3.0,3.0,1.0,0.0
0.0,-15.0,-1.0,0.0,-5.0,32.0,-3.0,7.0,4.0,11.0,0.0
2.0,-10.0,-1.0,-8.0,0.0,27.0,-18.0,-5.0,-4.0,21.0,0.0
0.0,-1.0,10.0,-9.0,20.0,18.0,-35.0,-28.0,-7.0,23.0,0.0
-1.0,-11.0,9.0,1.0,2.0,25.0,-31.0,-39.0,-18.0,13.0,0.0
-10.0,-16.0,7.0,-5.0,5.0,31.0,-19.0,-38.0,-8.0,1.0,0.0
-13.0,-11.0,1.0,-18.0,8.0,28.0,-9.0,-27.0,1.0,4.0,0.0
-3.0,0.0,1.0,-26.0,-8.0,-1.0,-5.0,-16.0,-2.0,-1.0,0.0
-1.0,6.0,0.0,-38.0,-8.0,-30.0,-5.0,-22.0,-11.0,0.0,0.0
4.0,5.0,-11.0,-41.0,-6.0,-29.0,8.0,-9.0,-2.0,10.0,0.0
5.0,0.0,-16.0,-49.0,-1.0,-35.0,9.0,9.0,5.0,5.0,0.0
-6.0,0.0,-27.0,-45.0,9.0,-33.0,6.0,22.0,8.0,-6.0,0.0
-10.0,-11.0,-13.0,-46.0,0.0,-33.0,13.0,15.0,17.0,-3.0,0.0
-5.0,-9.0,-10.0,-40.0,-16.0,-35.0,10.0,-8.0,12.0,-5.0,0.0
-2.0,-5.0,0.0,-27.0,-11.0,-27.0,10.0,-22.0,14.0,-16.0,0.0
7.0,0.0,10.0,-21.0,-1.0,-22.0,3.0,-31.0,5.0,-24.0,0.0
12.0,13.0,11.0,-5.0,3.0,-6.0,6.0,-23.0,4.0,-14.0,0.0
0.0,3.0,6.0,18.0,12.0,11.0,22.0,-15.0,5.0,-12.0,0.0
-20.0,-6.0,7.0,11.0,17.0,40.0,21.0,-20.0,2.0,-19.0,0.0
-32.0,-3.0,9.0,14.0,29.0,54.0,12.0,-14.0,-7.0,-18.0,0.0
-29.0,0.0,4.0,26.0,36.0,52.0,-8.0,-13.0,-25.0,-15.0,0.0
-20.0,-7.0,10.0,52.0,52.0,46.0,-14.0,-31.0,-30.0,-9.0,0.0
-3.0,-7.0,14.0,58.0,47.0,36.0,-3.0,-34.0,-16.0,-1.0,0.0
2.0,0.0,13.0,43.0,41.0,28.0,-9.0,-39.0,-13.0,0.0,0.0
8.0,-4.0,19.0,42.0,31.0,19.0,-11.0,-45.0,-14.0,-8.0,0.0
11.0,-7.0,23.0,34.0,0.0,18.0,-5.0,-30.0,-13.0,-13.0,0.0
18.0,-13.0,9.0,0.0,-47.0,-3.0,9.0,-21.0,-8.0,-3.0,0.0
11.0,-15.0,-2.0,-5.0,-45.0,-9.0,22.0,-21.0,0.0,6.0,0.0
20.0,-13.0,1.0,-13.0,-25.0,-23.0,19.0,-27.0,14.0,9.0,0.0
28.0,-1.0,0.0,-27.0,-13.0,-32.0,18.0,-24.0,22.0,32.0,0.0
20.0,-1.0,3.0,-10.0,-5.0,-19.0,23.0,-16.0,12.0,28.0,0.0
16.0,-5.0,11.0,6.0,-21.0,-12.0,11.0,3.0,16.0,24.0,0.0
23.0,1.0,8.0,19.0,-40.0,-26.0,-2.0,9.0,21.0,25.0,0.0
27.0,4.0,1.0,25.0,-15.0,-8.0,-9.0,11.0,15.0,27.0,0.0
17.0,4.0,-2.0,34.0,15.0,25.0,-4.0,4.0,22.0,25.0,0.0
-1.0,-7.0,1.0,33.0,31.0,57.0,-2.0,-2.0,15.0,15.0,0.0
-6.0,-25.0,4.0,24.0,21.0,68.0,6.0,-7.0,10.0,0.0,0.0
11.0,-8.0,6.0,37.0,4.0,58.0,8.0,-6.0,14.0,6.0,0.0
25.0,5.0,-7.0,26.0,-12.0,45.0,9.0,-3.0,20.0,20.0,0.0
25.0,12.0,0.0,7.0,-21.0,18.0,-2.0,0.0,29.0,28.0,0.0
24.0,17.0,15.0,0.0,-20.0,-6.0,-10.0,6.0,20.0,23.0,0.0
13.0,19.0,11.0,0.0,-12.0,-26.0,1.0,1.0,14.0,23.0,0.0
12.0,11.0,2.0,-12.0,-12.0,-32.0,8.0,-6.0,21.0,24.0,0.0
21.0,3.0,-11.0,-16.0,-22.0,-29.0,9.0,-4.0,20.0,25.0,0.0
21.0,14.0,-9.0,-39.0,-12.0,-38.0,17.0,-6.0,12.0,26.0,0.0
5.0,5.0,-7.0,-53.0,-13.0,-29.0,12.0,-1.0,20.0,14.0,0.0
-9.0,2.0,-3.0,-37.0,-17.0,-28.0,17.0,9.0,22.0,2.0,0.0
-4.0,1.0,-4.0,-35.0,-6.0,-29.0,10.0,8.0,15.0,1.0,0.0
7.0,0.0,-12.0,-19.0,3.0,-16.0,-1.0,-2.0,8.0,0.0,0.0
7.0,2.0,-13.0,-25.0,10.0,-6.0,2.0,-9.0,0.0,-9.0,0.0
0.0,4.0,-11.0,-16.0,24.0,21.0,3.0,-4.0,-1.0,-9.0,0.0
-16.0,-7.0,-8.0,4.0,33.0,38.0,2.0,0.0,3.0,-14.0,0.0
-22.0,-15.0,-19.0,12.0,42.0,54.0,7.0,-9.0,-3.0,-37.0,0.0
-16.0,-12.0,-20.0,29.0,48.0,63.0,1.0,-16.0,-3.0,-34.0,0.0
-17.0,-4.0,8.0,46.0,53.0,59.0,-12.0,-27.0,1.0,-40.0,0.0
-28.0,-2.0,5.0,33.0,55.0,38.0,-17.0,-20.0,6.0,-33.0,0.0
-28.0,-3.0,-11.0,5.0,37.0,28.0,-12.0,-1.0,5.0,-26.0,0.0
-30.0,-15.0,-26.0,-9.0,24.0,42.0,10.0,3.0,-5.0,-31.0,0.0
-24.0,3.0,-30.0,-18.0,4.0,35.0,0.0,-3.0,-4.0,-12.0,0.0
-4.0,34.0,-26.0,-33.0,-24.0,-39.0,-26.0,14.0,18.0,13.0,0.0
9.0,24.0,-29.0,-48.0,-39.0,-78.0,-13.0,31.0,33.0,17.0,0.0
17.0,23.0,-13.0,-62.0,-48.0,-75.0,-4.0,42.0,34.0,25.0,0.0
14.0,17.0,-14.0,-65.0,-52.0,-73.0,5.0,45.0,29.0,17.0,0.0
10.0,8.0,-15.0,-60.0,-39.0,-48.0,15.0,38.0,26.0,7.0,0.0
3.0,10.0,0.0,-37.0,-16.0,-30.0,9.0,29.0,21.0,0.0,0.0
-8.0,3.0,3.0,-10.0,-4.0,-6.0,2.0,10.0,11.0,0.0,0.0
-22.0,1.0,-3.0,9.0,10.0,20.0,-1.0,4.0,14.0,3.0,0.0
-21.0,0.0,-4.0,21.0,19.0,33.0,7.0,13.0,10.0,-4.0,0.0
-7.0,6.0,0.0,38.0,17.0,50.0,5.0,13.0,2.0,-2.0,0.0
-8.0,0.0,-1.0,45.0,18.0,64.0,9.0,-5.0,-15.0,-19.0,0.0
-13.0,-4.0,-4.0,46.0,11.0,63.0,11.0,-13.0,-23.0,-32.0,0.0
-16.0,-21.0,-20.0,20.0,5.0,60.0,23.0,-1.0,-25.0,-35.0,0.0
-25.0,-29.0,-32.0,27.0,0.0,45.0,16.0,2.0,-20.0,-40.0,0.0
-15.0,3.0,-9.0,49.0,10.0,1.0,-8.0,-11.0,-2.0,-14.0,0.0
11.0,20.0,19.0,46.0,15.0,-36.0,-27.0,-32.0,-9.0,1.0,0.0
7.0,20.0,22.0,32.0,3.0,-35.0,-18.0,-39.0,-11.0,6.0,0.0
0.0,18.0,16.0,13.0,-1.0,-48.0,-7.0,-16.0,1.0,8.0,0.0
-1.0,16.0,3.0,-4.0,-9.0,-51.0,-8.0,-5.0,13.0,11.0,0.0
-8.0,5.0,-6.0,-29.0,-2.0,-41.0,-6.0,-3.0,10.0,3.0,0.0
-8.0,-2.0,2.0,-22.0,-11.0,-48.0,-5.0,6.0,12.0,10.0,0.0
2.0,5.0,5.0,-7.0,-22.0,-53.0,-6.0,13.0,19.0,21.0,0.0
1.0,9.0,8.0,6.0,-15.0,-46.0,-4.0,18.0,17.0,20.0,0.0
1.0,-2.0,14.0,0.0,9.0,-17.0,2.0,21.0,16.0,11.0,0.0
-3.0,-23.0,-6.0,7.0,55.0,10.0,2.0,10.0,7.0,-1.0,0.0
-26.0,-30.0,-14.0,40.0,105.0,51.0,-8.0,-11.0,-5.0,-21.0,0.0
-38.0,-28.0,-6.0,67.0,125.0,66.0,-8.0,-39.0,-17.0,-34.0,0.0
-25.0,1.0,26.0,81.0,91.0,55.0,-4.0,-42.0,-22.0,-25.0,0.0
0.0,23.0,43.0,74.0,24.0,39.0,0.0,-22.0,-10.0,-6.0,0.0
-6.0,4.0,0.0,5.0,-28.0,45.0,19.0,21.0,8.0,9.0,0.0
-8.0,0.0,-21.0,-29.0,-58.0,39.0,32.0,41.0,15.0,16.0,0.0
9.0,7.0,3.0,-5.0,-48.0,2.0,20.0,23.0,16.0,21.0,0.0
19.0,5.0,22.0,-9.0,-38.0,-15.0,21.0,13.0,19.0,16.0,0.0
16.0,9.0,11.0,-10.0,-42.0,-20.0,35.0,19.0,15.0,14.0,0.0
14.0,14.0,13.0,0.0,-18.0,-48.0,25.0,12.0,13.0,20.0,0.0
10.0,15.0,21.0,5.0,-11.0,-61.0,19.0,1.0,11.0,17.0,0.0
9.0,10.0,18.0,5.0,-18.0,-54.0,17.0,-6.0,9.0,12.0,0.0
7.0,10.0,1.0,8.0,-11.0,-43.0,15.0,0.0,4.0,4.0,0.0
7.0,4.0,6.0,13.0,0.0,-19.0,18.0,6.0,4.0,3.0,0.0
0.0,8.0,7.0,8.0,26.0,14.0,24.0,15.0,5.0,-7.0,0.0
-18.0,-9.0,-17.0,15.0,36.0,51.0,32.0,11.0,-13.0,-23.0,0.0
-26.0,-22.0,-9.0,39.0,51.0,51.0,23.0,-3.0,-26.0,-37.0,0.0
-25.0,-11.0,8.0,59.0,39.0,42.0,-9.0,-18.0,-30.0,-44.0,0.0
-6.0,2.0,26.0,62.0,7.0,30.0,-24.0,-24.0,-31.0,-33.0,0.0
9.0,16.0,35.0,43.0,-24.0,1.0,-14.0,-8.0,-12.0,-12.0,0.0
21.0,22.0,34.0,34.0,-31.0,-9.0,1.0,8.0,6.0,3.0,0.0
26.0,22.0,27.0,26.0,-18.0,-20.0,-10.0,-6.0,8.0,9.0,0.0
23.0,2.0,19.0,15.0,4.0,-20.0,-17.0,-6.0,2.0,12.0,0.0
5.0,-12.0,21.0,5.0,24.0,-8.0,-14.0,2.0,2.0,0.0,0.0
-5.0,-10.0,28.0,7.0,23.0,-10.0,-1.0,15.0,14.0,6.0,0.0
4.0,0.0,19.0,-4.0,5.0,-34.0,7.0,20.0,21.0,20.0,0.0
16.0,11.0,6.0,0.0,-14.0,-52.0,6.0,28.0,24.0,15.0,0.0
34.0,15.0,0.0,-9.0,-29.0,-75.0,3.0,31.0,38.0,25.0,0.0
38.0,20.0,9.0,-23.0,-36.0,-81.0,-1.0,6.0,40.0,36.0,0.0
32.0,25.0,23.0,-18.0,-32.0,-76.0,-24.0,-12.0,29.0,29.0,0.0
22.0,15.0,12.0,-2.0,-9.0,-56.0,-25.0,-14.0,19.0,18.0,0.0
-1.0,-15.0,-15.0,2.0,4.0,-12.0,-6.0,-11.0,14.0,4.0,0.0
-10.0,-23.0,-22.0,2.0,25.0,11.0,-3.0,-12.0,5.0,-3.0,0.0
-5.0,-10.0,2.0,22.0,37.0,7.0,-8.0,-11.0,-3.0,-17.0,0.0
0.0,-7.0,23.0,35.0,30.0,31.0,-4.0,-11.0,-3.0,-17.0,0.0
5.0,-4.0,26.0,48.0,16.0,33.0,-17.0,-24.0,-15.0,0.0,0.0
4.0,-2.0,19.0,32.0,-2.0,33.0,-14.0,-10.0,-12.0,1.0,0.0
-3.0,-6.0,-6.0,4.0,-15.0,57.0,21.0,16.0,-4.0,-15.0,0.0
-12.0,-9.0,8.0,-2.0,-16.0,57.0,39.0,6.0,-4.0,-25.0,0.0
-16.0,-1.0,14.0,4.0,-2.0,37.0,17.0,5.0,0.0,-28.0,0.0
-18.0,2.0,6.0,9.0,-2.0,10.0,0.0,3.0,1.0,-25.0,0.0
-15.0,1.0,10.0,-2.0,-10.0,-9.0,0.0,0.0,5.0,-17.0,0.0
-21.0,-6.0,-14.0,-27.0,-3.0,-8.0,15.0,23.0,9.0,-13.0,0.0
-27.0,-14.0,-37.0,-36.0,16.0,18.0,32.0,35.0,6.0,-17.0,0.0
-22.0,-14.0,-33.0,-40.0,26.0,21.0,26.0,20.0,3.0,-25.0,0.0
-9.0,10.0,-19.0,-34.0,-1.0,4.0,11.0,15.0,1.0,-22.0,0.0
2.0,21.0,-1.0,-44.0,-24.0,-7.0,12.0,10.0,-16.0,-7.0,0.0
8.0,10.0,10.0,-52.0,-28.0,-34.0,-1.0,18.0,-17.0,-5.0,0.0
2.0,5.0,9.0,-31.0,-28.0,-36.0,0.0,24.0,-5.0,3.0,0.0
-1.0,10.0,7.0,-2.0,-19.0,-2.0,-7.0,19.0,-6.0,9.0,0.0
-10.0,3.0,7.0,6.0,0.0,33.0,-17.0,17.0,-14.0,9.0,0.0
-23.0,-11.0,0.0,8.0,7.0,59.0,-17.0,9.0,-24.0,2.0,0.0
-24.0,-9.0,5.0,23.0,11.0,58.0,-11.0,23.0,-22.0,-2.0,0.0
-27.0,-10.0,4.0,21.0,13.0,66.0,-6.0,28.0,-18.0,-8.0,0.0
-14.0,-3.0,4.0,11.0,14.0,70.0,-9.0,15.0,-23.0,-17.0,0.0
-10.0,5.0,-5.0,-1.0,12.0,54.0,-10.0,11.0,-29.0,-5.0,0.0
-3.0,10.0,-1.0,-5.0,12.0,30.0,-15.0,21.0,-15.0,-3.0,0.0
0.0,17.0,0.0,-7.0,8.0,7.0,-20.0,32.0,-5.0,-7.0,0.0
1.0,17.0,-7.0,-15.0,0.0,0.0,-13.0,49.0,3.0,-4.0,0.0
8.0,13.0,-12.0,-8.0,-12.0,-7.0,-8.0,42.0,7.0,-1.0,0.0
2.0,18.0,-8.0,-16.0,-11.0,-19.0,-4.0,49.0,5.0,0.0,0.0
4.0,27.0,-1.0,-27.0,-9.0,-28.0,-2.0,56.0,17.0,0.0,0.0
8.0,24.0,-3.0,-47.0,-8.0,-22.0,6.0,49.0,22.0,1.0,0.0
4.0,4.0,0.0,-56.0,-3.0,0.0,5.0,45.0,7.0,0.0,0.0
-8.0,-12.0,3.0,-49.0,3.0,25.0,5.0,37.0,-3.0,-15.0,0.0
-20.0,-15.0,-7.0,-37.0,16.0,49.0,-3.0,22.0,-8.0,-5.0,0.0
-19.0,-22.0,-6.0,-23.0,18.0,56.0,-15.0,16.0,-19.0,-3.0,0.0
-8.0,-18.0,2.0,-4.0,19.0,48.0,-22.0,30.0,-7.0,3.0,0.0
16.0,-2.0,23.0,36.0,17.0,17.0,-24.0,39.0,3.0,10.0,0.0
9.0,6.0,34.0,55.0,28.0,24.0,-36.0,24.0,-3.0,8.0,0.0
-1.0,-7.0,17.0,50.0,39.0,40.0,-45.0,10.0,-14.0,-6.0,0.0
-8.0,-16.0,-5.0,45.0,34.0,42.0,-32.0,14.0,-25.0,-15.0,0.0
-2.0,-7.0,9.0,45.0,9.0,33.0,-24.0,9.0,-22.0,-18.0,0.0
7.0,-2.0,21.0,35.0,-10.0,13.0,-13.0,7.0,-17.0,-4.0,0.0
3.0,-15.0,9.0,-17.0,-36.0,10.0,-12.0,12.0,-7.0,7.0,0.0
-11.0,-32.0,-6.0,-63.0,-53.0,-6.0,4.0,19.0,0.0,18.0,0.0
0.0,-21.0,-10.0,-65.0,-54.0,-44.0,6.0,18.0,17.0,15.0,0.0
16.0,-4.0,2.0,-51.0,-43.0,-43.0,1.0,7.0,18.0,10.0,0.0
6.0,-1.0,5.0,-44.0,-41.0,-36.0,-8.0,8.0,9.0,21.0,0.0
-6.0,-5.0,-4.0,-40.0,-34.0,-20.0,-15.0,2.0,5.0,22.0,0.0
-11.0,-4.0,-3.0,-37.0,-19.0,0.0,-10.0,-15.0,0.0,2.0,0.0
-10.0,-5.0,16.0,-21.0,-15.0,7.0,-8.0,-29.0,-5.0,-13.0,0.0
-12.0,-13.0,11.0,-6.0,-12.0,20.0,-18.0,-34.0,-12.0,-1.0,0.0
-21.0,-23.0,9.0,22.0,4.0,40.0,-9.0,-30.0,-20.0,-12.0,0.0
-14.0,-26.0,2.0,44.0,12.0,64.0,-8.0,-37.0,-26.0,-28.0,0.0
-5.0,-31.0,1.0,45.0,26.0,83.0,-10.0,-46.0,-26.0,-36.0,0.0
-6.0,-29.0,3.0,46.0,32.0,83.0,-15.0,-56.0,-10.0,-44.0,0.0
-7.0,-10.0,0.0,41.0,19.0,64.0,-28.0,-53.0,-21.0,-19.0,0.0
-7.0,-3.0,0.0,26.0,0.0,52.0,-29.0,-39.0,-17.0,4.0,0.0
1.0,-10.0,-8.0,9.0,-9.0,32.0,-18.0,-18.0,-14.0,3.0,0.0
6.0,-19.0,-13.0,-3.0,-10.0,5.0,-19.0,-22.0,-16.0,9.0,0.0
9.0,-15.0,-11.0,-6.0,-5.0,-15.0,-18.0,-21.0,-12.0,17.0,0.0
0.0,-14.0,-18.0,-24.0,-17.0,-25.0,-15.0,-12.0,-11.0,14.0,0.0
-8.0,-4.0,-21.0,-31.0,-22.0,-37.0,4.0,-4.0,-14.0,0.0,0.0
-20.0,-16.0,-38.0,-27.0,-3.0,-3.0,24.0,14.0,-11.0,-8.0,0.0
-14.0,-23.0,-36.0,-24.0,10.0,12.0,22.0,17.0,-11.0,-6.0,0.0
5.0,-13.0,-23.0,-5.0,-4.0,-18.0,-6.0,13.0,-9.0,0.0,0.0
17.0,3.0,-13.0,20.0,-23.0,-18.0,-21.0,11.0,-4.0,17.0,0.0
18.0,9.0,0.0,26.0,-26.0,-2.0,-11.0,7.0,-5.0,19.0,0.0
4.0,3.0,-1.0,20.0,-7.0,25.0,3.0,22.0,-9.0,1.0,0.0
-10.0,-10.0,-2.0,21.0,-6.0,40.0,-3.0,17.0,-20.0,-3.0,0.0
-10.0,-4.0,0.0,26.0,-6.0,45.0,-13.0,6.0,-28.0,-3.0,0.0
-6.0,2.0,5.0,33.0,-4.0,53.0,-17.0,-4.0,-27.0,1.0,0.0
-12.0,-4.0,13.0,27.0,11.0,60.0,-13.0,0.0,-26.0,-2.0,0.0
-17.0,-16.0,7.0,22.0,27.0,55.0,0.0,5.0,-23.0,-3.0,0.0
-16.0,-21.0,-2.0,30.0,31.0,49.0,-8.0,1.0,-30.0,0.0,0.0
-8.0,-13.0,15.0,38.0,35.0,18.0,-26.0,-9.0,-26.0,0.0,0.0
-2.0,0.0,21.0,24.0,25.0,-9.0,-33.0,-4.0,-15.0,8.0,0.0
6.0,12.0,15.0,-14.0,-8.0,-34.0,-13.0,8.0,0.0,13.0,0.0
25.0,25.0,4.0,-25.0,-25.0,-37.0,12.0,25.0,13.0,21.0,0.0
39.0,33.0,25.0,-16.0,-36.0,-55.0,0.0,31.0,19.0,29.0,0.0
45.0,30.0,28.0,-21.0,-46.0,-82.0,-13.0,32.0,14.0,28.0,0.0
42.0,35.0,19.0,-34.0,-41.0,-70.0,-7.0,38.0,14.0,26.0,0.0
22.0,27.0,13.0,-15.0,-24.0,-37.0,-1.0,31.0,12.0,15.0,0.0
3.0,21.0,6.0,3.0,-8.0,-10.0,-1.0,14.0,-7.0,-6.0,0.0
0.0,13.0,-3.0,9.0,-2.0,2.0,-5.0,2.0,-13.0,-10.0,0.0
-6.0,4.0,3.0,28.0,5.0,13.0,-10.0,6.0,-2.0,4.0,0.0
0.0,0.0,16.0,48.0,10.0,29.0,-11.0,-8.0,2.0,-2.0,0.0
11.0,-7.0,11.0,57.0,14.0,38.0,-14.0,-8.0,0.0,-5.0,0.0
14.0,1.0,4.0,42.0,10.0,33.0,-4.0,-4.0,-6.0,4.0,0.0
18.0,1.0,5.0,37.0,10.0,29.0,-7.0,-2.0,-5.0,15.0,0.0
0.0,-4.0,0.0,30.0,14.0,29.0,-1.0,-5.0,3.0,17.0,0.0
-16.0,-13.0,-10.0,14.0,7.0,21.0,1.0,0.0,16.0,8.0,0.0
-9.0,2.0,-19.0,8.0,0.0,1.0,2.0,3.0,9.0,3.0,0.0
-4.0,0.0,-20.0,5.0,11.0,-18.0,-7.0,1.0,1.0,11.0,0.0
-9.0,-14.0,-33.0,10.0,23.0,-24.0,1.0,8.0,2.0,3.0,0.0
-7.0,-28.0,-32.0,0.0,23.0,-29.0,6.0,7.0,-4.0,-4.0,0.0
-10.0,-26.0,-31.0,0.0,32.0,-24.0,-2.0,-11.0,-19.0,-2.0,0.0
-10.0,-31.0,-31.0,5.0,48.0,-23.0,-6.0,-28.0,-27.0,-6.0,0.0
2.0,-15.0,-19.0,13.0,40.0,-58.0,-14.0,-22.0,-18.0,4.0,0.0
4.0,1.0,-4.0,37.0,11.0,-94.0,-15.0,-21.0,-12.0,20.0,0.0
4.0,2.0,-1.0,43.0,21.0,-77.0,-34.0,-45.0,-32.0,13.0,0.0
9.0,6.0,7.0,15.0,24.0,-35.0,-29.0,-51.0,-32.0,6.0,0.0
6.0,5.0,7.0,12.0,-6.0,-2.0,-7.0,-27.0,-30.0,4.0,0.0
-14.0,-10.0,1.0,11.0,-28.0,20.0,12.0,-4.0,-34.0,-5.0,0.0
-26.0,-26.0,-8.0,3.0,-38.0,29.0,36.0,-3.0,-30.0,-9.0,0.0
-19.0,-24.0,-16.0,-12.0,-40.0,31.0,43.0,3.0,-13.0,2.0,0.0
-24.0,-19.0,-8.0,-12.0,-26.0,38.0,53.0,6.0,0.0,5.0,0.0
-24.0,-16.0,-5.0,-9.0,-6.0,32.0,48.0,-5.0,1.0,2.0,0.0
-22.0,-13.0,0.0,-4.0,-19.0,23.0,39.0,-8.0,4.0,10.0,0.0
-23.0,-12.0,-3.0,-25.0,-23.0,8.0,43.0,1.0,12.0,13.0,0.0
-11.0,-13.0,-15.0,-46.0,-28.0,-10.0,51.0,15.0,14.0,13.0,0.0
0.0,0.0,-26.0,-38.0,-28.0,-55.0,41.0,22.0,15.0,9.0,0.0
1.0,5.0,-19.0,-24.0,-29.0,-77.0,24.0,16.0,9.0,14.0,0.0
4.0,5.0,-26.0,-14.0,-7.0,-53.0,10.0,-18.0,-11.0,8.0,0.0
9.0,1.0,-27.0,-16.0,10.0,-36.0,0.0,-40.0,-27.0,-3.0,0.0
-13.0,-6.0,-25.0,-13.0,42.0,-20.0,-9.0,-50.0,-50.0,-25.0,0.0
-21.0,0.0,-13.0,6.0,51.0,-1.0,-10.0,-55.0,-52.0,-32.0,0.0
-12.0,2.0,2.0,13.0,19.0,-10.0,-14.0,-38.0,-32.0,-8.0,0.0
-4.0,2.0,-1.0,-22.0,-20.0,2.0,-3.0,-25.0,-9.0,6.0,0.0
5.0,-2.0,1.0,-25.0,-35.0,21.0,18.0,-6.0,8.0,9.0,0.0
8.0,-7.0,14.0,-12.0,-30.0,18.0,18.0,2.0,20.0,11.0,0.0
5.0,-6.0,10.0,-8.0,-20.0,22.0,14.0,8.0,9.0,17.0,0.0
0.0,1.0,19.0,-14.0,-5.0,34.0,17.0,-18.0,0.0,2.0,0.0
2.0,13.0,24.0,-10.0,3.0,39.0,12.0,-31.0,-1.0,-3.0,0.0
12.0,11.0,30.0,-13.0,6.0,27.0,5.0,-37.0,-6.0,0.0,0.0
24.0,17.0,26.0,-16.0,10.0,0.0,-7.0,-28.0,-17.0,-7.0,0.0
23.0,22.0,24.0,-15.0,8.0,-21.0,-15.0,-25.0,-14.0,6.0,0.0
28.0,15.0,19.0,-13.0,2.0,-36.0,-20.0,-14.0,-6.0,29.0,0.0
28.0,18.0,20.0,-20.0,-1.0,-51.0,-7.0,3.0,0.0,34.0,0.0
8.0,6.0,9.0,-57.0,-3.0,-24.0,22.0,17.0,4.0,18.0,0.0
-5.0,-7.0,-24.0,-72.0,-27.0,-2.0,39.0,24.0,17.0,16.0,0.0
11.0,0.0,-15.0,-62.0,-28.0,-9.0,26.0,10.0,12.0,12.0,0.0
13.0,5.0,-11.0,-41.0,-11.0,-10.0,16.0,-4.0,2.0,4.0,0.0
-5.0,-6.0,-17.0,-29.0,9.0,9.0,11.0,-14.0,-5.0,8.0,0.0
-19.0,-17.0,-13.0,-20.0,27.0,31.0,-1.0,-27.0,-13.0,1.0,0.0
-28.0,-24.0,2.0,4.0,50.0,63.0,1.0,-43.0,-24.0,-8.0,0.0
-34.0,-10.0,14.0,34.0,63.0,69.0,-10.0,-48.0,-34.0,-17.0,0.0
-32.0,-8.0,2.0,48.0,50.0,60.0,-20.0,-47.0,-38.0,-26.0,0.0
-29.0,-17.0,-6.0,24.0,24.0,50.0,-12.0,-45.0,-28.0,-28.0,0.0
-41.0,-12.0,-11.0,2.0,-6.0,40.0,9.0,-20.0,-2.0,-16.0,0.0
-8.0,10.0,6.0,-17.0,-36.0,14.0,35.0,-10.0,27.0,7.0,0.0
27.0,38.0,2.0,-17.0,-34.0,-23.0,35.0,-10.0,36.0,16.0,0.0
36.0,35.0,-1.0,-1.0,-30.0,-45.0,25.0,-13.0,35.0,18.0,0.0
31.0,36.0,0.0,2.0,-36.0,-63.0,20.0,-11.0,35.0,15.0,0.0
26.0,30.0,10.0,-14.0,-37.0,-59.0,23.0,-13.0,29.0,12.0,0.0
21.0,22.0,8.0,-13.0,-24.0,-61.0,28.0,-14.0,25.0,18.0,0.0
20.0,18.0,-13.0,-6.0,-19.0,-46.0,39.0,-6.0,27.0,26.0,0.0
14.0,12.0,-23.0,-6.0,-8.0,-40.0,34.0,2.0,34.0,24.0,0.0
11.0,4.0,-15.0,7.0,3.0,-34.0,24.0,0.0,33.0,19.0,0.0
17.0,9.0,-15.0,14.0,5.0,-19.0,18.0,-1.0,25.0,14.0,0.0
18.0,7.0,-3.0,19.0,18.0,0.0,6.0,-10.0,21.0,14.0,0.0
9.0,1.0,-9.0,20.0,32.0,13.0,13.0,-23.0,10.0,4.0,0.0
12.0,-4.0,-2.0,33.0,37.0,24.0,13.0,-28.0,-8.0,-14.0,0.0
12.0,7.0,14.0,49.0,29.0,38.0,-5.0,-37.0,-2.0,-9.0,0.0
13.0,18.0,24.0,38.0,27.0,51.0,-14.0,-38.0,-8.0,-10.0,0.0
7.0,13.0,14.0,17.0,25.0,49.0,-6.0,-26.0,0.0,-13.0,0.0
3.0,6.0,13.0,21.0,18.0,40.0,0.0,-17.0,10.0,-8.0,0.0
7.0,0.0,3.0,21.0,17.0,35.0,6.0,-6.0,19.0,-6.0,0.0
2.0,4.0,6.0,3.0,11.0,31.0,4.0,7.0,18.0,-17.0,0.0
-6.0,17.0,14.0,-5.0,-1.0,13.0,3.0,16.0,7.0,-16.0,0.0
-2.0,22.0,12.0,-5.0,2.0,-8.0,9.0,17.0,5.0,-3.0,0.0
5.0,10.0,0.0,-25.0,12.0,-21.0,32.0,18.0,16.0,11.0,0.0
8.0,0.0,-5.0,-40.0,0.0,-24.0,42.0,18.0,16.0,17.0,0.0
12.0,12.0,14.0,-28.0,-11.0,-32.0,29.0,6.0,17.0,22.0,0.0
19.0,17.0,15.0,-8.0,-20.0,-37.0,5.0,-1.0,15.0,21.0,0.0
8.0,12.0,4.0,-16.0,-25.0,-35.0,-7.0,-7.0,3.0,8.0,0.0
7.0,12.0,6.0,-12.0,-16.0,-36.0,-22.0,-2.0,0.0,1.0,0.0
3.0,10.0,7.0,4.0,16.0,-6.0,-14.0,-4.0,-6.0,-5.0,0.0
-12.0,1.0,3.0,29.0,39.0,12.0,-15.0,-16.0,-20.0,-20.0,0.0
-20.0,0.0,5.0,39.0,44.0,35.0,-12.0,-22.0,-35.0,-15.0,0.0
-4.0,2.0,10.0,28.0,35.0,57.0,-10.0,-16.0,-28.0,-7.0,0.0
2.0,14.0,8.0,14.0,7.0,46.0,-5.0,4.0,1.0,6.0,0.0
0.0,21.0,16.0,4.0,-9.0,22.0,0.0,23.0,16.0,23.0,0.0
-2.0,19.0,23.0,2.0,1.0,20.0,3.0,36.0,22.0,19.0,0.0
-3.0,22.0,14.0,-6.0,8.0,-3.0,-11.0,27.0,20.0,19.0,0.0
0.0,21.0,-6.0,-12.0,3.0,-18.0,-14.0,23.0,18.0,33.0,0.0
0.0,10.0,-19.0,-15.0,-13.0,-24.0,-8.0,28.0,26.0,31.0,0.0
3.0,-8.0,-25.0,-27.0,-28.0,-31.0,2.0,31.0,27.0,12.0,0.0
4.0,-8.0,-29.0,-31.0,-19.0,-31.0,5.0,32.0,26.0,0.0,0.0
-8.0,-15.0,-30.0,-36.0,5.0,-31.0,3.0,29.0,23.0,1.0,0.0
-6.0,-21.0,-35.0,-38.0,21.0,-19.0,0.0,12.0,24.0,-1.0,0.0
-7.0,-28.0,-38.0,-29.0,33.0,-1.0,-1.0,5.0,17.0,5.0,0.0
-12.0,-32.0,-32.0,-14.0,44.0,10.0,-4.0,6.0,6.0,-1.0,0.0
0.0,-22.0,-12.0,4.0,31.0,-2.0,-11.0,-2.0,12.0,0.0,0.0
5.0,-8.0,6.0,30.0,10.0,2.0,-18.0,-2.0,10.0,-6.0,0.0
-7.0,-21.0,1.0,18.0,8.0,10.0,-14.0,-5.0,-1.0,-6.0,0.0
-5.0,-28.0,4.0,14.0,-3.0,-3.0,-18.0,-1.0,-3.0,-2.0,0.0
16.0,-1.0,28.0,23.0,-1.0,-30.0,-35.0,-2.0,4.0,5.0,0.0
16.0,20.0,16.0,39.0,18.0,-19.0,-38.0,-2.0,15.0,9.0,0.0
-1.0,22.0,19.0,32.0,14.0,-5.0,-33.0,-9.0,9.0,16.0,0.0
-20.0,5.0,10.0,12.0,-5.0,16.0,-11.0,-14.0,-8.0,0.0,0.0
-26.0,-7.0,-12.0,-5.0,-7.0,33.0,15.0,0.0,-8.0,-9.0,0.0
0.0,13.0,-9.0,-5.0,-12.0,5.0,-1.0,0.0,4.0,14.0,0.0
11.0,20.0,-14.0,-6.0,-19.0,-13.0,-9.0,12.0,8.0,28.0,0.0
3.0,14.0,-22.0,-24.0,-16.0,-22.0,-6.0,0.0,16.0,3.0,0.0
4.0,4.0,-13.0,-28.0,-17.0,-36.0,-2.0,-6.0,19.0,8.0,0.0
14.0,16.0,5.0,-22.0,-21.0,-68.0,-6.0,-6.0,16.0,24.0,0.0
9.0,17.0,2.0,-22.0,-17.0,-66.0,-8.0,4.0,2.0,26.0,0.0
-1.0,2.0,-16.0,-32.0,-6.0,-49.0,0.0,-2.0,-1.0,18.0,0.0
-17.0,-3.0,-7.0,-17.0,1.0,-32.0,1.0,-12.0,-7.0,16.0,0.0
-15.0,-9.0,16.0,-4.0,8.0,-12.0,-7.0,-17.0,-17.0,-4.0,0.0
-24.0,2.0,30.0,-12.0,6.0,5.0,-11.0,-25.0,-28.0,-10.0,0.0
-25.0,0.0,21.0,-27.0,22.0,34.0,-11.0,-36.0,-23.0,-7.0,0.0
-19.0,-13.0,0.0,-27.0,7.0,51.0,-3.0,-24.0,-14.0,2.0,0.0
-24.0,-19.0,5.0,-13.0,16.0,50.0,0.0,-26.0,-1.0,-2.0,0.0
-24.0,-16.0,12.0,0.0,44.0,53.0,-3.0,-22.0,10.0,-12.0,0.0
-19.0,-9.0,17.0,5.0,48.0,59.0,4.0,-17.0,7.0,-7.0,0.0
-12.0,-9.0,21.0,-2.0,29.0,35.0,15.0,-13.0,13.0,-2.0,0.0
-5.0,2.0,26.0,0.0,-1.0,-18.0,20.0,-13.0,20.0,11.0,0.0
-9.0,3.0,21.0,14.0,-5.0,-34.0,27.0,-16.0,22.0,5.0,0.0
7.0,8.0,10.0,7.0,-16.0,-42.0,15.0,-7.0,31.0,4.0,0.0
18.0,5.0,-12.0,-19.0,-21.0,-68.0,2.0,5.0,42.0,12.0,0.0
10.0,3.0,-26.0,-25.0,-6.0,-69.0,-10.0,2.0,33.0,12.0,0.0
0.0,5.0,-24.0,-17.0,-14.0,-55.0,-17.0,-12.0,17.0,0.0,0.0
2.0,0.0,-18.0,-4.0,-13.0,-32.0,-9.0,-6.0,10.0,-5.0,0.0
14.0,5.0,-7.0,0.0,-17.0,-34.0,-10.0,9.0,10.0,-6.0,0.0
16.0,4.0,-15.0,-5.0,-49.0,-35.0,-9.0,22.0,13.0,-7.0,0.0
3.0,-13.0,-32.0,-34.0,-57.0,-4.0,16.0,38.0,15.0,-18.0,0.0
-13.0,-27.0,-33.0,-20.0,-37.0,28.0,35.0,34.0,1.0,-28.0,0.0
-9.0,-18.0,-8.0,11.0,-13.0,51.0,20.0,12.0,-19.0,-43.0,0.0
11.0,4.0,-2.0,43.0,-12.0,42.0,2.0,0.0,-29.0,-39.0,0.0
4.0,3.0,-6.0,43.0,-3.0,50.0,10.0,0.0,-22.0,-34.0,0.0
-4.0,0.0,1.0,36.0,-2.0,66.0,21.0,1.0,-18.0,-34.0,0.0
-16.0,-11.0,-7.0,25.0,-13.0,62.0,30.0,12.0,-26.0,-43.0,0.0
-27.0,-18.0,-32.0,-4.0,-32.0,61.0,49.0,30.0,-21.0,-33.0,0.0
-7.0,2.0,-40.0,-10.0,-47.0,23.0,37.0,41.0,-5.0,-9.0,0.0
18.0,2.0,-23.0,-12.0,-46.0,-15.0,14.0,44.0,3.0,1.0,0.0
4.0,5.0,-17.0,-15.0,-38.0,-35.0,-1.0,36.0,4.0,0.0,0.0
-1.0,9.0,-20.0,-23.0,-42.0,-51.0,10.0,36.0,-4.0,-3.0,0.0
10.0,-6.0,-28.0,-27.0,-37.0,-30.0,26.0,34.0,-7.0,1.0,0.0
17.0,-4.0,-26.0,-6.0,-26.0,-24.0,30.0,31.0,-4.0,9.0,0.0
11.0,-2.0,-16.0,1.0,-12.0,-21.0,15.0,28.0,-4.0,12.0,0.0
8.0,-1.0,-6.0,-4.0,-4.0,-20.0,0.0,23.0,6.0,1.0,0.0
6.0,-10.0,0.0,5.0,1.0,-6.0,4.0,22.0,9.0,-6.0,0.0
-1.0,-9.0,-5.0,26.0,10.0,12.0,-2.0,17.0,-6.0,4.0,0.0
-17.0,-18.0,-13.0,33.0,25.0,27.0,-10.0,17.0,-17.0,3.0,0.0
-18.0,-29.0,-19.0,43.0,42.0,54.0,-9.0,20.0,-24.0,-5.0,0.0
-24.0,-20.0,-4.0,44.0,45.0,66.0,-12.0,3.0,-35.0,-17.0,0.0
-3.0,-3.0,5.0,46.0,37.0,56.0,-18.0,-18.0,-38.0,-19.0,0.0
0.0,9.0,15.0,56.0,20.0,39.0,-20.0,-30.0,-27.0,-4.0,0.0
-12.0,6.0,7.0,50.0,24.0,45.0,-13.0,-27.0,-13.0,-8.0,0.0
-9.0,-4.0,-22.0,21.0,27.0,34.0,0.0,-26.0,-17.0,-16.0,0.0
1.0,-10.0,-25.0,4.0,22.0,19.0,7.0,-16.0,-8.0,-23.0,0.0
0.0,-4.0,-22.0,1.0,10.0,0.0,-2.0,-9.0,0.0,-19.0,0.0
1.0,5.0,-23.0,-9.0,-10.0,-15.0,-15.0,0.0,-5.0,-20.0,0.0
19.0,27.0,-17.0,-7.0,-33.0,-45.0,-3.0,5.0,3.0,0.0,0.0
32.0,32.0,-8.0,-11.0,-41.0,-70.0,-10.0,3.0,15.0,20.0,0.0
30.0,21.0,-11.0,-19.0,-42.0,-67.0,-8.0,6.0,20.0,16.0,0.0
20.0,14.0,-13.0,-18.0,-15.0,-54.0,-8.0,11.0,9.0,15.0,0.0
8.0,16.0,-3.0,-7.0,16.0,-21.0,-1.0,15.0,8.0,13.0,0.0
6.0,2.0,-10.0,-4.0,31.0,14.0,6.0,5.0,-7.0,3.0,0.0
3.0,3.0,-14.0,21.0,37.0,25.0,-7.0,-11.0,-25.0,-12.0,0.0
-3.0,-1.0,4.0,28.0,16.0,48.0,-7.0,-13.0,-29.0,-25.0,0.0
-8.0,-14.0,5.0,10.0,-1.0,67.0,10.0,-2.0,-18.0,-32.0,0.0
1.0,-11.0,-9.0,4.0,-20.0,50.0,0.0,9.0,0.0,-24.0,0.0
6.0,-21.0,-9.0,9.0,-20.0,38.0,-18.0,21.0,12.0,-27.0,0.0
1.0,-25.0,1.0,10.0,-3.0,46.0,-15.0,19.0,19.0,-26.0,0.0
-2.0,-29.0,-6.0,14.0,29.0,34.0,-10.0,0.0,12.0,-14.0,0.0
0.0,-30.0,-18.0,12.0,44.0,7.0,-17.0,-11.0,7.0,-4.0,0.0
9.0,-31.0,-7.0,20.0,48.0,-5.0,-22.0,-10.0,11.0,-1.0,0.0
12.0,-29.0,11.0,27.0,51.0,-4.0,-18.0,-10.0,0.0,-9.0,0.0
15.0,-11.0,27.0,4.0,30.0,-15.0,-5.0,8.0,3.0,1.0,0.0
9.0,-14.0,11.0,-48.0,0.0,-6.0,22.0,25.0,16.0,8.0,0.0
16.0,-3.0,7.0,-78.0,-25.0,-11.0,30.0,32.0,27.0,19.0,0.0
30.0,17.0,22.0,-71.0,-29.0,-30.0,8.0,27.0,24.0,27.0,0.0
38.0,30.0,34.0,-36.0,-24.0,-44.0,-5.0,33.0,25.0,34.0,0.0
22.0,12.0,28.0,-45.0,-11.0,-13.0,-14.0,25.0,24.0,30.0,0.0
10.0,0.0,5.0,-50.0,-4.0,24.0,2.0,20.0,20.0,19.0,0.0
7.0,-11.0,15.0,-30.0,1.0,28.0,-1.0,25.0,17.0,10.0,0.0
1.0,-10.0,13.0,14.0,2.0,28.0,-7.0,12.0,11.0,-4.0,0.0
-3.0,-7.0,10.0,37.0,6.0,38.0,2.0,6.0,-2.0,-15.0,0.0
2.0,-9.0,10.0,32.0,5.0,32.0,5.0,6.0,-2.0,-13.0,0.0
18.0,3.0,18.0,35.0,-9.0,1.0,-4.0,20.0,3.0,1.0,0.0
25.0,4.0,31.0,33.0,-1.0,-3.0,-12.0,22.0,9.0,-2.0,0.0
19.0,-2.0,27.0,18.0,0.0,-2.0,-4.0,21.0,8.0,-1.0,0.0
20.0,3.0,26.0,6.0,-14.0,-17.0,9.0,32.0,0.0,4.0,0.0
19.0,12.0,20.0,-2.0,-20.0,-34.0,15.0,27.0,-1.0,7.0,0.0
26.0,13.0,8.0,-5.0,-19.0,-52.0,15.0,35.0,-9.0,5.0,0.0
20.0,8.0,0.0,-13.0,-27.0,-54.0,9.0,50.0,-11.0,-6.0,0.0
14.0,-13.0,-13.0,-18.0,-26.0,-49.0,5.0,53.0,-4.0,-15.0,0.0
4.0,-23.0,-28.0,-18.0,-14.0,-36.0,14.0,52.0,-2.0,-12.0,0.0
-15.0,-27.0,-21.0,-15.0,-5.0,-24.0,12.0,50.0,-3.0,-21.0,0.0
-18.0,-23.0,-16.0,-5.0,3.0,-13.0,14.0,48.0,-4.0,-28.0,0.0
-5.0,-12.0,-6.0,24.0,0.0,-36.0,11.0,38.0,-9.0,-10.0,0.0
-2.0,-8.0,12.0,28.0,3.0,-40.0,0.0,29.0,-15.0,-3.0,0.0
-10.0,-17.0,20.0,35.0,15.0,19.0,-6.0,20.0,-29.0,-15.0,0.0
-24.0,-24.0,14.0,49.0,30.0,50.0,-5.0,8.0,-33.0,-19.0,0.0
-29.0,-30.0,12.0,47.0,42.0,55.0,-14.0,-9.0,-36.0,-28.0,0.0
-20.0,-18.0,10.0,52.0,36.0,38.0,-15.0,-16.0,-29.0,-35.0,0.0
-13.0,-11.0,19.0,48.0,21.0,8.0,-13.0,-19.0,-21.0,-30.0,0.0
-4.0,-16.0,7.0,42.0,22.0,1.0,-12.0,-3.0,-18.0,-26.0,0.0
8.0,-16.0,3.0,34.0,7.0,-3.0,-17.0,7.0,-14.0,-26.0,0.0
17.0,0.0,14.0,21.0,-12.0,-25.0,-17.0,-3.0,-2.0,-9.0,0.0
16.0,0.0,6.0,-2.0,-38.0,-41.0,-9.0,-9.0,0.0,-3.0,0.0
24.0,-8.0,-6.0,-39.0,-65.0,-42.0,-7.0,8.0,6.0,13.0,0.0
28.0,-11.0,0.0,-46.0,-72.0,-58.0,-18.0,15.0,13.0,22.0,0.0
35.0,-5.0,16.0,-27.0,-61.0,-59.0,-21.0,-4.0,0.0,-1.0,0.0
22.0,4.0,18.0,-21.0,-54.0,-42.0,-22.0,-14.0,-12.0,-11.0,0.0
3.0,-8.0,1.0,-33.0,-54.0,-21.0,-6.0,-2.0,-10.0,-7.0,0.0
2.0,-18.0,-2.0,-28.0,-41.0,-9.0,6.0,-4.0,-17.0,-23.0,0.0
-6.0,-25.0,0.0,-4.0,-17.0,-3.0,0.0,0.0,-23.0,-29.0,0.0
-2.0,-11.0,9.0,4.0,-27.0,-19.0,4.0,-3.0,-12.0,-11.0,0.0
5.0,-6.0,21.0,4.0,-25.0,-20.0,4.0,-23.0,-5.0,4.0,0.0
3.0,0.0,36.0,5.0,-9.0,14.0,-11.0,-46.0,-14.0,8.0,0.0
-2.0,4.0,40.0,16.0,4.0,31.0,-11.0,-56.0,-15.0,4.0,0.0
-10.0,-7.0,32.0,12.0,-3.0,37.0,-10.0,-44.0,-10.0,3.0,0.0
-13.0,-9.0,35.0,10.0,-14.0,25.0,0.0,-30.0,6.0,8.0,0.0
-12.0,0.0,20.0,6.0,-22.0,13.0,5.0,-17.0,6.0,-3.0,0.0
-9.0,1.0,7.0,-6.0,-31.0,1.0,13.0,-4.0,8.0,6.0,0.0
2.0,7.0,-2.0,-23.0,-46.0,-20.0,27.0,12.0,28.0,7.0,0.0
11.0,8.0,-2.0,-40.0,-44.0,-37.0,38.0,22.0,35.0,14.0,0.0
5.0,0.0,2.0,-45.0,-34.0,-49.0,32.0,18.0,33.0,25.0,0.0
5.0,0.0,-2.0,-31.0,-32.0,-47.0,12.0,3.0,31.0,15.0,0.0
-2.0,9.0,5.0,-23.0,-24.0,-44.0,-3.0,-7.0,11.0,2.0,0.0
3.0,16.0,11.0,-31.0,-5.0,-36.0,-11.0,-13.0,0.0,0.0,0.0
0.0,16.0,3.0,-35.0,17.0,-22.0,-12.0,-16.0,-5.0,-11.0,0.0
-8.0,8.0,0.0,-19.0,28.0,2.0,2.0,-15.0,-10.0,-14.0,0.0
-17.0,1.0,6.0,-15.0,21.0,9.0,-11.0,-19.0,-17.0,-16.0,0.0
-18.0,11.0,10.0,-5.0,4.0,14.0,-17.0,-21.0,-28.0,-15.0,0.0
-26.0,0.0,0.0,-9.0,-7.0,40.0,-3.0,-7.0,-17.0,-19.0,0.0
-34.0,-12.0,-18.0,-20.0,-23.0,52.0,17.0,-2.0,7.0,-23.0,0.0
-26.0,-12.0,-12.0,-1.0,-24.0,49.0,12.0,-2.0,25.0,-5.0,0.0
-12.0,1.0,1.0,2.0,-9.0,39.0,1.0,2.0,21.0,6.0,0.0
-9.0,6.0,2.0,-9.0,-5.0,23.0,-3.0,-1.0,21.0,9.0,0.0
-10.0,4.0,-9.0,-33.0,-4.0,5.0,-2.0,-3.0,22.0,2.0,0.0
-3.0,1.0,-12.0,-40.0,-7.0,-7.0,0.0,0.0,26.0,5.0,0.0
5.0,1.0,-8.0,-48.0,-1.0,-16.0,-10.0,-1.0,17.0,12.0,0.0
3.0,10.0,-3.0,-47.0,2.0,-19.0,-7.0,-8.0,27.0,2.0,0.0
7.0,21.0,-5.0,-35.0,-5.0,-21.0,-4.0,-1.0,35.0,9.0,0.0
9.0,22.0,-2.0,-11.0,-19.0,-40.0,2.0,-1.0,35.0,17.0,0.0
3.0,13.0,-6.0,-12.0,-11.0,-50.0,2.0,0.0,22.0,16.0,0.0
-6.0,3.0,-16.0,-29.0,-16.0,-42.0,9.0,15.0,15.0,11.0,0.0
-11.0,-2.0,-9.0,-21.0,-19.0,-32.0,12.0,8.0,21.0,9.0,0.0
-8.0,-15.0,-6.0,-4.0,-6.0,3.0,0.0,0.0,10.0,4.0,0.0
-5.0,-22.0,-11.0,8.0,-7.0,29.0,-4.0,0.0,8.0,-3.0,0.0
-17.0,-22.0,-2.0,4.0,-4.0,48.0,-5.0,9.0,13.0,-10.0,0.0
-23.0,-21.0,4.0,24.0,10.0,40.0,-1.0,23.0,12.0,-8.0,0.0
-25.0,-9.0,16.0,28.0,11.0,40.0,-2.0,14.0,9.0,-17.0,0.0
-18.0,4.0,24.0,29.0,0.0,27.0,0.0,-6.0,11.0,-21.0,0.0
4.0,16.0,24.0,16.0,-10.0,10.0,-10.0,-13.0,13.0,-6.0,0.0
6.0,8.0,17.0,13.0,-25.0,4.0,-6.0,-1.0,18.0,-1.0,0.0
0.0,-7.0,0.0,5.0,-36.0,5.0,4.0,7.0,19.0,-5.0,0.0
-1.0,1.0,-1.0,-4.0,-36.0,-2.0,10.0,0.0,27.0,-1.0,0.0
8.0,10.0,11.0,-6.0,-29.0,-27.0,8.0,0.0,25.0,-2.0,0.0
16.0,13.0,1.0,-5.0,-33.0,-38.0,-16.0,4.0,16.0,3.0,0.0
12.0,11.0,0.0,-4.0,-40.0,-46.0,-25.0,-5.0,1.0,16.0,0.0
11.0,14.0,0.0,5.0,-32.0,-40.0,-10.0,-7.0,0.0,19.0,0.0
8.0,11.0,5.0,13.0,-22.0,-39.0,-7.0,-2.0,0.0,20.0,0.0
1.0,1.0,3.0,9.0,-2.0,-25.0,-14.0,5.0,-7.0,7.0,0.0
-2.0,-14.0,-7.0,3.0,10.0,-12.0,-11.0,15.0,-1.0,-14.0,0.0
-9.0,-20.0,-9.0,-2.0,15.0,14.0,-11.0,15.0,-7.0,-22.0,0.0
-11.0,-22.0,-3.0,14.0,33.0,24.0,-9.0,8.0,-11.0,-31.0,0.0
-20.0,-29.0,3.0,18.0,51.0,36.0,-13.0,9.0,-17.0,-27.0,0.0
-39.0,-36.0,0.0,18.0,50.0,65.0,-17.0,14.0,-26.0,-28.0,0.0
-39.0,-49.0,-7.0,28.0,38.0,99.0,2.0,13.0,-24.0,-42.0,0.0
-21.0,-37.0,-9.0,31.0,34.0,95.0,6.0,0.0,-26.0,-43.0,0.0
-6.0,-23.0,-3.0,11.0,25.0,65.0,-5.0,-2.0,-32.0,-20.0,0.0
1.0,-27.0,-4.0,-9.0,3.0,44.0,-13.0,6.0,-25.0,-4.0,0.0
7.0,-14.0,-5.0,-6.0,-7.0,18.0,-11.0,12.0,-18.0,6.0,0.0
8.0,-1.0,-8.0,7.0,-6.0,-7.0,-13.0,4.0,-13.0,10.0,0.0
-2.0,-3.0,-12.0,-2.0,-7.0,-15.0,-18.0,6.0,-20.0,5.0,0.0
-12.0,-3.0,-26.0,-14.0,-18.0,-21.0,-3.0,11.0,-12.0,-2.0,0.0
-12.0,0.0,-31.0,-25.0,-21.0,-33.0,5.0,20.0,-3.0,1.0,0.0
-2.0,10.0,-13.0,-24.0,-6.0,-49.0,9.0,22.0,12.0,11.0,0.0
9.0,18.0,0.0,-11.0,-18.0,-57.0,-10.0,4.0,11.0,21.0,0.0
0.0,18.0,8.0,-4.0,-34.0,-48.0,-9.0,-5.0,9.0,24.0,0.0
-4.0,7.0,15.0,7.0,-30.0,-13.0,9.0,9.0,21.0,25.0,0.0
4.0,6.0,6.0,15.0,-18.0,-2.0,3.0,-1.0,20.0,24.0,0.0
10.0,7.0,-10.0,27.0,-1.0,-5.0,-14.0,-15.0,4.0,11.0,0.0
9.0,5.0,6.0,47.0,-5.0,6.0,-16.0,-24.0,-11.0,12.0,0.0
10.0,12.0,16.0,59.0,-9.0,8.0,-25.0,-41.0,-30.0,10.0,0.0
-4.0,9.0,10.0,62.0,2.0,7.0,-23.0,-29.0,-34.0,-5.0,0.0
-28.0,-16.0,-10.0,54.0,13.0,18.0,-15.0,-18.0,-30.0,-20.0,0.0
-40.0,-43.0,-27.0,34.0,20.0,38.0,5.0,-3.0,-22.0,-20.0,0.0
-35.0,-49.0,-27.0,37.0,18.0,31.0,15.0,-6.0,-14.0,-19.0,0.0
-13.0,-26.0,-20.0,47.0,-11.0,-4.0,6.0,-3.0,-15.0,-12.0,0.0
5.0,2.0,-20.0,29.0,-29.0,-34.0,31.0,11.0,17.0,11.0,0.0
14.0,2.0,-24.0,11.0,-43.0,-57.0,48.0,31.0,29.0,21.0,0.0
17.0,7.0,-7.0,-5.0,-59.0,-77.0,32.0,21.0,17.0,24.0,0.0
12.0,0.0,0.0,-19.0,-65.0,-94.0,26.0,13.0,15.0,24.0,0.0
5.0,0.0,-9.0,-27.0,-53.0,-70.0,27.0,12.0,9.0,17.0,0.0
-4.0,0.0,-12.0,-11.0,-20.0,-29.0,17.0,-9.0,0.0,2.0,0.0
-2.0,-4.0,-11.0,5.0,2.0,4.0,0.0,-38.0,-18.0,-10.0,0.0
-12.0,0.0,-3.0,15.0,19.0,34.0,-5.0,-29.0,-32.0,-4.0,0.0
-15.0,-7.0,0.0,26.0,36.0,43.0,2.0,-18.0,-26.0,0.0,0.0
-7.0,-9.0,-7.0,28.0,39.0,39.0,7.0,-20.0,-17.0,-7.0,0.0
9.0,1.0,24.0,26.0,15.0,-7.0,-4.0,-5.0,4.0,5.0,0.0
16.0,9.0,31.0,28.0,20.0,-7.0,-26.0,11.0,18.0,23.0,0.0
16.0,-1.0,17.0,20.0,32.0,15.0,-25.0,9.0,22.0,13.0,0.0
9.0,-4.0,10.0,11.0,33.0,29.0,-27.0,4.0,22.0,0.0,0.0
7.0,-7.0,7.0,9.0,25.0,26.0,-13.0,1.0,14.0,-10.0,0.0
3.0,-8.0,14.0,0.0,14.0,3.0,12.0,7.0,14.0,-9.0,0.0
0.0,-10.0,4.0,-25.0,-1.0,-11.0,18.0,9.0,11.0,-2.0,0.0
6.0,-5.0,2.0,-36.0,-8.0,-29.0,13.0,21.0,15.0,1.0,0.0
8.0,-6.0,-3.0,-33.0,-6.0,-45.0,8.0,15.0,3.0,9.0,0.0
24.0,6.0,-1.0,-40.0,-9.0,-58.0,1.0,-2.0,-3.0,9.0,0.0
18.0,10.0,-4.0,-33.0,-7.0,-71.0,-8.0,-12.0,0.0,9.0,0.0
8.0,12.0,0.0,-25.0,-4.0,-52.0,-12.0,-1.0,-3.0,-4.0,0.0
11.0,-2.0,3.0,-7.0,3.0,-33.0,-4.0,-4.0,-17.0,-8.0,0.0
4.0,-16.0,-3.0,-13.0,14.0,1.0,1.0,-8.0,-25.0,-8.0,0.0
-9.0,-18.0,1.0,-6.0,37.0,25.0,4.0,-3.0,-29.0,-15.0,0.0
-17.0,-24.0,-4.0,7.0,61.0,44.0,7.0,-3.0,-31.0,-11.0,0.0
-21.0,-28.0,3.0,28.0,72.0,51.0,-6.0,-14.0,-31.0,-12.0,0.0
-34.0,-26.0,2.0,47.0,68.0,57.0,-12.0,-6.0,-40.0,-21.0,0.0
-38.0,-25.0,-6.0,56.0,67.0,75.0,-3.0,2.0,-32.0,-24.0,0.0
-40.0,-27.0,3.0,46.0,60.0,75.0,-5.0,-10.0,-33.0,-11.0,0.0
-20.0,-4.0,27.0,25.0,23.0,44.0,-15.0,-17.0,-32.0,9.0,0.0
10.0,18.0,26.0,-14.0,-10.0,19.0,4.0,-3.0,0.0,30.0,0.0
17.0,20.0,20.0,-35.0,-19.0,-4.0,11.0,5.0,17.0,32.0,0.0
7.0,16.0,8.0,-30.0,-4.0,-32.0,-8.0,6.0,2.0,19.0,0.0
2.0,10.0,6.0,-31.0,-12.0,-43.0,3.0,6.0,-12.0,4.0,0.0
-11.0,2.0,-5.0,-42.0,-9.0,-47.0,21.0,8.0,-5.0,1.0,0.0
-23.0,-20.0,-12.0,-55.0,4.0,-36.0,28.0,12.0,4.0,4.0,0.0
-27.0,-20.0,-10.0,-20.0,45.0,-34.0,8.0,15.0,3.0,2.0,0.0
-22.0,-19.0,-23.0,11.0,81.0,-30.0,-4.0,3.0,-1.0,-11.0,0.0
-9.0,-6.0,0.0,29.0,108.0,-30.0,-30.0,-24.0,-22.0,-15.0,0.0
-6.0,18.0,34.0,48.0,96.0,-24.0,-52.0,-45.0,-34.0,-15.0,0.0
0.0,33.0,57.0,32.0,39.0,-30.0,-48.0,-33.0,-30.0,-11.0,0.0
4.0,16.0,19.0,-29.0,-21.0,16.0,1.0,-5.0,-13.0,-19.0,0.0
2.0,-4.0,-22.0,-71.0,-53.0,54.0,39.0,26.0,11.0,-20.0,0.0
9.0,12.0,-17.0,-51.0,-42.0,18.0,17.0,12.0,17.0,-8.0,0.0
21.0,25.0,10.0,-5.0,-23.0,9.0,-12.0,2.0,22.0,-11.0,0.0
13.0,14.0,21.0,22.0,-5.0,10.0,-15.0,5.0,27.0,2.0,0.0
1.0,13.0,16.0,27.0,16.0,5.0,-13.0,-2.0,20.0,0.0,0.0
-7.0,10.0,1.0,15.0,30.0,9.0,-16.0,-10.0,11.0,-16.0,0.0
-9.0,5.0,-6.0,22.0,42.0,19.0,-13.0,-2.0,17.0,-18.0,0.0
0.0,11.0,1.0,6.0,24.0,-1.0,-9.0,5.0,26.0,-18.0,0.0
7.0,14.0,-2.0,-26.0,-26.0,-22.0,-2.0,21.0,26.0,-6.0,0.0
7.0,11.0,-15.0,-38.0,-61.0,-23.0,9.0,32.0,30.0,4.0,0.0
5.0,19.0,-12.0,-22.0,-66.0,-42.0,3.0,40.0,42.0,17.0,0.0
8.0,20.0,4.0,-15.0,-54.0,-73.0,-10.0,25.0,55.0,27.0,0.0
20.0,24.0,15.0,-17.0,-35.0,-51.0,-10.0,15.0,54.0,24.0,0.0
25.0,18.0,0.0,-7.0,-5.0,-26.0,-10.0,-6.0,30.0,12.0,0.0
17.0,15.0,-2.0,8.0,29.0,-4.0,-15.0,-39.0,19.0,14.0,0.0
-7.0,17.0,5.0,2.0,64.0,25.0,-33.0,-31.0,5.0,2.0,0.0
-21.0,14.0,10.0,37.0,87.0,46.0,-43.0,-46.0,7.0,-19.0,0.0
-19.0,0.0,15.0,65.0,90.0,46.0,-40.0,-47.0,0.0,-35.0,0.0
-24.0,1.0,37.0,78.0,78.0,49.0,-39.0,-33.0,-7.0,-28.0,0.0
-27.0,5.0,30.0,59.0,50.0,44.0,-18.0,-3.0,-10.0,-22.0,0.0
-33.0,-6.0,16.0,10.0,9.0,43.0,38.0,20.0,-7.0,-29.0,0.0
-10.0,11.0,9.0,-25.0,-26.0,23.0,53.0,20.0,8.0,-6.0,0.0
20.0,29.0,9.0,-39.0,-38.0,-11.0,34.0,26.0,32.0,23.0,0.0
34.0,34.0,9.0,-37.0,-38.0,-19.0,28.0,41.0,47.0,38.0,0.0
29.0,27.0,20.0,-37.0,-30.0,-24.0,15.0,47.0,38.0,26.0,0.0
28.0,20.0,24.0,-26.0,-27.0,-36.0,-2.0,35.0,24.0,25.0,0.0
23.0,18.0,20.0,-27.0,-23.0,-34.0,1.0,34.0,19.0,32.0,0.0
0.0,16.0,7.0,-26.0,-12.0,-22.0,11.0,31.0,21.0,22.0,0.0
-13.0,9.0,6.0,-25.0,0.0,-8.0,6.0,31.0,13.0,16.0,0.0
-8.0,0.0,-1.0,-13.0,0.0,0.0,4.0,39.0,2.0,13.0,0.0
-2.0,5.0,5.0,0.0,0.0,0.0,-5.0,33.0,-1.0,8.0,0.0
10.0,18.0,15.0,5.0,-3.0,-3.0,-8.0,11.0,-5.0,17.0,0.0
14.0,20.0,13.0,21.0,0.0,8.0,-7.0,-3.0,-16.0,22.0,0.0
16.0,12.0,10.0,34.0,10.0,27.0,1.0,-9.0,-12.0,7.0,0.0
10.0,7.0,8.0,30.0,15.0,36.0,2.0,-13.0,-6.0,-4.0,0.0
3.0,-2.0,10.0,29.0,9.0,45.0,-4.0,-12.0,-13.0,-6.0,0.0
13.0,-4.0,6.0,22.0,6.0,45.0,-2.0,-19.0,-4.0,-2.0,0.0
11.0,-10.0,0.0,13.0,16.0,38.0,14.0,-6.0,-3.0,8.0,0.0
-3.0,-11.0,9.0,-6.0,23.0,23.0,24.0,5.0,6.0,14.0,0.0
-13.0,-8.0,14.0,-23.0,10.0,5.0,21.0,3.0,14.0,16.0,0.0
0.0,1.0,-1.0,-43.0,1.0,-23.0,11.0,-7.0,19.0,10.0,0.0
12.0,18.0,-1.0,-50.0,8.0,-45.0,10.0,-10.0,26.0,17.0,0.0
14.0,15.0,0.0,-41.0,19.0,-39.0,3.0,-10.0,19.0,13.0,0.0
13.0,20.0,-3.0,-30.0,23.0,-45.0,-5.0,-10.0,9.0,10.0,0.0
16.0,16.0,-1.0,-23.0,13.0,-42.0,-10.0,-11.0,4.0,21.0,0.0
-1.0,-1.0,-4.0,-19.0,16.0,-40.0,1.0,-14.0,2.0,19.0,0.0
-7.0,-6.0,-3.0,-23.0,15.0,-22.0,8.0,-9.0,3.0,4.0,0.0
-12.0,-15.0,-6.0,-18.0,11.0,1.0,3.0,0.0,7.0,-1.0,0.0
-21.0,-12.0,-3.0,-9.0,12.0,44.0,10.0,0.0,7.0,3.0,0.0
-17.0,-2.0,-4.0,10.0,9.0,65.0,33.0,-2.0,7.0,8.0,0.0
4.0,-5.0,6.0,10.0,-1.0,59.0,32.0,-4.0,12.0,15.0,0.0
5.0,-15.0,15.0,7.0,-19.0,52.0,15.0,-5.0,6.0,15.0,0.0
8.0,-9.0,20.0,-2.0,-20.0,48.0,10.0,-2.0,5.0,22.0,0.0
12.0,4.0,12.0,-27.0,-14.0,43.0,12.0,-9.0,5.0,23.0,0.0
15.0,14.0,10.0,-29.0,-11.0,38.0,-2.0,-15.0,1.0,32.0,0.0
23.0,13.0,6.0,-27.0,-7.0,14.0,-12.0,0.0,5.0,41.0,0.0
16.0,17.0,4.0,-32.0,0.0,-8.0,1.0,-1.0,7.0,31.0,0.0
13.0,14.0,3.0,-41.0,0.0,-23.0,22.0,-5.0,12.0,26.0,0.0
9.0,2.0,-8.0,-53.0,-18.0,-29.0,28.0,-4.0,11.0,32.0,0.0
4.0,0.0,-14.0,-59.0,-23.0,-34.0,33.0,4.0,15.0,30.0,0.0
10.0,11.0,-3.0,-62.0,-14.0,-25.0,36.0,5.0,16.0,28.0,0.0
22.0,21.0,6.0,-40.0,-14.0,-47.0,24.0,-8.0,6.0,22.0,0.0
14.0,20.0,13.0,-17.0,-8.0,-30.0,4.0,-13.0,0.0,8.0,0.0
6.0,7.0,10.0,-9.0,4.0,-4.0,1.0,-11.0,0.0,15.0,0.0
6.0,7.0,11.0,7.0,1.0,19.0,5.0,-17.0,-11.0,10.0,0.0
1.0,7.0,17.0,11.0,11.0,31.0,-2.0,-31.0,-14.0,-1.0,0.0
-1.0,11.0,12.0,14.0,27.0,43.0,-2.0,-35.0,-17.0,-14.0,0.0
3.0,3.0,13.0,26.0,35.0,62.0,-12.0,-33.0,-21.0,-14.0,0.0
-5.0,-5.0,13.0,19.0,30.0,74.0,-16.0,-36.0,-21.0,-20.0,0.0
-12.0,0.0,1.0,18.0,19.0,59.0,-13.0,-20.0,-30.0,-17.0,0.0
-11.0,6.0,1.0,10.0,12.0,43.0,-3.0,-9.0,-22.0,-12.0,0.0
0.0,4.0,-8.0,-4.0,6.0,24.0,0.0,-7.0,-10.0,-7.0,0.0
14.0,4.0,-6.0,-2.0,3.0,4.0,5.0,-7.0,-4.0,-6.0,0.0
13.0,9.0,-10.0,-3.0,6.0,-2.0,18.0,3.0,7.0,-9.0,0.0
0.0,8.0,-19.0,-21.0,7.0,-1.0,22.0,11.0,15.0,-6.0,0.0
0.0,-2.0,-31.0,-41.0,6.0,1.0,20.0,16.0,17.0,0.0,0.0
-1.0,-13.0,-35.0,-49.0,10.0,2.0,18.0,15.0,7.0,-3.0,0.0
-1.0,-19.0,-28.0,-40.0,31.0,19.0,15.0,0.0,-1.0,-20.0,0.0
-13.0,-23.0,-29.0,-32.0,25.0,16.0,9.0,10.0,-11.0,-27.0,0.0
-5.0,-29.0,-41.0,-12.0,2.0,5.0,16.0,18.0,-6.0,-26.0,0.0
-19.0,-30.0,-36.0,13.0,25.0,28.0,26.0,-2.0,-14.0,-33.0,0.0
-6.0,-20.0,-18.0,28.0,36.0,23.0,11.0,-16.0,-26.0,-26.0,0.0
27.0,17.0,11.0,45.0,17.0,-19.0,-4.0,-5.0,-1.0,5.0,0.0
39.0,32.0,24.0,57.0,3.0,-23.0,-16.0,-8.0,6.0,8.0,0.0
45.0,23.0,27.0,65.0,-25.0,-7.0,-32.0,-15.0,2.0,9.0,0.0
25.0,13.0,2.0,49.0,-38.0,8.0,-21.0,-17.0,-9.0,11.0,0.0
20.0,5.0,-13.0,9.0,-50.0,5.0,8.0,-14.0,5.0,3.0,0.0
20.0,4.0,0.0,10.0,-41.0,-21.0,6.0,-15.0,10.0,-3.0,0.0
12.0,-7.0,-5.0,8.0,-6.0,-32.0,11.0,-8.0,10.0,2.0,0.0
17.0,-12.0,-9.0,11.0,11.0,-16.0,36.0,11.0,14.0,8.0,0.0
24.0,-9.0,-11.0,-5.0,4.0,-28.0,32.0,9.0,12.0,5.0,0.0
27.0,-2.0,-11.0,-26.0,8.0,-58.0,22.0,6.0,0.0,2.0,0.0
35.0,16.0,-8.0,-39.0,4.0,-55.0,24.0,18.0,5.0,8.0,0.0
36.0,15.0,-14.0,-49.0,2.0,-62.0,32.0,41.0,18.0,19.0,0.0
26.0,21.0,-12.0,-45.0,-9.0,-48.0,32.0,38.0,14.0,38.0,0.0
21.0,15.0,-9.0,-31.0,0.0,-35.0,9.0,28.0,10.0,33.0,0.0
10.0,12.0,8.0,-12.0,1.0,-14.0,3.0,10.0,6.0,19.0,0.0
4.0,12.0,10.0,-18.0,-6.0,17.0,8.0,-1.0,-5.0,-1.0,0.0
0.0,8.0,-11.0,-38.0,-10.0,41.0,7.0,-8.0,-6.0,-9.0,0.0
3.0,9.0,-4.0,-20.0,0.0,51.0,-8.0,-16.0,-4.0,-17.0,0.0
2.0,10.0,10.0,-2.0,8.0,41.0,-12.0,-21.0,-6.0,-14.0,0.0
14.0,18.0,13.0,3.0,0.0,29.0,-21.0,-26.0,-5.0,-8.0,0.0
23.0,35.0,24.0,12.0,6.0,29.0,-24.0,-30.0,-10.0,-13.0,0.0
25.0,41.0,26.0,2.0,6.0,25.0,-11.0,-20.0,-5.0,-8.0,0.0
24.0,38.0,6.0,-16.0,-8.0,15.0,17.0,0.0,11.0,-3.0,0.0
26.0,23.0,-15.0,-29.0,-24.0,-4.0,18.0,0.0,17.0,-10.0,0.0
21.0,18.0,-17.0,-22.0,-23.0,-28.0,4.0,-7.0,15.0,-6.0,0.0
13.0,26.0,-11.0,-6.0,-15.0,-46.0,8.0,-5.0,11.0,-2.0,0.0
-2.0,22.0,-19.0,3.0,-24.0,-42.0,30.0,9.0,24.0,7.0,0.0
-2.0,13.0,-21.0,-5.0,-28.0,-29.0,40.0,20.0,33.0,3.0,0.0
0.0,14.0,-15.0,9.0,-4.0,-18.0,48.0,1.0,24.0,-3.0,0.0
-1.0,25.0,-12.0,12.0,-4.0,-15.0,24.0,-9.0,9.0,3.0,0.0
5.0,24.0,-16.0,4.0,-7.0,-11.0,14.0,-8.0,0.0,-7.0,0.0
0.0,8.0,-21.0,-3.0,2.0,0.0,12.0,5.0,0.0,-9.0,0.0
-2.0,12.0,-20.0,-2.0,15.0,12.0,2.0,0.0,-1.0,-4.0,0.0
11.0,29.0,4.0,18.0,23.0,-4.0,2.0,-8.0,12.0,8.0,0.0
8.0,23.0,20.0,30.0,24.0,9.0,-1.0,-15.0,6.0,8.0,0.0
-8.0,19.0,27.0,34.0,22.0,36.0,-18.0,-16.0,0.0,9.0,0.0
-14.0,11.0,26.0,26.0,16.0,54.0,-8.0,-20.0,6.0,7.0,0.0
-18.0,-1.0,10.0,20.0,26.0,50.0,4.0,-20.0,10.0,8.0,0.0
-26.0,-5.0,4.0,18.0,30.0,51.0,9.0,-5.0,15.0,18.0,0.0
-24.0,-12.0,11.0,16.0,39.0,48.0,19.0,2.0,21.0,17.0,0.0
-26.0,-18.0,8.0,28.0,25.0,38.0,15.0,-3.0,14.0,3.0,0.0
-16.0,-14.0,12.0,41.0,5.0,21.0,8.0,-7.0,15.0,-2.0,0.0
-3.0,1.0,-8.0,11.0,-23.0,-21.0,0.0,-6.0,27.0,0.0,0.0
13.0,21.0,4.0,-15.0,-26.0,-70.0,-32.0,-5.0,33.0,19.0,0.0
23.0,30.0,16.0,-3.0,5.0,-84.0,-54.0,-24.0,31.0,24.0,0.0
11.0,23.0,6.0,15.0,27.0,-47.0,-47.0,-42.0,7.0,23.0,0.0
10.0,21.0,0.0,27.0,47.0,-27.0,-50.0,-42.0,-16.0,25.0,0.0
16.0,36.0,14.0,45.0,54.0,-23.0,-54.0,-50.0,-25.0,21.0,0.0
23.0,44.0,31.0,60.0,18.0,-29.0,-66.0,-58.0,-28.0,21.0,0.0
-4.0,20.0,8.0,39.0,-9.0,-7.0,-42.0,-45.0,-33.0,7.0,0.0
-18.0,1.0,-26.0,8.0,-40.0,3.0,-1.0,-9.0,-18.0,0.0,0.0
-12.0,4.0,-18.0,5.0,-39.0,19.0,12.0,8.0,-5.0,4.0,0.0
-7.0,18.0,9.0,19.0,-41.0,22.0,-2.0,-2.0,-9.0,7.0,0.0
-4.0,6.0,-5.0,5.0,-33.0,44.0,3.0,0.0,-22.0,5.0,0.0
-11.0,-10.0,-25.0,-15.0,-31.0,57.0,31.0,13.0,-22.0,4.0,0.0
-19.0,-24.0,-22.0,-5.0,0.0,43.0,21.0,-1.0,-20.0,-3.0,0.0
-31.0,-33.0,-18.0,7.0,12.0,16.0,12.0,-18.0,-6.0,-8.0,0.0
-22.0,-26.0,-16.0,-2.0,-1.0,-11.0,6.0,-26.0,2.0,2.0,0.0
-12.0,-11.0,-8.0,-29.0,-16.0,-18.0,22.0,-7.0,14.0,15.0,0.0
0.0,-8.0,-6.0,-47.0,-28.0,-12.0,50.0,20.0,39.0,21.0,0.0
4.0,0.0,-14.0,-51.0,-30.0,-29.0,31.0,45.0,55.0,27.0,0.0
0.0,9.0,-16.0,-30.0,-40.0,-62.0,-6.0,48.0,58.0,31.0,0.0
-1.0,-2.0,-13.0,-18.0,-41.0,-76.0,-6.0,43.0,46.0,34.0,0.0
-2.0,1.0,0.0,-15.0,-39.0,-77.0,-16.0,24.0,29.0,20.0,0.0
-2.0,6.0,-9.0,-13.0,-36.0,-46.0,-34.0,-8.0,13.0,-1.0,0.0
-7.0,4.0,-21.0,-22.0,-24.0,-33.0,-40.0,-31.0,3.0,-10.0,0.0
-12.0,1.0,-16.0,-2.0,-1.0,-12.0,-32.0,-22.0,5.0,-10.0,0.0
-12.0,-2.0,-13.0,21.0,9.0,16.0,-28.0,-18.0,10.0,-7.0,0.0
-11.0,10.0,-14.0,37.0,15.0,43.0,-27.0,-13.0,12.0,-7.0,0.0
-13.0,8.0,-5.0,46.0,16.0,50.0,-22.0,-10.0,9.0,-8.0,0.0
-13.0,0.0,5.0,41.0,4.0,34.0,-28.0,-19.0,0.0,-11.0,0.0
-11.0,2.0,10.0,36.0,0.0,22.0,-27.0,-20.0,-5.0,-5.0,0.0
-5.0,7.0,11.0,35.0,4.0,15.0,-19.0,-15.0,-5.0,-1.0,0.0
0.0,-6.0,8.0,35.0,-3.0,8.0,-13.0,-12.0,0.0,9.0,0.0
9.0,0.0,5.0,28.0,-5.0,-11.0,-3.0,-7.0,-2.0,15.0,0.0
12.0,9.0,1.0,10.0,4.0,-37.0,-10.0,-11.0,2.0,25.0,0.0
6.0,5.0,-6.0,-4.0,3.0,-37.0,0.0,0.0,14.0,16.0,0.0
0.0,-9.0,-13.0,-16.0,1.0,-17.0,11.0,-2.0,14.0,-1.0,0.0
0.0,-7.0,-16.0,-13.0,8.0,6.0,15.0,-4.0,9.0,-8.0,0.0
-2.0,6.0,-6.0,0.0,12.0,5.0,-3.0,-11.0,-3.0,-7.0,0.0
-4.0,12.0,0.0,13.0,22.0,-3.0,-21.0,-25.0,-22.0,-13.0,0.0
-6.0,4.0,-5.0,13.0,12.0,-5.0,-22.0,-17.0,-27.0,-13.0,0.0
-2.0,9.0,6.0,8.0,0.0,-16.0,-10.0,-13.0,-20.0,-2.0,0.0
-3.0,8.0,0.0,18.0,0.0,7.0,-5.0,-6.0,-17.0,0.0,0.0
-19.0,-9.0,-13.0,2.0,8.0,54.0,0.0,-4.0,-27.0,-13.0,0.0
-42.0,-20.0,-15.0,-18.0,0.0,72.0,18.0,18.0,-31.0,-23.0,0.0
-31.0,-18.0,-10.0,-10.0,-5.0,59.0,21.0,38.0,-24.0,-20.0,0.0
-14.0,-17.0,6.0,-3.0,-15.0,27.0,15.0,33.0,-20.0,-9.0,0.0
-16.0,-11.0,8.0,-14.0,-27.0,28.0,13.0,19.0,-25.0,-8.0,0.0
-12.0,-4.0,-8.0,-43.0,-26.0,16.0,18.0,8.0,-16.0,-7.0,0.0
-1.0,-1.0,-8.0,-45.0,-34.0,-13.0,5.0,-11.0,-5.0,1.0,0.0
11.0,-4.0,-7.0,-31.0,-37.0,-30.0,-9.0,-15.0,-3.0,-1.0,0.0
23.0,7.0,-3.0,-33.0,-34.0,-48.0,-24.0,-22.0,-21.0,6.0,0.0
17.0,-1.0,-7.0,-52.0,-29.0,-80.0,-23.0,-9.0,-37.0,-3.0,0.0
8.0,-4.0,-12.0,-46.0,-28.0,-76.0,-8.0,6.0,-33.0,-14.0,0.0
-2.0,-5.0,-19.0,-33.0,-18.0,-55.0,-2.0,5.0,-15.0,-10.0,0.0
-11.0,-15.0,-4.0,-2.0,-2.0,-60.0,2.0,10.0,-11.0,-10.0,0.0
-18.0,-7.0,0.0,9.0,-3.0,-50.0,-1.0,7.0,-22.0,-14.0,0.0
-21.0,0.0,-11.0,1.0,-4.0,-27.0,-6.0,3.0,-31.0,-19.0,0.0
-18.0,2.0,-13.0,14.0,0.0,-5.0,-7.0,0.0,-31.0,-15.0,0.0
-28.0,0.0,0.0,36.0,-8.0,5.0,-20.0,-3.0,-39.0,-20.0,0.0
-38.0,-15.0,8.0,52.0,-4.0,33.0,-31.0,-1.0,-37.0,-27.0,0.0
-38.0,-14.0,0.0,52.0,3.0,57.0,-24.0,-7.0,-28.0,-30.0,0.0
-31.0,-9.0,5.0,46.0,12.0,66.0,-8.0,-7.0,-27.0,-30.0,0.0
-25.0,-11.0,4.0,40.0,18.0,56.0,0.0,-7.0,-25.0,-26.0,0.0
-33.0,-8.0,-3.0,24.0,14.0,43.0,-1.0,-6.0,-24.0,-13.0,0.0
-29.0,-11.0,-4.0,18.0,21.0,29.0,-6.0,1.0,-16.0,-3.0,0.0
-24.0,-10.0,-15.0,5.0,3.0,-4.0,-8.0,1.0,-3.0,-6.0,0.0
-17.0,-4.0,-16.0,-5.0,-18.0,-39.0,-4.0,3.0,6.0,5.0,0.0
-4.0,13.0,-10.0,-5.0,-23.0,-60.0,-9.0,4.0,24.0,11.0,0.0
5.0,17.0,-10.0,-11.0,-26.0,-67.0,-7.0,9.0,18.0,10.0,0.0
13.0,6.0,3.0,-18.0,-24.0,-56.0,-5.0,6.0,24.0,5.0,0.0
4.0,3.0,0.0,-18.0,-19.0,-45.0,13.0,17.0,26.0,6.0,0.0
-10.0,7.0,1.0,-15.0,-24.0,-33.0,13.0,17.0,27.0,8.0,0.0
-21.0,1.0,-5.0,4.0,-4.0,-5.0,15.0,24.0,27.0,1.0,0.0
-19.0,0.0,-15.0,11.0,18.0,25.0,12.0,19.0,7.0,-16.0,0.0
-22.0,-4.0,-18.0,9.0,29.0,55.0,14.0,14.0,-6.0,-26.0,0.0
-33.0,-13.0,-15.0,9.0,23.0,69.0,16.0,8.0,-15.0,-35.0,0.0
-36.0,-18.0,-4.0,23.0,1.0,65.0,11.0,-1.0,-31.0,-38.0,0.0
-6.0,-11.0,3.0,29.0,-2.0,42.0,2.0,4.0,-27.0,-17.0,0.0
11.0,11.0,7.0,23.0,-7.0,9.0,-6.0,12.0,-11.0,15.0,0.0
10.0,23.0,19.0,24.0,-4.0,-3.0,-10.0,-5.0,3.0,10.0,0.0
10.0,10.0,22.0,20.0,-8.0,-6.0,-12.0,-18.0,5.0,-12.0,0.0
5.0,1.0,25.0,19.0,-8.0,-12.0,-15.0,-13.0,-7.0,-19.0,0.0
1.0,-4.0,19.0,4.0,-4.0,-28.0,-10.0,1.0,-4.0,-13.0,0.0
4.0,0.0,-3.0,0.0,6.0,-35.0,-15.0,-6.0,-10.0,-5.0,0.0
-19.0,-12.0,-26.0,0.0,37.0,-23.0,-21.0,-12.0,-21.0,-20.0,0.0
-34.0,-23.0,-23.0,-2.0,69.0,-5.0,-17.0,-17.0,-37.0,-39.0,0.0
-22.0,-11.0,-1.0,24.0,69.0,-3.0,-5.0,-28.0,-38.0,-33.0,0.0
3.0,21.0,34.0,33.0,11.0,-28.0,12.0,-24.0,-13.0,10.0,0.0
9.0,17.0,8.0,-18.0,-36.0,-43.0,45.0,1.0,9.0,17.0,0.0
6.0,17.0,-1.0,-31.0,-76.0,-37.0,33.0,15.0,15.0,15.0,0.0
12.0,13.0,6.0,-15.0,-74.0,-25.0,17.0,11.0,0.0,13.0,0.0
7.0,8.0,-8.0,-1.0,-54.0,10.0,15.0,0.0,1.0,14.0,0.0
2.0,4.0,-4.0,16.0,-17.0,41.0,12.0,-6.0,-3.0,7.0,0.0
4.0,-1.0,-3.0,29.0,14.0,60.0,12.0,-21.0,-15.0,-12.0,0.0
0.0,-5.0,-19.0,43.0,41.0,64.0,12.0,-30.0,-17.0,-18.0,0.0
-14.0,-11.0,-10.0,51.0,61.0,65.0,5.0,-36.0,-30.0,-18.0,0.0
-33.0,-1.0,0.0,55.0,51.0,41.0,-9.0,-50.0,-43.0,-21.0,0.0
-17.0,9.0,15.0,44.0,17.0,19.0,1.0,-39.0,-41.0,-11.0,0.0
7.0,17.0,24.0,23.0,-30.0,-5.0,9.0,-34.0,-21.0,1.0,0.0
9.0,22.0,11.0,-18.0,-53.0,-21.0,27.0,-11.0,-5.0,17.0,0.0
15.0,21.0,-11.0,-65.0,-73.0,-54.0,34.0,12.0,18.0,43.0,0.0
11.0,15.0,-19.0,-68.0,-68.0,-61.0,36.0,12.0,31.0,32.0,0.0
6.0,0.0,-11.0,-57.0,-45.0,-57.0,36.0,7.0,19.0,16.0,0.0
13.0,-4.0,9.0,-48.0,-31.0,-48.0,29.0,5.0,13.0,18.0,0.0
29.0,5.0,10.0,-30.0,-22.0,-54.0,27.0,0.0,15.0,18.0,0.0
24.0,15.0,5.0,-8.0,7.0,-46.0,6.0,-12.0,4.0,14.0,0.0
2.0,7.0,5.0,18.0,31.0,-20.0,0.0,-11.0,-11.0,3.0,0.0
-10.0,15.0,14.0,33.0,32.0,-6.0,1.0,-10.0,-23.0,-1.0,0.0
-16.0,10.0,10.0,56.0,36.0,14.0,-7.0,-25.0,-40.0,-11.0,0.0
-15.0,-1.0,6.0,58.0,44.0,47.0,0.0,-26.0,-46.0,-8.0,0.0
-14.0,-11.0,12.0,46.0,37.0,67.0,9.0,-14.0,-40.0,-13.0,0.0
-12.0,-8.0,2.0,24.0,34.0,58.0,17.0,-2.0,-22.0,-12.0,0.0
0.0,-1.0,1.0,22.0,34.0,41.0,4.0,-6.0,-17.0,-5.0,0.0
13.0,13.0,9.0,33.0,13.0,23.0,-8.0,-8.0,-12.0,-13.0,0.0
14.0,13.0,15.0,20.0,-6.0,3.0,-22.0,0.0,-8.0,-5.0,0.0
13.0,9.0,6.0,-26.0,-32.0,-28.0,-7.0,12.0,1.0,1.0,0.0
27.0,6.0,-1.0,-50.0,-55.0,-39.0,-4.0,27.0,9.0,0.0,0.0
32.0,7.0,1.0,-56.0,-60.0,-51.0,0.0,24.0,8.0,9.0,0.0
28.0,4.0,-3.0,-59.0,-45.0,-37.0,7.0,17.0,9.0,4.0,0.0
20.0,3.0,-6.0,-48.0,-36.0,-53.0,-4.0,19.0,7.0,-14.0,0.0
15.0,7.0,11.0,-31.0,-30.0,-71.0,-17.0,4.0,-5.0,-12.0,0.0
13.0,4.0,0.0,-18.0,-18.0,-53.0,-3.0,6.0,-11.0,-13.0,0.0
-1.0,-1.0,-15.0,-5.0,1.0,-3.0,15.0,30.0,-22.0,-18.0,0.0
-10.0,-13.0,-24.0,-7.0,22.0,43.0,15.0,33.0,-30.0,-16.0,0.0
0.0,-3.0,-17.0,9.0,19.0,27.0,-6.0,9.0,-30.0,5.0,0.0
5.0,4.0,-1.0,19.0,20.0,22.0,-28.0,-3.0,-19.0,10.0,0.0
-11.0,-6.0,9.0,7.0,30.0,31.0,-17.0,-5.0,-18.0,-9.0,0.0
-1.0,-3.0,12.0,12.0,22.0,32.0,-13.0,-10.0,-29.0,-16.0,0.0
13.0,5.0,15.0,21.0,-8.0,24.0,2.0,1.0,-19.0,-12.0,0.0
14.0,-4.0,13.0,9.0,-29.0,19.0,10.0,17.0,-7.0,0.0,0.0
13.0,-24.0,-4.0,-16.0,-37.0,10.0,15.0,25.0,-8.0,-2.0,0.0
8.0,-22.0,2.0,-29.0,-39.0,-5.0,14.0,35.0,-10.0,0.0,0.0
17.0,-11.0,9.0,-32.0,-18.0,-14.0,17.0,20.0,-9.0,-6.0,0.0
24.0,10.0,5.0,-35.0,-4.0,-39.0,19.0,29.0,5.0,-3.0,0.0
21.0,7.0,0.0,-31.0,-22.0,-41.0,7.0,51.0,12.0,0.0,0.0
18.0,-6.0,-8.0,-23.0,-25.0,-49.0,5.0,69.0,9.0,3.0,0.0
10.0,-11.0,-16.0,-26.0,-16.0,-33.0,2.0,54.0,3.0,5.0,0.0
3.0,-11.0,-16.0,-27.0,-15.0,-2.0,-13.0,32.0,-8.0,1.0,0.0
-2.0,-11.0,-7.0,-5.0,-7.0,9.0,-20.0,15.0,-12.0,0.0,0.0
-5.0,-19.0,-7.0,10.0,18.0,23.0,-22.0,-2.0,-30.0,-16.0,0.0
-8.0,-18.0,-12.0,30.0,41.0,22.0,-14.0,-7.0,-28.0,-24.0,0.0
-10.0,-19.0,-1.0,54.0,45.0,7.0,-20.0,4.0,-14.0,-18.0,0.0
0.0,-6.0,26.0,79.0,44.0,7.0,-36.0,8.0,-9.0,-2.0,0.0
2.0,-5.0,31.0,89.0,45.0,41.0,-23.0,14.0,-11.0,3.0,0.0
8.0,-6.0,30.0,84.0,32.0,38.0,-20.0,20.0,-21.0,-3.0,0.0
0.0,-18.0,10.0,46.0,16.0,43.0,-15.0,37.0,-9.0,-15.0,0.0
-7.0,-26.0,-3.0,7.0,-14.0,52.0,-7.0,40.0,3.0,-16.0,0.0
-1.0,-17.0,6.0,10.0,-2.0,55.0,-7.0,29.0,11.0,-11.0,0.0
1.0,-9.0,-3.0,8.0,13.0,37.0,1.0,25.0,0.0,-16.0,0.0
2.0,-13.0,-17.0,-10.0,-4.0,0.0,16.0,17.0,-5.0,-21.0,0.0
-3.0,-17.0,-23.0,-24.0,-21.0,-37.0,25.0,28.0,-2.0,-14.0,0.0
10.0,2.0,-3.0,-10.0,-37.0,-92.0,-6.0,14.0,0.0,0.0,0.0
25.0,12.0,16.0,-8.0,-50.0,-82.0,-17.0,3.0,-17.0,15.0,0.0
29.0,0.0,0.0,-24.0,-51.0,-57.0,0.0,13.0,-21.0,17.0,0.0
13.0,0.0,-16.0,-35.0,-44.0,-56.0,-1.0,16.0,-13.0,14.0,0.0
-7.0,0.0,-9.0,-19.0,-15.0,-34.0,7.0,7.0,-3.0,4.0,0.0
-7.0,6.0,2.0,3.0,12.0,-10.0,4.0,13.0,-7.0,-7.0,0.0
-12.0,5.0,3.0,19.0,18.0,6.0,-6.0,4.0,-18.0,-4.0,0.0
-8.0,0.0,18.0,25.0,12.0,13.0,-6.0,-16.0,-22.0,-3.0,0.0
0.0,6.0,12.0,36.0,24.0,25.0,-21.0,-19.0,-29.0,-3.0,0.0
1.0,0.0,-6.0,26.0,37.0,32.0,-30.0,-21.0,-36.0,-9.0,0.0
-18.0,-4.0,-15.0,12.0,39.0,41.0,-21.0,-14.0,-35.0,-36.0,0.0
-26.0,-14.0,-16.0,14.0,36.0,39.0,-24.0,-11.0,-36.0,-31.0,0.0
-19.0,-10.0,-1.0,22.0,28.0,13.0,-33.0,-3.0,-30.0,-21.0,0.0
-1.0,-8.0,9.0,25.0,23.0,-27.0,-29.0,7.0,-19.0,9.0,0.0
-1.0,-12.0,0.0,4.0,12.0,-50.0,-17.0,30.0,-17.0,21.0,0.0
10.0,-6.0,0.0,-18.0,-8.0,-52.0,6.0,30.0,3.0,21.0,0.0
35.0,-1.0,12.0,-24.0,-6.0,-55.0,16.0,21.0,11.0,17.0,0.0
38.0,4.0,12.0,-21.0,-8.0,-59.0,18.0,19.0,1.0,11.0,0.0
23.0,0.0,0.0,-15.0,-16.0,-61.0,14.0,14.0,-6.0,7.0,0.0
16.0,-7.0,-13.0,-7.0,-7.0,-63.0,12.0,10.0,-11.0,-2.0,0.0
10.0,-4.0,-13.0,-1.0,4.0,-42.0,5.0,-5.0,-19.0,4.0,0.0
11.0,-14.0,-8.0,4.0,22.0,-9.0,-3.0,-9.0,-25.0,19.0,0.0
3.0,-13.0,0.0,11.0,14.0,0.0,-13.0,-10.0,-21.0,19.0,0.0
-5.0,-3.0,10.0,20.0,7.0,5.0,-27.0,-19.0,-25.0,8.0,0.0
-13.0,2.0,5.0,28.0,34.0,23.0,-15.0,-22.0,-23.0,2.0,0.0
-10.0,0.0,-13.0,36.0,51.0,36.0,7.0,-26.0,-5.0,4.0,0.0
-7.0,-12.0,-23.0,30.0,36.0,42.0,18.0,-16.0,-5.0,4.0,0.0
-13.0,-14.0,-16.0,28.0,45.0,48.0,12.0,-10.0,0.0,3.0,0.0
-7.0,-10.0,10.0,32.0,39.0,40.0,0.0,-19.0,2.0,-17.0,0.0
-4.0,-13.0,1.0,-4.0,16.0,23.0,2.0,-12.0,2.0,-19.0,0.0
-10.0,-5.0,-17.0,-56.0,-20.0,9.0,19.0,8.0,10.0,-11.0,0.0
-6.0,1.0,-10.0,-54.0,-32.0,-17.0,23.0,4.0,31.0,0.0,0.0
-1.0,7.0,-6.0,-51.0,-20.0,-42.0,20.0,-18.0,35.0,11.0,0.0
6.0,13.0,-9.0,-53.0,-33.0,-56.0,17.0,-24.0,33.0,27.0,0.0
15.0,3.0,-10.0,-45.0,-34.0,-53.0,3.0,-13.0,35.0,25.0,0.0
10.0,-7.0,-18.0,-51.0,-23.0,-57.0,1.0,-20.0,28.0,10.0,0.0
0.0,-7.0,-14.0,-50.0,-21.0,-52.0,4.0,-36.0,29.0,7.0,0.0
0.0,-13.0,-16.0,-29.0,-5.0,-23.0,-2.0,-39.0,30.0,6.0,0.0
-3.0,-9.0,-10.0,-11.0,12.0,-3.0,-9.0,-37.0,13.0,-5.0,0.0
-13.0,-8.0,-14.0,0.0,28.0,19.0,-4.0,-37.0,5.0,-7.0,0.0
-25.0,-15.0,-17.0,15.0,33.0,42.0,3.0,-41.0,-1.0,-19.0,0.0
-24.0,-16.0,-12.0,32.0,31.0,57.0,-3.0,-41.0,0.0,-22.0,0.0
-29.0,-23.0,-12.0,25.0,35.0,68.0,6.0,-21.0,14.0,-22.0,0.0
-29.0,-15.0,-3.0,13.0,28.0,67.0,20.0,-9.0,18.0,-22.0,0.0
-28.0,-10.0,2.0,10.0,16.0,63.0,16.0,-12.0,22.0,-22.0,0.0
-20.0,-11.0,5.0,8.0,14.0,52.0,20.0,2.0,17.0,-14.0,0.0
-9.0,-10.0,9.0,-1.0,5.0,28.0,19.0,10.0,32.0,-12.0,0.0
-3.0,-9.0,-2.0,-13.0,-2.0,3.0,14.0,16.0,31.0,2.0,0.0
6.0,-6.0,3.0,-13.0,-4.0,-8.0,11.0,13.0,34.0,7.0,0.0
13.0,-7.0,4.0,-19.0,-15.0,-38.0,11.0,13.0,29.0,13.0,0.0
8.0,4.0,3.0,-21.0,-19.0,-38.0,5.0,35.0,20.0,18.0,0.0
11.0,11.0,0.0,-25.0,-21.0,-53.0,-4.0,37.0,16.0,14.0,0.0
5.0,3.0,1.0,-16.0,-7.0,-43.0,-3.0,21.0,13.0,2.0,0.0
-5.0,0.0,10.0,-1.0,13.0,-8.0,5.0,14.0,2.0,-13.0,0.0
-17.0,-14.0,-3.0,7.0,55.0,20.0,5.0,4.0,-12.0,-19.0,0.0
-19.0,-21.0,-1.0,31.0,84.0,38.0,-6.0,-16.0,-30.0,-25.0,0.0
-6.0,-19.0,1.0,43.0,83.0,38.0,-12.0,-25.0,-26.0,-15.0,0.0
0.0,-19.0,13.0,67.0,60.0,33.0,-22.0,-24.0,-20.0,-10.0,0.0
6.0,-19.0,18.0,76.0,32.0,42.0,-15.0,0.0,-12.0,-12.0,0.0
5.0,-25.0,7.0,69.0,-1.0,42.0,8.0,29.0,3.0,-2.0,0.0
-8.0,-30.0,-6.0,41.0,-20.0,29.0,29.0,33.0,9.0,-2.0,0.0
-12.0,-22.0,-14.0,15.0,-16.0,21.0,22.0,16.0,6.0,-3.0,0.0
-3.0,-16.0,0.0,16.0,-12.0,25.0,11.0,8.0,8.0,13.0,0.0
3.0,-6.0,6.0,10.0,-7.0,12.0,9.0,14.0,10.0,17.0,0.0
3.0,-6.0,7.0,2.0,-2.0,-16.0,15.0,10.0,10.0,16.0,0.0
14.0,-14.0,6.0,-8.0,-4.0,-30.0,23.0,10.0,1.0,20.0,0.0
19.0,-5.0,3.0,-21.0,-20.0,-66.0,16.0,21.0,1.0,29.0,0.0
21.0,0.0,3.0,-19.0,-36.0,-69.0,13.0,26.0,28.0,26.0,0.0
13.0,5.0,-6.0,-2.0,-27.0,-53.0,19.0,22.0,36.0,24.0,0.0
6.0,5.0,0.0,9.0,-17.0,-56.0,19.0,24.0,37.0,24.0,0.0
0.0,-3.0,9.0,6.0,-8.0,-52.0,13.0,15.0,35.0,22.0,0.0
-3.0,-17.0,6.0,10.0,13.0,-24.0,9.0,13.0,28.0,20.0,0.0
-2.0,-22.0,7.0,17.0,29.0,-5.0,8.0,13.0,18.0,19.0,0.0
-13.0,-18.0,0.0,22.0,32.0,12.0,-3.0,15.0,8.0,23.0,0.0
-19.0,-9.0,9.0,43.0,29.0,20.0,-14.0,8.0,4.0,17.0,0.0
-18.0,-3.0,35.0,62.0,26.0,5.0,-22.0,-8.0,2.0,16.0,0.0
-15.0,-9.0,24.0,58.0,26.0,1.0,-32.0,-1.0,-13.0,13.0,0.0
-19.0,-20.0,7.0,20.0,30.0,12.0,-27.0,16.0,-11.0,8.0,0.0
-29.0,-25.0,16.0,11.0,29.0,16.0,-11.0,26.0,-13.0,-12.0,0.0
-38.0,-28.0,9.0,0.0,27.0,29.0,1.0,24.0,-26.0,-24.0,0.0
-33.0,-25.0,0.0,-12.0,14.0,24.0,20.0,13.0,-25.0,-31.0,0.0
-29.0,-7.0,5.0,-22.0,-21.0,-8.0,19.0,14.0,-12.0,-12.0,0.0
-8.0,12.0,13.0,-26.0,-31.0,-23.0,18.0,31.0,-1.0,4.0,0.0
17.0,26.0,12.0,-35.0,-47.0,-60.0,26.0,38.0,13.0,24.0,0.0
29.0,35.0,30.0,-31.0,-56.0,-86.0,19.0,31.0,29.0,30.0,0.0
21.0,17.0,17.0,-29.0,-39.0,-50.0,13.0,26.0,32.0,25.0,0.0
12.0,6.0,9.0,-41.0,-27.0,-18.0,9.0,15.0,22.0,11.0,0.0
-3.0,-2.0,-9.0,-14.0,-14.0,-9.0,13.0,10.0,5.0,1.0,0.0
-6.0,-7.0,-19.0,9.0,-11.0,1.0,20.0,25.0,8.0,6.0,0.0
0.0,3.0,-14.0,0.0,-14.0,0.0,24.0,52.0,24.0,13.0,0.0
0.0,8.0,-5.0,12.0,-10.0,15.0,4.0,45.0,12.0,4.0,0.0
-1.0,25.0,16.0,47.0,7.0,21.0,-30.0,2.0,-21.0,0.0,0.0
1.0,24.0,16.0,52.0,1.0,32.0,-27.0,-5.0,-33.0,-7.0,0.0
-2.0,10.0,4.0,39.0,-4.0,30.0,-5.0,3.0,-26.0,-16.0,0.0
-3.0,14.0,-2.0,39.0,-4.0,18.0,-3.0,9.0,-20.0,-13.0,0.0
1.0,21.0,-5.0,38.0,-5.0,17.0,-3.0,-1.0,-15.0,-3.0,0.0
0.0,7.0,2.0,26.0,-16.0,5.0,-7.0,11.0,-21.0,1.0,0.0
-1.0,-2.0,5.0,12.0,-17.0,-1.0,-2.0,13.0,-20.0,2.0,0.0
-4.0,0.0,-5.0,1.0,-5.0,-13.0,-5.0,8.0,-11.0,5.0,0.0
1.0,8.0,-7.0,-10.0,7.0,-24.0,-11.0,9.0,-6.0,7.0,0.0
12.0,3.0,-11.0,-7.0,20.0,-38.0,-9.0,-8.0,-2.0,8.0,0.0
12.0,-3.0,-12.0,-16.0,37.0,-32.0,-7.0,-20.0,-4.0,3.0,0.0
-3.0,-2.0,-9.0,-25.0,39.0,3.0,-18.0,-31.0,-9.0,-18.0,0.0
-14.0,-15.0,-12.0,-36.0,22.0,6.0,-30.0,-22.0,-12.0,-18.0,0.0
-24.0,-28.0,-23.0,-36.0,23.0,33.0,-10.0,-6.0,-6.0,-5.0,0.0
-25.0,-29.0,-28.0,-23.0,27.0,44.0,6.0,9.0,0.0,-14.0,0.0
-11.0,-8.0,-5.0,3.0,27.0,17.0,-2.0,26.0,8.0,-9.0,0.0
-2.0,0.0,11.0,35.0,36.0,11.0,-29.0,22.0,18.0,-8.0,0.0
-7.0,-8.0,11.0,53.0,56.0,30.0,-49.0,5.0,-3.0,-15.0,0.0
-13.0,-16.0,3.0,49.0,73.0,37.0,-47.0,-19.0,-19.0,-26.0,0.0
-23.0,-10.0,-8.0,15.0,42.0,27.0,-21.0,-12.0,-12.0,-20.0,0.0
-15.0,0.0,0.0,11.0,2.0,35.0,40.0,25.0,9.0,-2.0,0.0
-2.0,-2.0,-2.0,14.0,-9.0,33.0,54.0,30.0,20.0,4.0,0.0
11.0,13.0,13.0,10.0,-26.0,-20.0,10.0,18.0,25.0,10.0,0.0
10.0,9.0,12.0,-9.0,-15.0,-19.0,-2.0,10.0,11.0,18.0,0.0
2.0,12.0,2.0,-23.0,-2.0,-26.0,0.0,5.0,-3.0,16.0,0.0
-2.0,0.0,-9.0,-28.0,-5.0,-23.0,-17.0,7.0,-12.0,0.0,0.0
-5.0,-7.0,-5.0,-22.0,-5.0,-33.0,-19.0,3.0,-17.0,-10.0,0.0
10.0,10.0,7.0,-11.0,-16.0,-53.0,-23.0,8.0,-10.0,-7.0,0.0
20.0,20.0,3.0,-19.0,-44.0,-45.0,-9.0,35.0,7.0,13.0,0.0
26.0,17.0,-2.0,-43.0,-64.0,-49.0,4.0,52.0,26.0,26.0,0.0
23.0,13.0,3.0,-37.0,-65.0,-57.0,12.0,54.0,34.0,22.0,0.0
19.0,20.0,10.0,-11.0,-41.0,-37.0,6.0,41.0,34.0,16.0,0.0
11.0,17.0,23.0,6.0,-30.0,-12.0,9.0,37.0,19.0,1.0,0.0
-7.0,12.0,12.0,10.0,-23.0,9.0,16.0,26.0,6.0,-18.0,0.0
1.0,4.0,23.0,22.0,-19.0,26.0,6.0,10.0,-1.0,-21.0,0.0
11.0,2.0,34.0,30.0,-7.0,23.0,0.0,-12.0,-11.0,-24.0,0.0
4.0,0.0,27.0,32.0,3.0,27.0,-5.0,-22.0,-14.0,-20.0,0.0
3.0,-7.0,13.0,34.0,12.0,27.0,-13.0,-26.0,-8.0,-18.0,0.0
-5.0,-2.0,11.0,23.0,17.0,21.0,-9.0,-20.0,-12.0,-28.0,0.0
-12.0,1.0,0.0,14.0,15.0,13.0,1.0,-21.0,-17.0,-29.0,0.0
0.0,-1.0,3.0,-2.0,3.0,-7.0,-3.0,-29.0,-20.0,-26.0,0.0
17.0,13.0,18.0,-12.0,-21.0,-29.0,-4.0,-26.0,-22.0,-8.0,0.0
18.0,15.0,12.0,-40.0,-34.0,-42.0,-2.0,-7.0,-2.0,5.0,0.0
16.0,7.0,-7.0,-77.0,-34.0,-53.0,15.0,8.0,0.0,1.0,0.0
24.0,7.0,-16.0,-83.0,-36.0,-41.0,13.0,14.0,3.0,4.0,0.0
23.0,11.0,5.0,-58.0,-31.0,-34.0,1.0,-3.0,9.0,0.0,0.0
15.0,4.0,14.0,-24.0,-22.0,-45.0,-2.0,-21.0,3.0,-10.0,0.0
8.0,0.0,24.0,-2.0,-9.0,-29.0,0.0,-34.0,-11.0,-21.0,0.0
4.0,0.0,29.0,20.0,10.0,0.0,2.0,-42.0,-5.0,-21.0,0.0
-5.0,0.0,16.0,29.0,23.0,5.0,-5.0,-43.0,-11.0,-37.0,0.0
-9.0,-1.0,11.0,32.0,39.0,29.0,-15.0,-38.0,-18.0,-34.0,0.0
-9.0,1.0,15.0,32.0,50.0,40.0,-14.0,-49.0,-2.0,-12.0,0.0
-11.0,0.0,15.0,26.0,44.0,43.0,-17.0,-40.0,-9.0,-4.0,0.0
-4.0,0.0,34.0,25.0,32.0,39.0,-16.0,-25.0,-6.0,-1.0,0.0
0.0,-1.0,44.0,19.0,18.0,27.0,-12.0,-26.0,-2.0,1.0,0.0
2.0,0.0,24.0,-4.0,7.0,16.0,-8.0,-29.0,-1.0,14.0,0.0
5.0,6.0,15.0,-11.0,-6.0,-10.0,-9.0,-23.0,-8.0,11.0,0.0
7.0,7.0,22.0,-17.0,-3.0,-20.0,-6.0,-14.0,0.0,0.0,0.0
7.0,-1.0,14.0,-30.0,14.0,-29.0,1.0,-6.0,7.0,8.0,0.0
6.0,-6.0,1.0,-33.0,22.0,-39.0,-4.0,-3.0,10.0,0.0,0.0
4.0,-4.0,-9.0,-45.0,17.0,-28.0,-13.0,-13.0,3.0,-5.0,0.0
14.0,0.0,-12.0,-43.0,-3.0,-8.0,-12.0,-12.0,-3.0,-10.0,0.0
12.0,-6.0,-17.0,-38.0,-11.0,-3.0,7.0,-3.0,5.0,-12.0,0.0
0.0,-14.0,-27.0,-39.0,-21.0,12.0,21.0,10.0,7.0,-14.0,0.0
-3.0,-4.0,-13.0,-15.0,-8.0,12.0,10.0,10.0,1.0,-20.0,0.0
3.0,0.0,0.0,13.0,18.0,40.0,1.0,-7.0,2.0,-10.0,0.0
10.0,5.0,11.0,15.0,36.0,56.0,-17.0,-23.0,-15.0,-12.0,0.0
-3.0,-8.0,0.0,16.0,44.0,66.0,-28.0,-27.0,-31.0,-29.0,0.0
-24.0,-26.0,-17.0,12.0,51.0,95.0,-7.0,-16.0,-34.0,-49.0,0.0
-30.0,-25.0,-16.0,10.0,56.0,109.0,9.0,-11.0,-37.0,-50.0,0.0
8.0,1.0,27.0,21.0,34.0,64.0,-9.0,-28.0,-28.0,-29.0,0.0
37.0,24.0,41.0,17.0,-7.0,18.0,-19.0,-25.0,-12.0,-9.0,0.0
30.0,26.0,21.0,0.0,-40.0,-13.0,-20.0,-12.0,6.0,4.0,0.0
14.0,32.0,12.0,-24.0,-49.0,-29.0,-8.0,-7.0,20.0,14.0,0.0
7.0,24.0,6.0,-47.0,-62.0,-39.0,2.0,-1.0,25.0,23.0,0.0
9.0,12.0,-5.0,-49.0,-56.0,-57.0,-2.0,5.0,26.0,40.0,0.0
6.0,4.0,-1.0,-56.0,-30.0,-39.0,0.0,5.0,22.0,29.0,0.0
3.0,1.0,-9.0,-57.0,-33.0,-24.0,7.0,0.0,17.0,9.0,0.0
2.0,0.0,-3.0,-40.0,-26.0,-23.0,5.0,-10.0,18.0,-1.0,0.0
6.0,9.0,7.0,-22.0,-20.0,-12.0,-3.0,-20.0,11.0,-5.0,0.0
11.0,9.0,10.0,-8.0,-23.0,-6.0,-8.0,-29.0,4.0,-1.0,0.0
7.0,1.0,0.0,-3.0,-17.0,14.0,2.0,-15.0,7.0,0.0,0.0
10.0,4.0,-6.0,18.0,-14.0,26.0,18.0,3.0,19.0,-1.0,0.0
13.0,-2.0,-14.0,43.0,-13.0,46.0,1.0,17.0,25.0,0.0,0.0
5.0,7.0,-4.0,53.0,0.0,55.0,1.0,1.0,19.0,-4.0,0.0
0.0,11.0,3.0,47.0,9.0,51.0,6.0,-19.0,18.0,-12.0,0.0
12.0,15.0,11.0,31.0,12.0,28.0,-3.0,-23.0,16.0,-12.0,0.0
17.0,3.0,11.0,20.0,8.0,16.0,-11.0,-25.0,19.0,-12.0,0.0
16.0,1.0,10.0,20.0,4.0,-2.0,-8.0,-22.0,26.0,-8.0,0.0
16.0,7.0,7.0,25.0,21.0,-16.0,-24.0,-27.0,6.0,-4.0,0.0
6.0,12.0,0.0,9.0,29.0,-39.0,-31.0,-32.0,0.0,-9.0,0.0
5.0,29.0,0.0,3.0,13.0,-44.0,-18.0,-23.0,4.0,-9.0,0.0
0.0,19.0,14.0,1.0,1.0,-28.0,-9.0,-14.0,4.0,-5.0,0.0
-5.0,8.0,18.0,0.0,-3.0,1.0,7.0,-4.0,6.0,-3.0,0.0
-2.0,6.0,2.0,-10.0,-27.0,-7.0,16.0,6.0,17.0,1.0,0.0
7.0,9.0,-2.0,-28.0,-38.0,-8.0,20.0,22.0,19.0,6.0,0.0
9.0,18.0,-12.0,-26.0,-29.0,-2.0,32.0,17.0,7.0,-1.0,0.0
5.0,14.0,-8.0,-15.0,-6.0,6.0,23.0,-8.0,4.0,-11.0,0.0
-5.0,16.0,-1.0,-14.0,19.0,21.0,-4.0,-11.0,4.0,-14.0,0.0
-7.0,0.0,6.0,16.0,43.0,35.0,-14.0,-18.0,1.0,-24.0,0.0
-10.0,6.0,16.0,32.0,53.0,55.0,-10.0,-23.0,-3.0,-11.0,0.0
-10.0,0.0,15.0,13.0,37.0,69.0,-11.0,-8.0,0.0,0.0,0.0
-13.0,2.0,20.0,4.0,29.0,69.0,-12.0,-10.0,-12.0,-6.0,0.0
-21.0,5.0,14.0,-1.0,23.0,70.0,-10.0,-6.0,-22.0,-10.0,0.0
-34.0,-6.0,-5.0,-17.0,17.0,70.0,15.0,5.0,-12.0,-18.0,0.0
-33.0,-7.0,-23.0,-26.0,4.0,49.0,26.0,29.0,3.0,-20.0,0.0
-15.0,-3.0,-18.0,-24.0,6.0,12.0,12.0,41.0,11.0,-20.0,0.0
-11.0,-3.0,-12.0,-37.0,9.0,-24.0,9.0,43.0,21.0,-11.0,0.0
-16.0,-15.0,-30.0,-52.0,7.0,-18.0,16.0,36.0,23.0,-6.0,0.0
-15.0,-16.0,-40.0,-50.0,9.0,2.0,32.0,32.0,23.0,9.0,0.0
-18.0,-2.0,-44.0,-44.0,26.0,18.0,34.0,40.0,8.0,14.0,0.0
-29.0,-10.0,-41.0,-36.0,36.0,27.0,23.0,21.0,-6.0,-3.0,0.0
-29.0,-20.0,-9.0,-34.0,32.0,28.0,8.0,-2.0,-17.0,8.0,0.0
-16.0,-12.0,3.0,-21.0,9.0,30.0,0.0,-10.0,-28.0,18.0,0.0
-7.0,1.0,4.0,0.0,1.0,17.0,-10.0,-30.0,-25.0,27.0,0.0
6.0,12.0,21.0,23.0,2.0,-11.0,-8.0,-36.0,-2.0,37.0,0.0
3.0,10.0,25.0,52.0,39.0,-8.0,-14.0,-41.0,3.0,35.0,0.0
-12.0,0.0,17.0,63.0,72.0,28.0,-31.0,-46.0,-17.0,24.0,0.0
-24.0,-7.0,16.0,73.0,84.0,67.0,-20.0,-45.0,-31.0,9.0,0.0
-35.0,-16.0,2.0,71.0,81.0,92.0,-4.0,-47.0,-26.0,15.0,0.0
-31.0,1.0,20.0,87.0,59.0,47.0,-1.0,-37.0,-37.0,5.0,0.0
-14.0,21.0,41.0,80.0,24.0,-12.0,-22.0,-27.0,-36.0,13.0,0.0
-24.0,-3.0,-10.0,0.0,-20.0,-2.0,-3.0,14.0,-18.0,11.0,0.0
-18.0,-21.0,-39.0,-44.0,-65.0,10.0,42.0,43.0,5.0,19.0,0.0
-2.0,0.0,-9.0,-25.0,-73.0,-23.0,34.0,31.0,14.0,26.0,0.0
9.0,20.0,-1.0,-23.0,-78.0,-53.0,14.0,35.0,20.0,45.0,0.0
19.0,24.0,6.0,-29.0,-78.0,-73.0,6.0,37.0,28.0,60.0,0.0
21.0,15.0,5.0,-30.0,-57.0,-57.0,10.0,25.0,37.0,38.0,0.0
15.0,12.0,7.0,-36.0,-57.0,-34.0,29.0,26.0,28.0,23.0,0.0
2.0,-6.0,-5.0,-36.0,-47.0,0.0,41.0,29.0,20.0,9.0,0.0
-6.0,-15.0,-6.0,-26.0,-29.0,28.0,52.0,30.0,7.0,4.0,0.0
-4.0,-3.0,0.0,-3.0,-11.0,43.0,40.0,22.0,3.0,14.0,0.0
5.0,7.0,20.0,26.0,3.0,22.0,9.0,1.0,6.0,16.0,0.0
17.0,26.0,34.0,41.0,-4.0,10.0,-9.0,-13.0,-2.0,15.0,0.0
21.0,15.0,40.0,46.0,0.0,25.0,-12.0,-15.0,-7.0,9.0,0.0
15.0,16.0,35.0,51.0,22.0,30.0,-17.0,-11.0,-2.0,1.0,0.0
9.0,16.0,34.0,34.0,25.0,32.0,-24.0,-10.0,-13.0,6.0,0.0
9.0,6.0,33.0,15.0,14.0,42.0,-15.0,-12.0,-16.0,10.0,0.0
-3.0,-9.0,15.0,3.0,17.0,26.0,-9.0,-12.0,-12.0,4.0,0.0
-5.0,-7.0,3.0,-2.0,24.0,5.0,-16.0,-12.0,-5.0,9.0,0.0
0.0,-8.0,0.0,-11.0,26.0,-8.0,-23.0,-4.0,-7.0,13.0,0.0
-9.0,-8.0,10.0,-30.0,20.0,-29.0,-19.0,-7.0,-1.0,23.0,0.0
-8.0,-13.0,17.0,-27.0,12.0,-42.0,-7.0,-11.0,4.0,21.0,0.0
9.0,0.0,26.0,-14.0,-5.0,-56.0,-13.0,0.0,11.0,20.0,0.0
18.0,12.0,27.0,-15.0,-24.0,-67.0,-19.0,9.0,25.0,17.0,0.0
9.0,-3.0,15.0,-28.0,-19.0,-58.0,-14.0,17.0,27.0,3.0,0.0
-1.0,-6.0,0.0,-42.0,7.0,-29.0,6.0,29.0,26.0,-7.0,0.0
-16.0,-21.0,-9.0,-23.0,36.0,1.0,2.0,21.0,11.0,-18.0,0.0
-28.0,-24.0,-11.0,13.0,55.0,31.0,0.0,0.0,-9.0,-15.0,0.0
-37.0,-22.0,0.0,50.0,52.0,44.0,0.0,-16.0,-11.0,-19.0,0.0
-55.0,-36.0,-5.0,57.0,35.0,75.0,5.0,-13.0,-18.0,-28.0,0.0
-51.0,-41.0,-3.0,36.0,-2.0,75.0,13.0,-10.0,-19.0,-21.0,0.0
-31.0,-30.0,3.0,16.0,-32.0,62.0,0.0,-17.0,-5.0,-14.0,0.0
-14.0,-13.0,0.0,-3.0,-39.0,39.0,0.0,0.0,9.0,6.0,0.0
5.0,5.0,-2.0,0.0,-41.0,11.0,2.0,1.0,17.0,26.0,0.0
7.0,2.0,-4.0,4.0,-30.0,-5.0,-3.0,7.0,26.0,31.0,0.0
0.0,3.0,-8.0,1.0,-25.0,-3.0,-7.0,6.0,20.0,23.0,0.0
-8.0,-4.0,-6.0,0.0,-22.0,1.0,-4.0,-3.0,18.0,19.0,0.0
-16.0,-6.0,-17.0,-4.0,-27.0,-1.0,1.0,0.0,14.0,7.0,0.0
-8.0,0.0,-19.0,-11.0,-25.0,-15.0,14.0,17.0,16.0,3.0,0.0
-1.0,-5.0,-28.0,-11.0,-32.0,-28.0,18.0,22.0,20.0,-9.0,0.0
-3.0,-6.0,-21.0,-9.0,-28.0,-37.0,20.0,21.0,14.0,-10.0,0.0
1.0,8.0,-17.0,-6.0,-30.0,-42.0,11.0,14.0,12.0,-6.0,0.0
11.0,10.0,-21.0,-14.0,-33.0,-27.0,9.0,10.0,16.0,-2.0,0.0
3.0,2.0,-20.0,-18.0,-19.0,-8.0,19.0,-2.0,14.0,-7.0,0.0
-2.0,-18.0,-16.0,0.0,-8.0,17.0,26.0,-15.0,5.0,-16.0,0.0
-5.0,-22.0,-22.0,10.0,-8.0,33.0,6.0,-32.0,1.0,-16.0,0.0
-2.0,-23.0,-16.0,20.0,0.0,36.0,-11.0,-33.0,-2.0,-13.0,0.0
5.0,-18.0,-6.0,31.0,14.0,24.0,-1.0,-18.0,8.0,-3.0,0.0
8.0,-17.0,-15.0,31.0,13.0,15.0,-2.0,-16.0,20.0,12.0,0.0
8.0,-17.0,-9.0,28.0,10.0,24.0,-13.0,-30.0,-2.0,3.0,0.0
16.0,-7.0,-7.0,21.0,2.0,1.0,-28.0,-40.0,-10.0,-6.0,0.0
18.0,6.0,2.0,10.0,-23.0,-34.0,-42.0,-33.0,-10.0,14.0,0.0
15.0,18.0,6.0,-7.0,-40.0,-58.0,-42.0,-28.0,-13.0,24.0,0.0
17.0,25.0,7.0,-12.0,-46.0,-72.0,-39.0,-27.0,-12.0,10.0,0.0
15.0,10.0,-5.0,-24.0,-40.0,-48.0,-39.0,-27.0,-7.0,0.0,0.0
8.0,4.0,-10.0,-48.0,-32.0,-45.0,-31.0,-28.0,-4.0,3.0,0.0
9.0,17.0,-6.0,-47.0,-23.0,-45.0,-36.0,-29.0,-11.0,1.0,0.0
8.0,26.0,-7.0,-29.0,-30.0,-54.0,-41.0,-23.0,-14.0,2.0,0.0
7.0,26.0,-4.0,-21.0,-31.0,-37.0,-43.0,-3.0,-13.0,11.0,0.0
2.0,22.0,-11.0,-14.0,-14.0,-17.0,-30.0,9.0,-6.0,18.0,0.0
-8.0,13.0,-24.0,-9.0,7.0,0.0,-21.0,12.0,4.0,12.0,0.0
-14.0,0.0,-30.0,-3.0,14.0,23.0,-14.0,5.0,4.0,6.0,0.0
-14.0,-8.0,-26.0,17.0,10.0,42.0,-13.0,2.0,-1.0,0.0,0.0
-13.0,-11.0,-10.0,30.0,2.0,51.0,-26.0,-8.0,-1.0,-11.0,0.0
-12.0,-10.0,-10.0,16.0,5.0,45.0,-36.0,-21.0,-10.0,-20.0,0.0
-9.0,-14.0,-18.0,-21.0,-2.0,39.0,-38.0,-19.0,-13.0,-13.0,0.0
0.0,-11.0,-13.0,-31.0,-14.0,31.0,-37.0,0.0,-5.0,2.0,0.0
4.0,-8.0,-15.0,-15.0,-11.0,14.0,-31.0,20.0,6.0,0.0,0.0
0.0,2.0,-24.0,0.0,-11.0,-2.0,-17.0,12.0,0.0,-5.0,0.0
-3.0,0.0,-26.0,3.0,-8.0,-13.0,-6.0,12.0,-2.0,-18.0,0.0
-7.0,-3.0,-26.0,0.0,0.0,-31.0,7.0,26.0,0.0,-14.0,0.0
-7.0,1.0,-29.0,-6.0,5.0,-43.0,12.0,24.0,-2.0,-21.0,0.0
-5.0,6.0,-31.0,-10.0,0.0,-53.0,13.0,22.0,9.0,-17.0,0.0
12.0,13.0,-14.0,-4.0,-11.0,-53.0,-5.0,17.0,19.0,-9.0,0.0
15.0,12.0,1.0,-17.0,-13.0,-41.0,-8.0,11.0,9.0,0.0,0.0
9.0,-3.0,-9.0,-22.0,-21.0,-20.0,8.0,5.0,-1.0,-10.0,0.0
-3.0,-14.0,-14.0,-7.0,-15.0,11.0,13.0,-10.0,-6.0,-23.0,0.0
-20.0,-17.0,-15.0,9.0,2.0,33.0,17.0,-3.0,-11.0,-24.0,0.0
-19.0,-26.0,-24.0,9.0,12.0,62.0,31.0,21.0,-19.0,-19.0,0.0
-15.0,-12.0,-10.0,22.0,12.0,64.0,29.0,21.0,-21.0,-11.0,0.0
-7.0,-8.0,-3.0,25.0,11.0,39.0,24.0,17.0,-11.0,-6.0,0.0
-6.0,-7.0,-1.0,17.0,11.0,35.0,22.0,0.0,-14.0,-13.0,0.0
-12.0,-1.0,-10.0,24.0,19.0,38.0,17.0,-16.0,-16.0,-17.0,0.0
-8.0,-5.0,-13.0,17.0,20.0,41.0,17.0,-22.0,-8.0,-26.0,0.0
-21.0,-22.0,-26.0,-7.0,15.0,45.0,24.0,-21.0,-8.0,-41.0,0.0
-13.0,-22.0,-28.0,-24.0,18.0,38.0,27.0,-24.0,-15.0,-39.0,0.0
4.0,1.0,-20.0,-50.0,0.0,2.0,7.0,-35.0,-11.0,-26.0,0.0
8.0,20.0,-6.0,-63.0,-21.0,-20.0,9.0,-25.0,1.0,-8.0,0.0
6.0,27.0,-8.0,-73.0,-38.0,-39.0,31.0,-12.0,16.0,5.0,0.0
2.0,16.0,-14.0,-69.0,-29.0,-30.0,27.0,-22.0,16.0,-1.0,0.0
8.0,8.0,-22.0,-51.0,-30.0,-30.0,20.0,-25.0,2.0,2.0,0.0
5.0,13.0,-14.0,-27.0,-30.0,-42.0,16.0,-21.0,-7.0,17.0,0.0
4.0,30.0,-3.0,-3.0,-21.0,-14.0,7.0,-22.0,-5.0,11.0,0.0
1.0,25.0,1.0,3.0,-7.0,9.0,2.0,-30.0,-1.0,-2.0,0.0
-5.0,18.0,-1.0,13.0,1.0,24.0,10.0,-30.0,-2.0,-11.0,0.0
-16.0,2.0,-9.0,14.0,15.0,43.0,20.0,-30.0,-11.0,-5.0,0.0
-15.0,-1.0,-4.0,12.0,28.0,65.0,10.0,-31.0,-17.0,-20.0,0.0
-13.0,7.0,1.0,32.0,34.0,63.0,5.0,-23.0,-14.0,-17.0,0.0
-10.0,1.0,13.0,34.0,31.0,51.0,5.0,-19.0,-5.0,-16.0,0.0
-15.0,-17.0,12.0,17.0,37.0,47.0,13.0,-16.0,-4.0,-16.0,0.0
-12.0,-22.0,4.0,13.0,31.0,38.0,15.0,-6.0,-16.0,-19.0,0.0
-14.0,2.0,0.0,8.0,13.0,13.0,-19.0,-6.0,-25.0,-9.0,0.0
-10.0,5.0,-5.0,12.0,-3.0,-8.0,-22.0,-7.0,-12.0,-7.0,0.0
-9.0,-10.0,-4.0,-12.0,-6.0,-16.0,12.0,7.0,-6.0,-3.0,0.0
6.0,-13.0,-16.0,-39.0,-30.0,-52.0,36.0,45.0,4.0,2.0,0.0
16.0,-14.0,-13.0,-49.0,-44.0,-76.0,32.0,46.0,15.0,10.0,0.0
14.0,-13.0,-6.0,-42.0,-34.0,-71.0,13.0,14.0,11.0,7.0,0.0
12.0,-6.0,6.0,-15.0,6.0,-47.0,-6.0,0.0,0.0,-1.0,0.0
-3.0,-11.0,-8.0,0.0,38.0,-9.0,5.0,7.0,7.0,-11.0,0.0
-19.0,-23.0,-24.0,5.0,31.0,28.0,15.0,13.0,12.0,-20.0,0.0
-26.0,-35.0,-36.0,20.0,18.0,42.0,33.0,17.0,12.0,-16.0,0.0
0.0,-12.0,-7.0,37.0,-19.0,10.0,37.0,45.0,29.0,21.0,0.0
27.0,6.0,1.0,38.0,-44.0,-28.0,28.0,54.0,45.0,32.0,0.0
19.0,7.0,-5.0,34.0,-29.0,-8.0,34.0,37.0,31.0,17.0,0.0
3.0,-1.0,-3.0,36.0,16.0,13.0,19.0,28.0,21.0,3.0,0.0
-6.0,-1.0,-11.0,30.0,40.0,34.0,15.0,28.0,12.0,-2.0,0.0
-13.0,13.0,-5.0,31.0,24.0,30.0,28.0,17.0,10.0,0.0,0.0
9.0,38.0,4.0,12.0,-20.0,1.0,28.0,20.0,20.0,14.0,0.0
36.0,45.0,-15.0,-35.0,-52.0,-23.0,20.0,18.0,28.0,23.0,0.0
31.0,30.0,-21.0,-63.0,-64.0,-37.0,23.0,19.0,28.0,24.0,0.0
15.0,21.0,-21.0,-63.0,-54.0,-45.0,41.0,31.0,32.0,23.0,0.0
11.0,12.0,-17.0,-48.0,-37.0,-49.0,38.0,27.0,27.0,21.0,0.0
10.0,8.0,-15.0,-34.0,-20.0,-53.0,22.0,11.0,4.0,20.0,0.0
18.0,20.0,-13.0,-17.0,-15.0,-65.0,-3.0,-4.0,-11.0,15.0,0.0
27.0,21.0,-5.0,-7.0,-18.0,-46.0,-12.0,-17.0,-4.0,18.0,0.0
24.0,16.0,-6.0,-1.0,-1.0,-22.0,1.0,-19.0,1.0,21.0,0.0
11.0,14.0,4.0,3.0,16.0,1.0,-2.0,-1.0,6.0,19.0,0.0
-3.0,6.0,16.0,7.0,57.0,15.0,-10.0,-4.0,-3.0,2.0,0.0
-10.0,11.0,22.0,19.0,77.0,23.0,-29.0,-12.0,-14.0,-7.0,0.0
-9.0,4.0,12.0,43.0,73.0,37.0,-37.0,-10.0,-14.0,-9.0,0.0
-10.0,9.0,12.0,58.0,63.0,56.0,-21.0,-5.0,-2.0,-12.0,0.0
1.0,23.0,28.0,52.0,33.0,65.0,-3.0,-8.0,0.0,-16.0,0.0
7.0,13.0,18.0,9.0,-14.0,56.0,-1.0,1.0,0.0,-10.0,0.0
-2.0,1.0,2.0,-16.0,-46.0,42.0,-8.0,21.0,6.0,-2.0,0.0
-12.0,-5.0,-7.0,-23.0,-40.0,36.0,-6.0,21.0,14.0,1.0,0.0
-5.0,3.0,0.0,-7.0,-27.0,7.0,1.0,10.0,20.0,3.0,0.0
3.0,19.0,6.0,3.0,-26.0,-7.0,-5.0,2.0,28.0,12.0,0.0
0.0,25.0,6.0,1.0,-29.0,-18.0,-13.0,-2.0,38.0,6.0,0.0
3.0,19.0,-1.0,-19.0,-43.0,-30.0,-10.0,9.0,36.0,5.0,0.0
16.0,10.0,-11.0,-44.0,-46.0,-34.0,9.0,21.0,35.0,14.0,0.0
17.0,2.0,0.0,-40.0,-30.0,-35.0,11.0,13.0,34.0,7.0,0.0
9.0,6.0,-2.0,-14.0,3.0,-25.0,-4.0,9.0,21.0,12.0,0.0
-5.0,2.0,-7.0,16.0,34.0,-4.0,-12.0,-9.0,6.0,10.0,0.0
1.0,2.0,-10.0,23.0,45.0,9.0,-34.0,-30.0,1.0,5.0,0.0
2.0,3.0,-12.0,29.0,48.0,19.0,-47.0,-39.0,-14.0,1.0,0.0
5.0,25.0,10.0,45.0,38.0,17.0,-48.0,-41.0,-18.0,-5.0,0.0
8.0,25.0,26.0,32.0,9.0,24.0,-55.0,-43.0,-25.0,-11.0,0.0
0.0,-4.0,-11.0,-16.0,-18.0,60.0,-9.0,-13.0,-10.0,-13.0,0.0
-8.0,-22.0,-30.0,-29.0,-30.0,73.0,24.0,11.0,0.0,-1.0,0.0
3.0,-16.0,-12.0,-1.0,1.0,46.0,0.0,9.0,4.0,10.0,0.0
1.0,-3.0,0.0,0.0,16.0,27.0,-20.0,1.0,-4.0,12.0,0.0
4.0,0.0,1.0,3.0,22.0,-3.0,-34.0,-24.0,-11.0,-2.0,0.0
-13.0,-6.0,-11.0,-13.0,20.0,3.0,-11.0,-18.0,-23.0,-22.0,0.0
-31.0,-22.0,-35.0,-38.0,11.0,36.0,34.0,12.0,-23.0,-32.0,0.0
-4.0,2.0,-13.0,-31.0,-6.0,-18.0,35.0,28.0,2.0,-3.0,0.0
37.0,43.0,23.0,-11.0,-29.0,-99.0,-5.0,28.0,27.0,39.0,0.0
34.0,46.0,14.0,-10.0,-34.0,-111.0,-13.0,22.0,29.0,37.0,0.0
21.0,10.0,1.0,-22.0,-33.0,-79.0,-1.0,19.0,28.0,20.0,0.0
6.0,1.0,-3.0,-8.0,-13.0,-48.0,5.0,20.0,20.0,17.0,0.0
-3.0,9.0,-13.0,19.0,16.0,-29.0,-10.0,10.0,8.0,4.0,0.0
1.0,17.0,-14.0,23.0,39.0,5.0,-20.0,1.0,-14.0,-22.0,0.0
12.0,14.0,-9.0,33.0,53.0,45.0,-28.0,-12.0,-24.0,-33.0,0.0
3.0,14.0,15.0,56.0,61.0,60.0,-42.0,-30.0,-21.0,-29.0,0.0
4.0,10.0,27.0,46.0,39.0,52.0,-43.0,-25.0,-19.0,-17.0,0.0
15.0,9.0,21.0,20.0,5.0,27.0,-34.0,-1.0,-13.0,3.0,0.0
8.0,4.0,14.0,0.0,-1.0,24.0,-17.0,5.0,1.0,5.0,0.0
10.0,11.0,14.0,0.0,-5.0,22.0,-9.0,2.0,5.0,-5.0,0.0
12.0,15.0,23.0,10.0,0.0,-9.0,-5.0,15.0,8.0,-7.0,0.0
6.0,7.0,5.0,-11.0,12.0,-32.0,1.0,22.0,17.0,-14.0,0.0
-2.0,9.0,4.0,-8.0,13.0,-62.0,-3.0,23.0,14.0,-16.0,0.0
12.0,19.0,21.0,-13.0,6.0,-80.0,-8.0,7.0,5.0,-21.0,0.0
14.0,10.0,8.0,-17.0,0.0,-58.0,4.0,3.0,6.0,-12.0,0.0
18.0,7.0,-5.0,-28.0,-4.0,-28.0,24.0,8.0,10.0,-10.0,0.0
18.0,5.0,-15.0,-34.0,-30.0,-41.0,22.0,19.0,28.0,-4.0,0.0
16.0,2.0,-13.0,-39.0,-53.0,-68.0,0.0,21.0,29.0,5.0,0.0
11.0,0.0,-12.0,-21.0,-37.0,-57.0,-1.0,18.0,14.0,7.0,0.0
0.0,1.0,-4.0,0.0,-14.0,-27.0,0.0,11.0,9.0,2.0,0.0
-9.0,-10.0,-1.0,19.0,7.0,0.0,-3.0,8.0,3.0,1.0,0.0
-13.0,-24.0,5.0,28.0,20.0,20.0,3.0,7.0,11.0,-6.0,0.0
-14.0,-26.0,8.0,25.0,18.0,40.0,18.0,10.0,3.0,-25.0,0.0
-27.0,-35.0,-14.0,26.0,17.0,47.0,13.0,5.0,-12.0,-41.0,0.0
-24.0,-31.0,-12.0,19.0,9.0,44.0,13.0,0.0,-10.0,-30.0,0.0
-15.0,-15.0,0.0,18.0,-4.0,26.0,15.0,9.0,9.0,-1.0,0.0
-16.0,-12.0,-1.0,7.0,-3.0,22.0,22.0,8.0,18.0,1.0,0.0
-18.0,-17.0,6.0,0.0,7.0,4.0,8.0,0.0,20.0,-1.0,0.0
5.0,-7.0,-3.0,-3.0,-5.0,-29.0,-12.0,-5.0,11.0,3.0,0.0
