channel0,channel1,channel2,channel3,channel4,channel5,channel6,channel7,channel8,channel9,true_locs
-89.0,-36.0,38.0,10.0,3.0,13.0,-21.0,-6.0,-7.0,-26.0,0.0
-72.0,-32.0,29.0,6.0,-15.0,8.0,-23.0,-15.0,-20.0,-28.0,0.0
-49.0,-32.0,5.0,4.0,-33.0,-4.0,-21.0,-12.0,-23.0,-17.0,0.0
-26.0,-14.0,-9.0,-5.0,-36.0,-8.0,-15.0,-14.0,-19.0,-17.0,0.0
-6.0,8.0,-11.0,-12.0,-35.0,-17.0,-3.0,-17.0,-17.0,-16.0,0.0
20.0,20.0,-8.0,-22.0,-28.0,-7.0,-4.0,-15.0,-22.0,-14.0,0.0
13.0,16.0,-15.0,-19.0,-19.0,-1.0,-8.0,0.0,-1.0,-11.0,0.0
-6.0,-1.0,-14.0,-9.0,-22.0,6.0,3.0,13.0,11.0,-2.0,0.0
-5.0,5.0,-2.0,-5.0,-20.0,7.0,11.0,25.0,21.0,15.0,0.0
14.0,16.0,10.0,1.0,0.0,20.0,18.0,23.0,29.0,16.0,0.0
31.0,25.0,12.0,5.0,6.0,30.0,16.0,21.0,18.0,19.0,0.0
46.0,34.0,9.0,3.0,9.0,36.0,6.0,10.0,22.0,28.0,0.0
70.0,34.0,5.0,-10.0,-2.0,48.0,0.0,14.0,32.0,43.0,0.0
81.0,19.0,-5.0,-34.0,-5.0,44.0,-1.0,13.0,22.0,43.0,0.0
72.0,-1.0,-12.0,-49.0,-8.0,40.0,-3.0,10.0,27.0,38.0,0.0
64.0,7.0,-2.0,-56.0,-27.0,27.0,4.0,16.0,32.0,26.0,0.0
54.0,33.0,11.0,-49.0,-35.0,20.0,5.0,8.0,25.0,20.0,0.0
53.0,63.0,37.0,-52.0,-21.0,19.0,-5.0,-4.0,7.0,1.0,0.0
97.0,89.0,61.0,-60.0,-24.0,2.0,-19.0,-19.0,3.0,-12.0,0.0
154.0,79.0,30.0,-52.0,-25.0,-9.0,-21.0,-23.0,1.0,-7.0,0.0
184.0,95.0,0.0,-26.0,1.0,-25.0,-36.0,-38.0,-21.0,-20.0,0.0
176.0,108.0,-2.0,-19.0,4.0,-46.0,-29.0,-48.0,-22.0,-28.0,0.0
111.0,95.0,11.0,-24.0,-17.0,-53.0,-20.0,-49.0,-16.0,-14.0,0.0
16.0,71.0,44.0,-25.0,-36.0,-56.0,-30.0,-44.0,-27.0,-15.0,0.0
-89.0,30.0,63.0,-12.0,-30.0,-41.0,-19.0,-12.0,7.0,11.0,0.0
-146.0,1.0,66.0,-4.0,-23.0,-18.0,5.0,9.0,32.0,15.0,0.0
-89.0,11.0,69.0,-20.0,-36.0,-9.0,22.0,15.0,48.0,42.0,0.0
-37.0,-4.0,60.0,-4.0,-10.0,0.0,24.0,20.0,43.0,45.0,0.0
14.0,-64.0,13.0,17.0,56.0,-2.0,-1.0,6.0,6.0,10.0,0.0
77.0,-103.0,-31.0,-4.0,42.0,-10.0,-16.0,-14.0,-13.0,9.0,0.0
90.0,-110.0,-34.0,-28.0,-4.0,-2.0,-3.0,-1.0,1.0,31.0,0.0
37.0,-116.0,-27.0,-24.0,-40.0,5.0,27.0,29.0,38.0,29.0,0.0
-17.0,-88.0,-45.0,-42.0,-79.0,-4.0,37.0,37.0,40.0,32.0,0.0
-64.0,-49.0,-41.0,-41.0,-79.0,-4.0,13.0,12.0,11.0,8.0,0.0
-154.0,-47.0,-26.0,29.0,61.0,8.0,7.0,-2.0,-18.0,-71.0,0.0
-231.0,-78.0,-22.0,84.0,155.0,24.0,21.0,-5.0,-43.0,-125.0,0.0
-225.0,-63.0,-23.0,72.0,95.0,31.0,35.0,7.0,-16.0,-84.0,0.0
-169.0,-31.0,1.0,63.0,46.0,19.0,32.0,-1.0,-6.0,-59.0,0.0
-98.0,-14.0,23.0,41.0,25.0,8.0,34.0,-10.0,-21.0,-77.0,0.0
-23.0,-14.0,9.0,20.0,23.0,1.0,24.0,-17.0,-28.0,-73.0,0.0
30.0,-16.0,-7.0,2.0,8.0,0.0,18.0,-14.0,-26.0,-47.0,0.0
17.0,-35.0,-26.0,-16.0,3.0,1.0,17.0,0.0,-7.0,-12.0,0.0
-68.0,-124.0,-29.0,-14.0,13.0,20.0,25.0,30.0,29.0,24.0,0.0
-124.0,-140.0,-17.0,2.0,31.0,37.0,40.0,50.0,54.0,43.0,0.0
-98.0,-69.0,13.0,25.0,43.0,31.0,50.0,27.0,29.0,0.0,0.0
-55.0,-31.0,19.0,30.0,31.0,22.0,42.0,10.0,0.0,-12.0,0.0
-23.0,-42.0,19.0,29.0,27.0,18.0,31.0,14.0,-6.0,8.0,0.0
13.0,-17.0,15.0,38.0,24.0,16.0,9.0,5.0,2.0,24.0,0.0
46.0,-9.0,13.0,29.0,11.0,2.0,1.0,-7.0,5.0,38.0,0.0
30.0,-12.0,22.0,19.0,2.0,-5.0,6.0,-24.0,-16.0,14.0,0.0
-13.0,-18.0,14.0,18.0,3.0,0.0,21.0,-18.0,-18.0,-10.0,0.0
-40.0,-44.0,-3.0,22.0,0.0,-8.0,21.0,-22.0,-9.0,-26.0,0.0
-63.0,-51.0,-13.0,7.0,-15.0,-19.0,7.0,-38.0,-14.0,-42.0,0.0
-81.0,-57.0,-7.0,1.0,-21.0,-29.0,-1.0,-46.0,-34.0,-53.0,0.0
-67.0,-45.0,4.0,1.0,-15.0,-22.0,-4.0,-47.0,-30.0,-60.0,0.0
-31.0,-26.0,7.0,-3.0,-16.0,-19.0,0.0,-38.0,-32.0,-51.0,0.0
1.0,-9.0,-2.0,-3.0,-11.0,-13.0,3.0,-39.0,-32.0,-37.0,0.0
18.0,3.0,-7.0,8.0,-1.0,-8.0,15.0,-18.0,-11.0,-20.0,0.0
47.0,10.0,-1.0,19.0,4.0,7.0,22.0,-2.0,16.0,-4.0,0.0
55.0,16.0,6.0,21.0,15.0,18.0,14.0,7.0,14.0,-4.0,0.0
60.0,19.0,18.0,15.0,17.0,25.0,5.0,26.0,8.0,5.0,0.0
73.0,26.0,14.0,9.0,29.0,22.0,5.0,31.0,19.0,14.0,0.0
78.0,25.0,21.0,20.0,29.0,28.0,8.0,9.0,23.0,14.0,0.0
72.0,33.0,29.0,30.0,30.0,25.0,0.0,-1.0,23.0,24.0,0.0
58.0,42.0,18.0,29.0,19.0,24.0,0.0,-1.0,13.0,23.0,0.0
38.0,39.0,22.0,19.0,22.0,22.0,-1.0,-4.0,-3.0,24.0,0.0
32.0,28.0,16.0,12.0,19.0,14.0,1.0,-12.0,1.0,15.0,0.0
46.0,16.0,9.0,14.0,15.0,1.0,0.0,-10.0,6.0,16.0,0.0
74.0,9.0,1.0,6.0,11.0,-8.0,-8.0,-12.0,-4.0,13.0,0.0
91.0,11.0,-1.0,1.0,2.0,-17.0,-4.0,-21.0,-10.0,13.0,0.0
86.0,5.0,-13.0,-16.0,-8.0,-17.0,3.0,-27.0,-6.0,3.0,0.0
71.0,4.0,-22.0,-28.0,-19.0,-16.0,-4.0,-13.0,0.0,6.0,0.0
12.0,0.0,-36.0,-37.0,-16.0,-9.0,0.0,-5.0,14.0,18.0,0.0
-11.0,33.0,-22.0,-20.0,-9.0,-5.0,0.0,0.0,11.0,-3.0,0.0
18.0,79.0,13.0,-3.0,7.0,4.0,-11.0,0.0,-5.0,-14.0,0.0
82.0,98.0,32.0,1.0,14.0,12.0,-10.0,9.0,-2.0,6.0,0.0
164.0,111.0,11.0,0.0,13.0,16.0,0.0,24.0,3.0,34.0,0.0
249.0,118.0,-18.0,0.0,15.0,17.0,14.0,38.0,17.0,78.0,0.0
266.0,142.0,-5.0,5.0,26.0,18.0,27.0,34.0,17.0,68.0,0.0
162.0,141.0,36.0,36.0,50.0,50.0,44.0,52.0,22.0,56.0,0.0
76.0,110.0,53.0,54.0,61.0,78.0,61.0,70.0,46.0,80.0,0.0
24.0,75.0,32.0,34.0,35.0,66.0,61.0,63.0,54.0,87.0,0.0
-18.0,51.0,11.0,16.0,10.0,48.0,29.0,27.0,33.0,42.0,0.0
3.0,54.0,-15.0,-5.0,8.0,37.0,11.0,5.0,0.0,4.0,0.0
42.0,44.0,-38.0,-23.0,-1.0,12.0,-9.0,-36.0,-44.0,-30.0,0.0
18.0,15.0,-41.0,-33.0,-8.0,-10.0,-27.0,-40.0,-52.0,-46.0,0.0
28.0,15.0,-42.0,-55.0,-36.0,-31.0,-28.0,-44.0,-38.0,-16.0,0.0
1.0,0.0,-58.0,-80.0,-55.0,-45.0,-26.0,-29.0,0.0,32.0,0.0
-146.0,-76.0,-49.0,-58.0,-36.0,-23.0,-8.0,6.0,28.0,17.0,0.0
-247.0,-135.0,-23.0,-22.0,-5.0,4.0,12.0,38.0,37.0,-16.0,0.0
-242.0,-142.0,-6.0,8.0,19.0,22.0,15.0,46.0,31.0,-36.0,0.0
-234.0,-160.0,-9.0,23.0,30.0,33.0,29.0,48.0,20.0,-55.0,0.0
-188.0,-141.0,7.0,31.0,43.0,41.0,42.0,37.0,18.0,-51.0,0.0
-101.0,-83.0,24.0,34.0,42.0,33.0,13.0,26.0,22.0,-28.0,0.0
-36.0,-36.0,36.0,23.0,35.0,28.0,-4.0,28.0,28.0,3.0,0.0
-26.0,-20.0,33.0,16.0,36.0,26.0,0.0,21.0,38.0,16.0,0.0
-13.0,-1.0,44.0,32.0,50.0,27.0,9.0,16.0,22.0,2.0,0.0
-9.0,0.0,50.0,55.0,68.0,26.0,-2.0,8.0,2.0,-16.0,0.0
5.0,-1.0,37.0,35.0,48.0,14.0,-11.0,0.0,-1.0,-12.0,0.0
1.0,4.0,27.0,19.0,22.0,0.0,-15.0,0.0,-3.0,-19.0,0.0
-7.0,0.0,23.0,10.0,12.0,-15.0,-25.0,6.0,22.0,-8.0,1.0
-9.0,0.0,20.0,-1.0,3.0,-20.0,-30.0,-3.0,27.0,-8.0,1.0
-6.0,-14.0,0.0,-2.0,-4.0,-18.0,-11.0,1.0,21.0,-17.0,1.0
-10.0,-25.0,-3.0,-10.0,-8.0,-14.0,-2.0,-7.0,4.0,-11.0,1.0
-14.0,-17.0,-10.0,-14.0,-7.0,-6.0,6.0,-23.0,-2.0,-9.0,1.0
5.0,-9.0,-23.0,-16.0,0.0,3.0,3.0,-13.0,17.0,-11.0,1.0
6.0,-1.0,-13.0,-22.0,10.0,8.0,0.0,-1.0,17.0,-5.0,1.0
8.0,-3.0,-5.0,-7.0,20.0,16.0,-5.0,5.0,14.0,1.0,1.0
28.0,7.0,-12.0,-9.0,21.0,19.0,-1.0,-2.0,22.0,2.0,1.0
47.0,20.0,-11.0,0.0,12.0,17.0,14.0,1.0,29.0,20.0,1.0
61.0,28.0,-8.0,11.0,11.0,14.0,8.0,11.0,26.0,31.0,1.0
64.0,39.0,-19.0,10.0,17.0,20.0,-2.0,12.0,20.0,40.0,1.0
66.0,42.0,-11.0,0.0,26.0,16.0,-1.0,5.0,17.0,46.0,1.0
58.0,46.0,-5.0,-15.0,19.0,6.0,-10.0,-10.0,11.0,26.0,1.0
50.0,45.0,6.0,-30.0,2.0,-4.0,-19.0,-16.0,3.0,20.0,1.0
46.0,40.0,5.0,-47.0,-16.0,-11.0,-10.0,-19.0,-3.0,20.0,1.0
43.0,29.0,-5.0,-63.0,-40.0,-31.0,-3.0,-21.0,7.0,27.0,1.0
46.0,19.0,-13.0,-79.0,-50.0,-47.0,-4.0,-21.0,11.0,21.0,1.0
43.0,14.0,-13.0,-77.0,-68.0,-52.0,-6.0,-27.0,-5.0,18.0,0.0
25.0,21.0,-14.0,-62.0,-41.0,-42.0,-6.0,-23.0,-24.0,1.0,0.0
-9.0,45.0,-15.0,-25.0,42.0,-24.0,-5.0,-23.0,-36.0,-24.0,0.0
-9.0,69.0,-2.0,-21.0,53.0,-35.0,-13.0,-26.0,-51.0,-24.0,0.0
7.0,85.0,3.0,-45.0,8.0,-55.0,-10.0,-14.0,-44.0,-5.0,0.0
35.0,87.0,6.0,-59.0,-14.0,-47.0,-8.0,-8.0,-27.0,17.0,0.0
58.0,41.0,-8.0,-52.0,-1.0,-28.0,6.0,-1.0,-10.0,38.0,0.0
62.0,-30.0,-18.0,-28.0,26.0,-13.0,6.0,8.0,-10.0,31.0,0.0
73.0,-43.0,-4.0,6.0,56.0,0.0,-5.0,16.0,-22.0,26.0,0.0
103.0,-21.0,-10.0,28.0,72.0,0.0,-20.0,11.0,-18.0,26.0,0.0
146.0,7.0,-17.0,40.0,43.0,-13.0,-32.0,-4.0,-13.0,20.0,0.0
122.0,14.0,-18.0,34.0,12.0,-22.0,-29.0,-10.0,-5.0,40.0,0.0
57.0,7.0,-16.0,16.0,2.0,-10.0,-24.0,3.0,12.0,57.0,0.0
28.0,19.0,-3.0,12.0,8.0,-11.0,-22.0,3.0,4.0,40.0,0.0
7.0,21.0,4.0,35.0,30.0,-8.0,-13.0,-5.0,-12.0,-2.0,0.0
-48.0,20.0,8.0,47.0,41.0,3.0,5.0,-5.0,-25.0,-49.0,0.0
-98.0,3.0,-1.0,42.0,24.0,5.0,25.0,-1.0,-8.0,-54.0,0.0
-127.0,-33.0,-28.0,17.0,-2.0,7.0,41.0,21.0,12.0,-20.0,0.0
-122.0,-39.0,-49.0,-3.0,-24.0,-6.0,34.0,16.0,12.0,5.0,0.0
-90.0,-18.0,-52.0,-6.0,-33.0,-21.0,25.0,-5.0,1.0,0.0,0.0
-64.0,-16.0,-35.0,-6.0,-36.0,-24.0,22.0,-3.0,-3.0,-6.0,0.0
-21.0,-22.0,-21.0,-28.0,-44.0,-22.0,23.0,6.0,3.0,12.0,0.0
3.0,-44.0,-18.0,-26.0,-43.0,-7.0,14.0,-2.0,2.0,14.0,0.0
17.0,-41.0,-12.0,3.0,-2.0,3.0,-5.0,-11.0,-23.0,15.0,0.0
12.0,-32.0,-4.0,48.0,75.0,12.0,-15.0,-14.0,-31.0,-4.0,0.0
2.0,-27.0,-9.0,55.0,83.0,21.0,-10.0,-11.0,-23.0,-30.0,0.0
10.0,-23.0,-12.0,26.0,39.0,27.0,6.0,12.0,5.0,-15.0,0.0
6.0,-31.0,-14.0,24.0,21.0,25.0,-1.0,16.0,12.0,2.0,0.0
-2.0,-30.0,-9.0,21.0,14.0,17.0,-2.0,1.0,13.0,-5.0,0.0
-17.0,-26.0,-3.0,12.0,15.0,16.0,-9.0,14.0,14.0,-11.0,0.0
-26.0,-23.0,3.0,13.0,10.0,15.0,-22.0,13.0,6.0,-17.0,0.0
-39.0,-34.0,5.0,5.0,-4.0,4.0,-21.0,-8.0,-21.0,-35.0,0.0
-65.0,-42.0,-4.0,-19.0,-14.0,5.0,-9.0,-13.0,-35.0,-39.0,0.0
-56.0,-45.0,-4.0,-38.0,-10.0,0.0,11.0,-21.0,-16.0,-41.0,0.0
0.0,-28.0,-5.0,-59.0,-27.0,-27.0,10.0,-33.0,1.0,-53.0,0.0
63.0,-4.0,-7.0,-74.0,-47.0,-53.0,-2.0,-48.0,-22.0,-50.0,0.0
111.0,23.0,-21.0,-92.0,-58.0,-61.0,-6.0,-45.0,-39.0,-27.0,0.0
119.0,37.0,-36.0,-95.0,-78.0,-53.0,-4.0,-37.0,-26.0,-3.0,0.0
77.0,39.0,-26.0,-76.0,-80.0,-36.0,0.0,-17.0,-4.0,19.0,0.0
27.0,58.0,47.0,-48.0,-50.0,-21.0,6.0,-6.0,9.0,-10.0,0.0
-9.0,18.0,72.0,-29.0,-35.0,-5.0,29.0,18.0,34.0,-15.0,0.0
-24.0,-60.0,47.0,-3.0,-20.0,15.0,44.0,49.0,53.0,22.0,0.0
-34.0,-65.0,29.0,38.0,34.0,30.0,19.0,44.0,36.0,14.0,0.0
-56.0,-53.0,22.0,53.0,105.0,31.0,12.0,13.0,19.0,-29.0,0.0
-39.0,-39.0,32.0,27.0,79.0,19.0,23.0,9.0,17.0,-24.0,0.0
-2.0,-24.0,25.0,7.0,44.0,11.0,13.0,5.0,16.0,-13.0,0.0
26.0,-35.0,6.0,7.0,52.0,8.0,-5.0,3.0,-2.0,-8.0,0.0
18.0,-40.0,-8.0,5.0,48.0,9.0,-13.0,4.0,-15.0,-6.0,0.0
0.0,-24.0,-7.0,-12.0,23.0,-7.0,-22.0,4.0,-11.0,-5.0,0.0
-44.0,-16.0,-11.0,1.0,0.0,-20.0,0.0,9.0,-4.0,-3.0,0.0
-85.0,-25.0,-21.0,0.0,-8.0,-20.0,21.0,13.0,1.0,-12.0,0.0
-85.0,-37.0,-20.0,-11.0,-15.0,-14.0,14.0,-4.0,2.0,-35.0,0.0
-60.0,-47.0,-14.0,-3.0,-28.0,-17.0,-5.0,-20.0,-16.0,-57.0,0.0
-29.0,-40.0,-18.0,-6.0,-36.0,-25.0,-8.0,-10.0,0.0,-53.0,0.0
14.0,-9.0,-28.0,-21.0,-43.0,-30.0,-8.0,-17.0,2.0,-34.0,0.0
25.0,-12.0,-38.0,-38.0,-46.0,-23.0,8.0,-17.0,22.0,0.0,0.0
-5.0,-24.0,-32.0,-39.0,-60.0,-13.0,29.0,5.0,38.0,33.0,0.0
-31.0,-31.0,-13.0,-13.0,-46.0,6.0,37.0,39.0,60.0,45.0,0.0
-20.0,0.0,13.0,28.0,30.0,38.0,32.0,12.0,35.0,13.0,0.0
22.0,79.0,36.0,53.0,77.0,36.0,21.0,-6.0,6.0,-9.0,0.0
47.0,114.0,28.0,48.0,64.0,20.0,-5.0,-11.0,-12.0,-10.0,0.0
75.0,129.0,17.0,35.0,54.0,2.0,-26.0,-15.0,-23.0,-15.0,0.0
73.0,163.0,1.0,13.0,26.0,-2.0,-30.0,-13.0,-25.0,-14.0,0.0
46.0,172.0,16.0,4.0,11.0,-10.0,-33.0,-23.0,-42.0,-44.0,0.0
55.0,164.0,28.0,13.0,12.0,-15.0,-23.0,-27.0,-50.0,-50.0,0.0
66.0,199.0,27.0,17.0,2.0,-14.0,-16.0,-40.0,-50.0,-42.0,0.0
83.0,208.0,34.0,7.0,-18.0,-30.0,-16.0,-56.0,-46.0,-23.0,0.0
88.0,132.0,15.0,-15.0,-54.0,-61.0,-18.0,-56.0,-29.0,38.0,0.0
50.0,-45.0,-50.0,-61.0,-88.0,-77.0,-9.0,-32.0,2.0,101.0,0.0
-41.0,-210.0,-67.0,-56.0,-74.0,-56.0,11.0,-4.0,24.0,94.0,0.0
-185.0,-306.0,-46.0,-12.0,-36.0,-18.0,23.0,12.0,1.0,1.0,0.0
-245.0,-277.0,-26.0,5.0,-13.0,2.0,43.0,32.0,-23.0,-58.0,0.0
-134.0,-144.0,-23.0,-7.0,-22.0,1.0,48.0,32.0,-20.0,-39.0,0.0
-72.0,-58.0,-20.0,-16.0,-24.0,13.0,20.0,25.0,-4.0,-23.0,0.0
-99.0,-45.0,-16.0,-12.0,3.0,28.0,30.0,31.0,3.0,-23.0,0.0
-89.0,-17.0,-6.0,-5.0,33.0,31.0,42.0,21.0,-14.0,-28.0,0.0
-59.0,-17.0,1.0,2.0,28.0,33.0,17.0,0.0,-4.0,-4.0,0.0
-44.0,-29.0,18.0,9.0,9.0,31.0,-15.0,-14.0,-5.0,2.0,0.0
-29.0,-20.0,32.0,-2.0,-8.0,10.0,-9.0,-17.0,-19.0,-7.0,0.0
-39.0,-26.0,19.0,12.0,8.0,26.0,25.0,-5.0,-14.0,-22.0,0.0
-78.0,-51.0,27.0,45.0,23.0,45.0,18.0,0.0,-35.0,-57.0,0.0
-97.0,-75.0,13.0,23.0,20.0,34.0,2.0,0.0,-30.0,-59.0,0.0
-108.0,-101.0,-28.0,-10.0,-4.0,27.0,11.0,12.0,2.0,-5.0,0.0
-133.0,-112.0,-51.0,-30.0,-20.0,8.0,21.0,22.0,26.0,5.0,0.0
-125.0,-93.0,-33.0,-60.0,-30.0,-21.0,-3.0,2.0,4.0,-12.0,0.0
-116.0,-86.0,-15.0,-64.0,-25.0,-32.0,-19.0,-23.0,-24.0,-36.0,0.0
-66.0,-56.0,-19.0,-41.0,-31.0,-23.0,-16.0,-25.0,-32.0,-28.0,0.0
-41.0,-24.0,-12.0,-24.0,-22.0,-15.0,-3.0,-17.0,-36.0,-20.0,0.0
-35.0,12.0,30.0,1.0,12.0,2.0,2.0,-15.0,-38.0,-37.0,0.0
-27.0,30.0,56.0,10.0,30.0,21.0,1.0,-18.0,-14.0,-22.0,0.0
-19.0,4.0,37.0,4.0,35.0,51.0,1.0,9.0,0.0,6.0,0.0
-6.0,-4.0,25.0,7.0,37.0,64.0,9.0,22.0,15.0,12.0,0.0
-23.0,-10.0,19.0,21.0,47.0,72.0,15.0,24.0,33.0,14.0,0.0
-34.0,-1.0,32.0,25.0,49.0,65.0,6.0,30.0,26.0,15.0,0.0
-4.0,24.0,41.0,7.0,22.0,35.0,-13.0,8.0,14.0,9.0,0.0
10.0,38.0,47.0,-8.0,2.0,18.0,-27.0,-6.0,-1.0,2.0,0.0
8.0,20.0,29.0,-27.0,0.0,16.0,-23.0,0.0,-7.0,13.0,0.0
4.0,-1.0,8.0,-38.0,-2.0,11.0,-20.0,1.0,-4.0,21.0,0.0
0.0,1.0,1.0,-38.0,-7.0,1.0,-30.0,-4.0,1.0,18.0,0.0
7.0,15.0,-2.0,-38.0,-15.0,-13.0,-40.0,-20.0,10.0,5.0,0.0
11.0,13.0,-9.0,-38.0,-16.0,-24.0,-40.0,-20.0,-8.0,-13.0,0.0
0.0,1.0,-6.0,-47.0,-18.0,-18.0,-42.0,-23.0,-18.0,-25.0,0.0
-2.0,12.0,-20.0,-35.0,-15.0,-25.0,-40.0,-21.0,-13.0,-28.0,0.0
17.0,19.0,-14.0,-12.0,-24.0,-28.0,-46.0,-24.0,-12.0,-19.0,0.0
8.0,38.0,0.0,3.0,-22.0,-22.0,-40.0,-18.0,-16.0,-11.0,0.0
-15.0,42.0,7.0,7.0,-15.0,-5.0,-37.0,-1.0,-9.0,-8.0,0.0
-17.0,51.0,32.0,15.0,1.0,6.0,-29.0,6.0,7.0,-9.0,0.0
5.0,58.0,45.0,25.0,5.0,8.0,-16.0,5.0,17.0,7.0,0.0
44.0,48.0,47.0,28.0,-4.0,-5.0,-19.0,5.0,4.0,17.0,0.0
81.0,45.0,48.0,35.0,0.0,1.0,-28.0,5.0,-4.0,18.0,0.0
101.0,56.0,42.0,43.0,32.0,13.0,-35.0,7.0,-22.0,17.0,0.0
83.0,63.0,24.0,43.0,58.0,30.0,-29.0,3.0,-37.0,-1.0,0.0
40.0,47.0,10.0,28.0,42.0,34.0,-25.0,-4.0,-30.0,-30.0,0.0
32.0,31.0,-1.0,12.0,29.0,25.0,-26.0,-11.0,-31.0,-36.0,0.0
19.0,10.0,-18.0,5.0,11.0,2.0,-31.0,-6.0,-15.0,-17.0,0.0
-2.0,-5.0,-25.0,-4.0,-9.0,-11.0,-32.0,0.0,-11.0,-11.0,0.0
1.0,-8.0,-25.0,-13.0,-15.0,-24.0,-15.0,12.0,-12.0,-2.0,0.0
23.0,-5.0,-21.0,-16.0,-30.0,-25.0,-7.0,0.0,-23.0,7.0,0.0
45.0,0.0,-27.0,-24.0,-39.0,-25.0,-6.0,-16.0,-35.0,5.0,0.0
68.0,-12.0,-38.0,-40.0,-33.0,-17.0,0.0,-30.0,-32.0,5.0,0.0
70.0,-20.0,-42.0,-44.0,-30.0,-17.0,-1.0,-23.0,-23.0,28.0,0.0
46.0,-16.0,-33.0,-23.0,-9.0,-6.0,-7.0,-13.0,-7.0,34.0,0.0
-3.0,12.0,-14.0,16.0,15.0,14.0,0.0,1.0,1.0,21.0,0.0
-2.0,31.0,16.0,40.0,33.0,30.0,2.0,15.0,1.0,22.0,0.0
58.0,32.0,21.0,42.0,42.0,27.0,-6.0,11.0,9.0,34.0,0.0
105.0,32.0,17.0,25.0,34.0,28.0,-2.0,9.0,10.0,43.0,0.0
70.0,26.0,13.0,13.0,26.0,31.0,-6.0,7.0,5.0,42.0,0.0
2.0,22.0,-2.0,-4.0,16.0,27.0,-11.0,16.0,27.0,30.0,0.0
-16.0,21.0,-3.0,-12.0,14.0,29.0,-12.0,12.0,24.0,2.0,0.0
-36.0,18.0,2.0,-18.0,12.0,34.0,-6.0,13.0,13.0,-27.0,0.0
-68.0,1.0,-2.0,-16.0,8.0,33.0,-4.0,11.0,8.0,-38.0,0.0
-76.0,-21.0,-12.0,-20.0,7.0,28.0,-11.0,-1.0,-4.0,-46.0,0.0
-71.0,-36.0,-9.0,-25.0,3.0,23.0,-9.0,-3.0,-12.0,-51.0,0.0
-61.0,-42.0,-29.0,-39.0,-5.0,13.0,-1.0,-4.0,-14.0,-63.0,0.0
-68.0,-36.0,-39.0,-50.0,-16.0,9.0,-7.0,-8.0,-15.0,-52.0,0.0
-58.0,-15.0,-27.0,-47.0,-21.0,-7.0,-11.0,-13.0,-26.0,-48.0,0.0
-41.0,13.0,-12.0,-41.0,-17.0,-9.0,-17.0,-28.0,-23.0,-34.0,0.0
-15.0,32.0,-22.0,-59.0,-29.0,-11.0,-18.0,-34.0,-17.0,-12.0,0.0
49.0,62.0,-21.0,-61.0,-27.0,-16.0,-2.0,-32.0,-10.0,2.0,0.0
112.0,129.0,24.0,-55.0,-16.0,-5.0,-6.0,-23.0,-7.0,3.0,0.0
121.0,146.0,61.0,-53.0,-6.0,10.0,-4.0,-22.0,-16.0,-13.0,0.0
104.0,90.0,27.0,-57.0,-11.0,23.0,10.0,8.0,6.0,-3.0,0.0
85.0,5.0,-10.0,-72.0,-28.0,17.0,9.0,20.0,42.0,27.0,0.0
53.0,-23.0,6.0,-66.0,-30.0,15.0,1.0,33.0,38.0,44.0,0.0
35.0,-17.0,13.0,-36.0,8.0,14.0,-12.0,12.0,9.0,25.0,0.0
23.0,-16.0,13.0,5.0,68.0,17.0,-20.0,-5.0,2.0,8.0,0.0
-3.0,-39.0,1.0,44.0,84.0,12.0,-25.0,-20.0,0.0,-9.0,0.0
-1.0,-17.0,13.0,46.0,55.0,5.0,-16.0,-19.0,-1.0,6.0,0.0
-7.0,5.0,35.0,22.0,14.0,-6.0,-14.0,-24.0,2.0,9.0,0.0
-45.0,-28.0,31.0,9.0,5.0,-14.0,-19.0,-20.0,0.0,-5.0,0.0
-95.0,-79.0,-9.0,29.0,44.0,-23.0,-22.0,-22.0,-24.0,-41.0,0.0
-114.0,-84.0,-37.0,38.0,54.0,-33.0,-36.0,-37.0,-52.0,-83.0,0.0
-56.0,-46.0,-45.0,3.0,4.0,-44.0,-47.0,-47.0,-30.0,-46.0,0.0
-24.0,-20.0,-25.0,-8.0,-2.0,-39.0,-38.0,-37.0,-10.0,-11.0,0.0
4.0,-14.0,-21.0,-7.0,0.0,-44.0,-33.0,-28.0,-17.0,-6.0,0.0
36.0,-28.0,-27.0,1.0,0.0,-36.0,-22.0,-20.0,-20.0,2.0,0.0
72.0,-27.0,-16.0,5.0,4.0,-17.0,-9.0,-2.0,3.0,17.0,0.0
74.0,-11.0,-10.0,0.0,17.0,-6.0,-17.0,-8.0,37.0,50.0,0.0
17.0,5.0,22.0,24.0,23.0,7.0,-31.0,0.0,43.0,51.0,0.0
-28.0,17.0,20.0,43.0,58.0,30.0,-23.0,22.0,51.0,38.0,0.0
-42.0,33.0,7.0,45.0,63.0,41.0,-15.0,21.0,48.0,37.0,0.0
-32.0,88.0,53.0,51.0,43.0,21.0,-27.0,-4.0,10.0,-9.0,0.0
-2.0,129.0,79.0,50.0,34.0,10.0,-37.0,-19.0,-23.0,-30.0,0.0
-5.0,79.0,40.0,30.0,30.0,5.0,-25.0,0.0,-2.0,8.0,0.0
-13.0,-9.0,-6.0,13.0,24.0,15.0,-22.0,26.0,32.0,31.0,0.0
-2.0,-36.0,-23.0,6.0,18.0,3.0,-34.0,8.0,14.0,7.0,0.0
-11.0,-43.0,-18.0,10.0,24.0,-7.0,-25.0,-14.0,-3.0,-22.0,0.0
-34.0,-71.0,-18.0,14.0,35.0,-3.0,-12.0,-14.0,-2.0,-27.0,0.0
-77.0,-104.0,-19.0,5.0,37.0,2.0,-23.0,-15.0,-14.0,-49.0,0.0
-149.0,-201.0,-57.0,-7.0,36.0,4.0,-13.0,12.0,13.0,-16.0,0.0
-170.0,-222.0,-57.0,-2.0,34.0,-1.0,3.0,25.0,14.0,-7.0,0.0
-126.0,-129.0,-5.0,16.0,32.0,-19.0,-6.0,-2.0,-19.0,-45.0,0.0
-90.0,-77.0,13.0,19.0,35.0,-15.0,-12.0,-7.0,1.0,-26.0,0.0
-72.0,-49.0,21.0,25.0,49.0,11.0,6.0,15.0,22.0,-8.0,0.0
-38.0,-6.0,30.0,26.0,60.0,21.0,0.0,16.0,1.0,-15.0,0.0
20.0,9.0,19.0,12.0,53.0,25.0,-15.0,11.0,-12.0,-10.0,0.0
116.0,7.0,-15.0,-7.0,40.0,27.0,-16.0,12.0,10.0,16.0,0.0
157.0,-1.0,-11.0,-13.0,26.0,20.0,5.0,18.0,28.0,42.0,0.0
125.0,-9.0,-10.0,-20.0,6.0,17.0,21.0,16.0,38.0,52.0,0.0
66.0,-22.0,-16.0,-20.0,-4.0,28.0,28.0,7.0,34.0,48.0,0.0
9.0,-25.0,-21.0,-36.0,-14.0,25.0,28.0,22.0,35.0,49.0,0.0
-14.0,19.0,-19.0,-61.0,-41.0,17.0,21.0,22.0,26.0,36.0,0.0
-20.0,40.0,-2.0,-50.0,-27.0,14.0,8.0,-7.0,4.0,-6.0,0.0
-33.0,13.0,-18.0,-9.0,35.0,17.0,-6.0,-20.0,-12.0,-34.0,0.0
-36.0,-14.0,-41.0,14.0,63.0,0.0,-17.0,-25.0,-15.0,-25.0,0.0
-47.0,-24.0,-40.0,12.0,21.0,-15.0,-27.0,-24.0,-24.0,-54.0,0.0
-30.0,-4.0,-33.0,2.0,-1.0,-32.0,-26.0,-23.0,-41.0,-60.0,0.0
2.0,25.0,-26.0,-8.0,-11.0,-34.0,-16.0,-27.0,-38.0,-45.0,0.0
3.0,27.0,-18.0,-5.0,13.0,-30.0,-9.0,-24.0,-33.0,-40.0,0.0
3.0,22.0,-16.0,-14.0,42.0,-10.0,-11.0,-15.0,-19.0,-17.0,0.0
-8.0,-3.0,-11.0,-7.0,40.0,16.0,-12.0,4.0,2.0,-3.0,0.0
-66.0,-42.0,0.0,19.0,61.0,38.0,-5.0,7.0,8.0,-31.0,0.0
-56.0,-44.0,11.0,25.0,62.0,30.0,7.0,17.0,29.0,-2.0,0.0
-6.0,-19.0,10.0,30.0,54.0,33.0,16.0,30.0,27.0,15.0,0.0
29.0,6.0,19.0,23.0,45.0,27.0,10.0,22.0,9.0,12.0,0.0
32.0,6.0,13.0,14.0,36.0,12.0,-8.0,0.0,12.0,9.0,0.0
8.0,0.0,2.0,15.0,37.0,1.0,-21.0,-12.0,8.0,4.0,0.0
-20.0,-10.0,-14.0,-1.0,28.0,-12.0,-36.0,-4.0,-8.0,16.0,0.0
-33.0,-13.0,-23.0,-22.0,1.0,-22.0,-14.0,-9.0,-6.0,21.0,0.0
-16.0,-16.0,-32.0,-34.0,-15.0,-22.0,9.0,-2.0,-2.0,16.0,0.0
-16.0,-26.0,-46.0,-37.0,-18.0,-13.0,16.0,0.0,-8.0,1.0,0.0
-19.0,-23.0,-59.0,-28.0,-13.0,-14.0,6.0,-7.0,-12.0,-12.0,0.0
2.0,-19.0,-58.0,-19.0,-23.0,-30.0,6.0,-21.0,-7.0,-14.0,0.0
17.0,-9.0,-45.0,-24.0,-16.0,-22.0,13.0,-17.0,-8.0,-6.0,0.0
0.0,-8.0,-48.0,-29.0,0.0,-22.0,3.0,-15.0,-12.0,-8.0,0.0
-14.0,-10.0,-36.0,-34.0,9.0,-19.0,6.0,-8.0,-11.0,-1.0,0.0
-21.0,3.0,-20.0,-29.0,16.0,-8.0,9.0,-12.0,1.0,0.0,0.0
13.0,39.0,-17.0,-22.0,15.0,-4.0,2.0,-20.0,15.0,-5.0,0.0
50.0,52.0,-24.0,-19.0,15.0,4.0,19.0,-11.0,29.0,7.0,0.0
48.0,29.0,-24.0,-17.0,23.0,14.0,28.0,2.0,25.0,14.0,0.0
49.0,17.0,-25.0,-12.0,29.0,18.0,30.0,6.0,24.0,7.0,0.0
70.0,8.0,-40.0,-26.0,4.0,7.0,11.0,1.0,14.0,23.0,0.0
101.0,10.0,-43.0,-36.0,-13.0,0.0,2.0,-8.0,7.0,39.0,0.0
125.0,13.0,-39.0,-39.0,-7.0,2.0,13.0,-10.0,12.0,35.0,0.0
130.0,13.0,-35.0,-53.0,-18.0,-5.0,11.0,-4.0,3.0,33.0,0.0
116.0,52.0,-17.0,-58.0,-37.0,-11.0,6.0,-9.0,-11.0,11.0,0.0
91.0,64.0,12.0,-22.0,-5.0,-24.0,-11.0,-43.0,-32.0,-11.0,0.0
42.0,43.0,13.0,0.0,36.0,-35.0,-26.0,-57.0,-50.0,-9.0,0.0
-22.0,18.0,14.0,-13.0,11.0,-53.0,-13.0,-43.0,-32.0,15.0,0.0
-53.0,-19.0,24.0,-23.0,-18.0,-56.0,10.0,-10.0,2.0,52.0,0.0
-75.0,-42.0,51.0,-9.0,-26.0,-46.0,1.0,-14.0,-5.0,24.0,0.0
-106.0,-89.0,52.0,-10.0,-43.0,-45.0,-11.0,-26.0,-28.0,-17.0,0.0
-93.0,-112.0,27.0,-26.0,-34.0,-34.0,-13.0,-6.0,-26.0,-21.0,0.0
-52.0,-60.0,36.0,-7.0,4.0,0.0,-11.0,-12.0,-27.0,-28.0,0.0
-34.0,-3.0,45.0,30.0,56.0,17.0,-9.0,-12.0,-17.0,-30.0,0.0
-22.0,14.0,57.0,45.0,74.0,24.0,-9.0,-5.0,-1.0,-16.0,0.0
1.0,40.0,61.0,41.0,70.0,14.0,-14.0,0.0,7.0,-7.0,0.0
21.0,55.0,42.0,31.0,54.0,17.0,-20.0,7.0,15.0,10.0,0.0
36.0,48.0,27.0,17.0,36.0,17.0,-17.0,20.0,16.0,17.0,0.0
23.0,31.0,15.0,-4.0,29.0,5.0,-9.0,8.0,25.0,12.0,0.0
-10.0,3.0,-1.0,-19.0,26.0,10.0,4.0,19.0,31.0,-1.0,0.0
-28.0,-16.0,-24.0,-23.0,17.0,10.0,14.0,14.0,16.0,-18.0,0.0
-21.0,-39.0,-19.0,-15.0,6.0,-1.0,2.0,4.0,10.0,-16.0,0.0
-10.0,-31.0,-1.0,-20.0,5.0,-12.0,-14.0,-4.0,-3.0,-21.0,0.0
-42.0,-3.0,1.0,-23.0,-6.0,-28.0,-39.0,-31.0,-31.0,-57.0,0.0
-63.0,4.0,-2.0,-35.0,-20.0,-28.0,-32.0,-37.0,-47.0,-50.0,0.0
-86.0,15.0,-7.0,-22.0,-18.0,-22.0,-14.0,-37.0,-38.0,-40.0,0.0
-133.0,29.0,12.0,4.0,-14.0,-17.0,-15.0,-22.0,-29.0,-42.0,0.0
-140.0,21.0,13.0,8.0,-9.0,-5.0,-7.0,6.0,-9.0,-22.0,0.0
-107.0,10.0,13.0,8.0,3.0,-3.0,-1.0,13.0,0.0,-12.0,0.0
-85.0,-7.0,42.0,8.0,21.0,-14.0,2.0,16.0,2.0,-30.0,0.0
-75.0,-27.0,47.0,25.0,38.0,1.0,11.0,33.0,11.0,-27.0,0.0
-45.0,-29.0,45.0,33.0,48.0,21.0,14.0,38.0,11.0,-15.0,0.0
8.0,-7.0,40.0,19.0,35.0,25.0,6.0,23.0,1.0,1.0,0.0
51.0,3.0,26.0,12.0,16.0,14.0,-18.0,16.0,-5.0,1.0,0.0
94.0,34.0,18.0,16.0,11.0,3.0,-24.0,13.0,-28.0,-12.0,0.0
129.0,82.0,6.0,4.0,5.0,-4.0,-20.0,-11.0,-50.0,-17.0,0.0
133.0,87.0,-9.0,-11.0,3.0,-13.0,-20.0,-18.0,-47.0,-13.0,0.0
127.0,68.0,-30.0,-16.0,-6.0,-14.0,-13.0,-9.0,-29.0,11.0,0.0
86.0,28.0,-36.0,-28.0,-25.0,-17.0,-11.0,4.0,-7.0,27.0,0.0
-45.0,-45.0,-14.0,-6.0,-20.0,-4.0,-12.0,-1.0,-12.0,-27.0,0.0
-148.0,-98.0,-4.0,35.0,3.0,7.0,3.0,-8.0,-26.0,-98.0,0.0
-121.0,-92.0,-11.0,32.0,4.0,7.0,4.0,-5.0,-20.0,-68.0,0.0
-59.0,-74.0,-25.0,5.0,-23.0,3.0,3.0,2.0,-4.0,-10.0,0.0
-35.0,-46.0,-26.0,-5.0,-31.0,-18.0,0.0,-4.0,-4.0,-4.0,0.0
-20.0,-31.0,-17.0,3.0,-6.0,-6.0,1.0,-11.0,-4.0,-9.0,0.0
18.0,4.0,15.0,17.0,18.0,-2.0,3.0,1.0,-5.0,-6.0,0.0
52.0,21.0,30.0,17.0,27.0,0.0,-7.0,9.0,-8.0,-4.0,0.0
90.0,38.0,27.0,22.0,37.0,17.0,-14.0,20.0,-16.0,-9.0,0.0
121.0,72.0,25.0,23.0,37.0,19.0,-10.0,15.0,-14.0,13.0,0.0
167.0,87.0,3.0,4.0,34.0,20.0,-2.0,19.0,3.0,48.0,0.0
222.0,102.0,-14.0,-14.0,30.0,7.0,-3.0,23.0,17.0,62.0,0.0
203.0,63.0,-27.0,-13.0,19.0,5.0,-4.0,34.0,34.0,85.0,0.0
121.0,30.0,-1.0,3.0,22.0,1.0,-10.0,25.0,8.0,57.0,0.0
22.0,-20.0,12.0,6.0,21.0,0.0,7.0,14.0,-11.0,6.0,0.0
-68.0,-83.0,8.0,5.0,9.0,-9.0,9.0,2.0,-4.0,-33.0,0.0
-129.0,-97.0,11.0,15.0,17.0,-5.0,0.0,0.0,-21.0,-65.0,0.0
-67.0,-42.0,7.0,8.0,8.0,-13.0,-5.0,-10.0,-26.0,-55.0,0.0
10.0,0.0,-2.0,-6.0,-4.0,-26.0,-9.0,-24.0,-34.0,-33.0,0.0
61.0,23.0,-15.0,-5.0,-25.0,-40.0,-11.0,-34.0,-41.0,-7.0,0.0
75.0,8.0,-36.0,-15.0,-41.0,-42.0,-1.0,-12.0,-7.0,40.0,0.0
33.0,-36.0,-55.0,-31.0,-37.0,-20.0,13.0,11.0,49.0,102.0,0.0
15.0,-20.0,-39.0,-22.0,-11.0,-9.0,2.0,7.0,40.0,83.0,0.0
-18.0,-2.0,-4.0,5.0,-1.0,-4.0,-9.0,-3.0,8.0,28.0,0.0
-58.0,-19.0,14.0,16.0,24.0,7.0,11.0,0.0,-4.0,-4.0,0.0
-52.0,-23.0,21.0,19.0,51.0,23.0,25.0,6.0,0.0,-7.0,0.0
-21.0,-11.0,0.0,19.0,48.0,34.0,33.0,2.0,11.0,-1.0,0.0
-42.0,-30.0,-14.0,13.0,41.0,39.0,41.0,10.0,24.0,13.0,0.0
-112.0,-65.0,-2.0,33.0,46.0,40.0,35.0,13.0,17.0,-17.0,0.0
-146.0,-82.0,2.0,55.0,52.0,42.0,49.0,12.0,8.0,-47.0,0.0
-129.0,-66.0,-11.0,34.0,44.0,28.0,51.0,7.0,11.0,-28.0,0.0
-80.0,-47.0,-25.0,8.0,23.0,7.0,49.0,-5.0,0.0,-11.0,0.0
3.0,-25.0,-30.0,-25.0,-1.0,-9.0,30.0,-17.0,-8.0,-2.0,0.0
75.0,-9.0,-26.0,-43.0,-10.0,-12.0,9.0,-33.0,-15.0,-7.0,0.0
90.0,6.0,-33.0,-44.0,-10.0,-16.0,-9.0,-39.0,-31.0,-11.0,0.0
72.0,31.0,-23.0,-43.0,-16.0,-16.0,-31.0,-41.0,-40.0,-20.0,0.0
83.0,73.0,-12.0,-36.0,-19.0,-10.0,-25.0,-45.0,-38.0,-34.0,0.0
79.0,129.0,-15.0,-36.0,-6.0,1.0,-3.0,-47.0,-38.0,-55.0,0.0
59.0,145.0,-30.0,-11.0,0.0,3.0,10.0,-33.0,-34.0,-64.0,0.0
39.0,128.0,-24.0,-4.0,0.0,6.0,11.0,-9.0,-9.0,-31.0,0.0
30.0,71.0,-23.0,-8.0,7.0,32.0,33.0,27.0,46.0,35.0,0.0
-3.0,-2.0,-37.0,2.0,24.0,47.0,44.0,51.0,61.0,62.0,0.0
-77.0,-80.0,-52.0,2.0,25.0,57.0,34.0,65.0,61.0,58.0,0.0
-133.0,-183.0,-63.0,-6.0,26.0,57.0,33.0,57.0,60.0,36.0,0.0
-135.0,-226.0,-67.0,-8.0,41.0,65.0,43.0,64.0,71.0,34.0,0.0
-79.0,-167.0,-59.0,-8.0,35.0,53.0,30.0,53.0,55.0,46.0,0.0
-38.0,-109.0,-34.0,8.0,20.0,24.0,19.0,18.0,17.0,17.0,0.0
-33.0,-76.0,-36.0,18.0,8.0,4.0,-3.0,-4.0,-3.0,-10.0,0.0
-21.0,-35.0,-31.0,15.0,4.0,-3.0,-24.0,-18.0,-10.0,-16.0,0.0
-16.0,-13.0,-19.0,-3.0,7.0,-15.0,-45.0,-28.0,-19.0,-14.0,0.0
-28.0,-37.0,5.0,-19.0,-6.0,-9.0,-43.0,-23.0,-29.0,-4.0,0.0
-46.0,-42.0,20.0,-10.0,-16.0,-31.0,-31.0,-19.0,-34.0,-14.0,0.0
-40.0,-30.0,27.0,3.0,-15.0,-45.0,-47.0,-18.0,-38.0,-13.0,0.0
-20.0,-9.0,28.0,1.0,-19.0,-43.0,-61.0,-27.0,-39.0,-5.0,0.0
-4.0,13.0,30.0,-2.0,-13.0,-40.0,-53.0,-40.0,-37.0,0.0,0.0
8.0,21.0,21.0,10.0,2.0,-20.0,-49.0,-24.0,-13.0,10.0,0.0
26.0,39.0,23.0,34.0,15.0,-13.0,-50.0,-17.0,-5.0,7.0,0.0
41.0,68.0,65.0,39.0,4.0,-20.0,-42.0,-15.0,-3.0,3.0,0.0
36.0,91.0,94.0,40.0,-6.0,-17.0,-43.0,-13.0,1.0,4.0,0.0
44.0,80.0,70.0,21.0,2.0,-3.0,-29.0,0.0,13.0,19.0,0.0
37.0,41.0,27.0,6.0,9.0,1.0,-2.0,5.0,25.0,32.0,0.0
16.0,16.0,15.0,-12.0,0.0,-6.0,14.0,17.0,13.0,26.0,0.0
7.0,14.0,15.0,-16.0,-22.0,-15.0,12.0,22.0,16.0,23.0,0.0
18.0,17.0,11.0,4.0,-1.0,-13.0,-10.0,12.0,5.0,20.0,0.0
-9.0,-9.0,3.0,33.0,62.0,-14.0,-23.0,-13.0,-10.0,13.0,0.0
-28.0,-18.0,-21.0,13.0,41.0,-25.0,-2.0,-24.0,-12.0,0.0,0.0
-19.0,-7.0,-29.0,-53.0,-25.0,-38.0,3.0,-12.0,-15.0,-10.0,0.0
0.0,-7.0,-24.0,-56.0,-33.0,-40.0,-5.0,-8.0,-21.0,-17.0,0.0
-7.0,-8.0,-23.0,-5.0,33.0,-37.0,-21.0,-23.0,-45.0,-41.0,0.0
-2.0,8.0,-18.0,24.0,69.0,-34.0,-8.0,-52.0,-65.0,-75.0,0.0
92.0,54.0,-7.0,3.0,21.0,-31.0,0.0,-45.0,-55.0,-62.0,0.0
160.0,83.0,-14.0,-11.0,-9.0,-18.0,-8.0,-18.0,-38.0,-29.0,0.0
155.0,75.0,-23.0,-28.0,-13.0,5.0,-4.0,7.0,-9.0,5.0,0.0
113.0,81.0,-22.0,-31.0,-23.0,22.0,-4.0,17.0,10.0,34.0,0.0
50.0,55.0,0.0,-32.0,-27.0,14.0,7.0,29.0,36.0,68.0,0.0
-13.0,56.0,35.0,11.0,0.0,12.0,-6.0,6.0,23.0,26.0,0.0
-77.0,0.0,38.0,68.0,63.0,9.0,-34.0,-12.0,-20.0,-36.0,0.0
-100.0,-78.0,-3.0,69.0,106.0,18.0,-16.0,0.0,-10.0,-30.0,0.0
-79.0,-114.0,-15.0,37.0,72.0,31.0,9.0,13.0,15.0,-1.0,0.0
-66.0,-108.0,-29.0,27.0,44.0,34.0,8.0,17.0,19.0,0.0,0.0
-61.0,-100.0,-36.0,18.0,38.0,24.0,6.0,26.0,22.0,6.0,0.0
-52.0,-85.0,-32.0,6.0,15.0,2.0,10.0,20.0,6.0,9.0,0.0
-35.0,-78.0,-38.0,-8.0,-7.0,-3.0,11.0,11.0,6.0,-6.0,0.0
-61.0,-76.0,-30.0,-19.0,-22.0,-14.0,17.0,-1.0,10.0,-18.0,0.0
-79.0,-54.0,-25.0,-11.0,-33.0,-24.0,0.0,-10.0,-7.0,-25.0,0.0
-61.0,-26.0,-14.0,5.0,-29.0,-30.0,-14.0,-6.0,-29.0,-37.0,0.0
-38.0,-6.0,-15.0,-3.0,-6.0,-23.0,0.0,0.0,-21.0,-56.0,0.0
-4.0,7.0,-15.0,-7.0,9.0,-18.0,5.0,-1.0,-15.0,-49.0,0.0
45.0,30.0,-18.0,-13.0,-3.0,-19.0,7.0,0.0,-6.0,-27.0,0.0
118.0,58.0,-9.0,-22.0,-6.0,-18.0,2.0,-6.0,-12.0,-19.0,0.0
169.0,72.0,-16.0,-22.0,0.0,-18.0,-15.0,-9.0,-23.0,-16.0,0.0
147.0,55.0,-13.0,3.0,13.0,-2.0,1.0,0.0,-17.0,-14.0,0.0
112.0,31.0,8.0,20.0,22.0,6.0,25.0,11.0,-16.0,8.0,0.0
69.0,21.0,21.0,14.0,8.0,-7.0,12.0,29.0,6.0,44.0,0.0
12.0,30.0,45.0,6.0,-3.0,-15.0,-4.0,19.0,21.0,57.0,0.0
-18.0,17.0,42.0,2.0,-7.0,-16.0,-15.0,11.0,0.0,15.0,0.0
-9.0,-19.0,5.0,-13.0,-23.0,-8.0,-12.0,19.0,-10.0,18.0,0.0
-8.0,-37.0,-10.0,-25.0,-26.0,4.0,9.0,15.0,2.0,20.0,0.0
-21.0,-14.0,-13.0,-19.0,-22.0,14.0,25.0,14.0,1.0,3.0,0.0
-91.0,-3.0,-4.0,-1.0,-10.0,17.0,26.0,15.0,-9.0,-32.0,0.0
-160.0,13.0,22.0,14.0,-2.0,10.0,13.0,14.0,-33.0,-56.0,0.0
-148.0,36.0,27.0,21.0,1.0,2.0,15.0,26.0,-40.0,-81.0,0.0
-76.0,54.0,12.0,16.0,-3.0,2.0,16.0,24.0,-41.0,-76.0,0.0
1.0,65.0,5.0,12.0,-5.0,-9.0,9.0,16.0,-40.0,-62.0,0.0
69.0,40.0,-6.0,4.0,-17.0,-14.0,15.0,2.0,-30.0,-43.0,0.0
113.0,-3.0,-30.0,-4.0,-23.0,-17.0,17.0,7.0,-15.0,-27.0,0.0
101.0,-59.0,-38.0,-3.0,-20.0,0.0,22.0,25.0,7.0,-1.0,0.0
20.0,-150.0,-41.0,0.0,-13.0,3.0,20.0,33.0,24.0,21.0,0.0
-57.0,-159.0,-32.0,-3.0,2.0,3.0,1.0,23.0,19.0,17.0,0.0
-53.0,-98.0,-19.0,-4.0,19.0,15.0,-11.0,11.0,16.0,4.0,0.0
-33.0,-47.0,-11.0,5.0,25.0,32.0,-6.0,4.0,7.0,6.0,0.0
-13.0,-24.0,-9.0,14.0,24.0,26.0,-5.0,6.0,-4.0,0.0,0.0
39.0,2.0,-8.0,1.0,15.0,10.0,-9.0,5.0,-3.0,6.0,0.0
84.0,8.0,-13.0,-7.0,1.0,0.0,-14.0,15.0,-17.0,5.0,0.0
91.0,-3.0,-21.0,-13.0,-8.0,-1.0,-9.0,18.0,-22.0,3.0,0.0
114.0,8.0,-33.0,-41.0,-16.0,-22.0,-10.0,-4.0,-19.0,31.0,0.0
130.0,40.0,-42.0,-54.0,-43.0,-29.0,-16.0,-10.0,-31.0,40.0,0.0
86.0,37.0,-66.0,-65.0,-49.0,-37.0,-23.0,-13.0,-23.0,38.0,0.0
41.0,22.0,-71.0,-63.0,-38.0,-24.0,-6.0,-14.0,-14.0,30.0,0.0
-11.0,27.0,-33.0,-28.0,-22.0,-11.0,-5.0,-22.0,-24.0,-22.0,0.0
-96.0,-6.0,-12.0,-2.0,-12.0,-5.0,-3.0,-10.0,-26.0,-41.0,0.0
-108.0,-23.0,-28.0,0.0,-10.0,-14.0,-3.0,2.0,-4.0,-11.0,0.0
-57.0,-8.0,-25.0,-1.0,-14.0,-12.0,-17.0,7.0,16.0,24.0,0.0
-47.0,-6.0,-18.0,10.0,-5.0,2.0,-6.0,17.0,7.0,8.0,0.0
-47.0,-13.0,-19.0,14.0,13.0,11.0,11.0,31.0,13.0,7.0,0.0
-24.0,-7.0,-1.0,30.0,21.0,17.0,18.0,27.0,23.0,31.0,0.0
-15.0,2.0,12.0,46.0,30.0,25.0,13.0,12.0,18.0,36.0,0.0
-5.0,8.0,25.0,59.0,47.0,29.0,-12.0,0.0,11.0,32.0,0.0
-6.0,11.0,39.0,65.0,47.0,24.0,-19.0,-18.0,-6.0,12.0,0.0
0.0,34.0,47.0,51.0,28.0,24.0,-3.0,-30.0,-5.0,16.0,0.0
9.0,45.0,52.0,27.0,14.0,12.0,-13.0,-32.0,-15.0,16.0,0.0
30.0,29.0,26.0,8.0,4.0,-6.0,-35.0,-25.0,-21.0,11.0,0.0
47.0,19.0,13.0,-2.0,2.0,-11.0,-25.0,-34.0,-17.0,1.0,0.0
73.0,23.0,17.0,-12.0,-1.0,-26.0,-15.0,-36.0,-23.0,-3.0,0.0
105.0,44.0,19.0,-26.0,-18.0,-39.0,-30.0,-37.0,-31.0,2.0,0.0
95.0,66.0,15.0,-33.0,-26.0,-31.0,-17.0,-40.0,-36.0,3.0,0.0
58.0,62.0,6.0,-28.0,-24.0,-23.0,-16.0,-30.0,-23.0,0.0,0.0
47.0,75.0,7.0,-18.0,-23.0,-13.0,-24.0,-21.0,-23.0,6.0,0.0
120.0,149.0,42.0,-4.0,-25.0,-9.0,-39.0,-36.0,-44.0,0.0,0.0
231.0,216.0,66.0,-3.0,-40.0,-36.0,-62.0,-67.0,-67.0,-12.0,0.0
256.0,183.0,68.0,-11.0,-44.0,-34.0,-41.0,-46.0,-44.0,1.0,0.0
215.0,114.0,31.0,-30.0,-35.0,-6.0,-2.0,0.0,6.0,54.0,0.0
89.0,15.0,-5.0,-20.0,13.0,27.0,11.0,42.0,59.0,137.0,0.0
-66.0,-68.0,2.0,29.0,96.0,76.0,20.0,67.0,78.0,151.0,0.0
-138.0,-44.0,43.0,56.0,92.0,69.0,26.0,44.0,49.0,101.0,0.0
-157.0,15.0,79.0,64.0,57.0,26.0,10.0,5.0,-3.0,33.0,0.0
-135.0,14.0,59.0,37.0,31.0,-4.0,-16.0,-3.0,-4.0,22.0,0.0
-77.0,-8.0,36.0,4.0,16.0,-8.0,-17.0,11.0,28.0,74.0,0.0
-62.0,-21.0,22.0,3.0,10.0,-17.0,0.0,11.0,34.0,62.0,0.0
-73.0,-59.0,2.0,12.0,5.0,-18.0,9.0,22.0,41.0,37.0,0.0
-65.0,-87.0,-15.0,4.0,-11.0,-31.0,2.0,14.0,15.0,17.0,0.0
-46.0,-76.0,-31.0,-6.0,-21.0,-37.0,3.0,-3.0,-26.0,-17.0,0.0
-47.0,-67.0,-40.0,-21.0,-26.0,-39.0,14.0,-6.0,-36.0,-42.0,0.0
-98.0,-68.0,-34.0,-23.0,-20.0,-31.0,15.0,-9.0,-47.0,-105.0,0.0
-188.0,-54.0,-28.0,-9.0,-19.0,-26.0,9.0,-2.0,-36.0,-145.0,0.0
-219.0,-55.0,-14.0,-2.0,-2.0,-12.0,14.0,9.0,-7.0,-113.0,0.0
-163.0,-39.0,-4.0,3.0,12.0,0.0,23.0,22.0,-2.0,-71.0,0.0
-105.0,-24.0,3.0,12.0,21.0,-3.0,19.0,15.0,-10.0,-57.0,0.0
-68.0,-32.0,6.0,21.0,38.0,-2.0,19.0,7.0,-6.0,-38.0,0.0
-72.0,-50.0,-8.0,20.0,62.0,28.0,45.0,19.0,7.0,-22.0,0.0
-82.0,-58.0,-25.0,11.0,62.0,32.0,62.0,34.0,11.0,-22.0,0.0
-74.0,-57.0,-19.0,0.0,47.0,24.0,49.0,33.0,1.0,-25.0,0.0
-41.0,-27.0,-8.0,-5.0,39.0,14.0,38.0,19.0,0.0,-28.0,0.0
-9.0,-6.0,-15.0,-12.0,20.0,7.0,32.0,0.0,-2.0,-31.0,0.0
-11.0,-4.0,-29.0,-25.0,5.0,6.0,10.0,0.0,-2.0,-19.0,0.0
-12.0,-16.0,-19.0,-34.0,-11.0,-1.0,-1.0,-2.0,-8.0,-18.0,0.0
-21.0,-17.0,-20.0,-36.0,-18.0,-19.0,0.0,-7.0,-21.0,-22.0,0.0
-35.0,-16.0,-27.0,-40.0,-18.0,-26.0,15.0,-9.0,-17.0,-25.0,0.0
-30.0,-27.0,-34.0,-36.0,-30.0,-23.0,12.0,-23.0,-14.0,-27.0,0.0
-19.0,-20.0,-36.0,-40.0,-35.0,-42.0,-5.0,-22.0,-25.0,-17.0,0.0
-7.0,-9.0,-30.0,-40.0,-21.0,-51.0,-23.0,-27.0,-27.0,-22.0,0.0
-6.0,-6.0,-22.0,-27.0,-21.0,-41.0,-26.0,-12.0,-17.0,-18.0,0.0
8.0,-2.0,-22.0,-15.0,-3.0,-23.0,-6.0,0.0,-5.0,-11.0,0.0
15.0,11.0,-4.0,-17.0,7.0,-18.0,4.0,4.0,1.0,3.0,0.0
23.0,25.0,6.0,-29.0,13.0,-12.0,2.0,4.0,1.0,7.0,0.0
36.0,32.0,6.0,-26.0,30.0,2.0,-4.0,7.0,15.0,20.0,0.0
49.0,38.0,2.0,-31.0,30.0,2.0,-3.0,6.0,16.0,25.0,0.0
54.0,37.0,8.0,-29.0,28.0,5.0,-1.0,0.0,7.0,24.0,0.0
48.0,28.0,17.0,-30.0,31.0,10.0,-1.0,1.0,10.0,25.0,0.0
37.0,20.0,18.0,-31.0,22.0,4.0,-15.0,1.0,5.0,22.0,0.0
29.0,13.0,15.0,-32.0,10.0,-4.0,-25.0,-9.0,-8.0,22.0,0.0
17.0,14.0,-4.0,-41.0,-1.0,-12.0,-17.0,-20.0,-13.0,2.0,0.0
5.0,1.0,-8.0,-37.0,0.0,-16.0,-12.0,-25.0,-9.0,4.0,0.0
-2.0,-23.0,-25.0,-52.0,1.0,-18.0,-30.0,-32.0,-22.0,1.0,0.0
0.0,-43.0,-29.0,-59.0,-6.0,-25.0,-32.0,-38.0,-24.0,0.0,0.0
-10.0,-38.0,-23.0,-51.0,-18.0,-22.0,-5.0,-31.0,-19.0,2.0,0.0
-9.0,-5.0,-4.0,-25.0,-15.0,-17.0,-1.0,-32.0,-23.0,-12.0,0.0
2.0,5.0,-2.0,-9.0,-16.0,-18.0,-1.0,-39.0,-25.0,-16.0,0.0
58.0,9.0,-6.0,-11.0,-6.0,-12.0,9.0,-38.0,-24.0,-9.0,0.0
130.0,38.0,-13.0,-9.0,3.0,-2.0,20.0,-29.0,-16.0,6.0,0.0
216.0,91.0,-6.0,0.0,4.0,1.0,20.0,-39.0,-25.0,6.0,0.0
327.0,162.0,19.0,9.0,13.0,7.0,10.0,-45.0,-26.0,-9.0,0.0
374.0,162.0,18.0,5.0,19.0,21.0,-2.0,-35.0,-16.0,16.0,0.0
290.0,109.0,27.0,-3.0,6.0,30.0,6.0,1.0,23.0,89.0,0.0
96.0,17.0,30.0,-13.0,-19.0,15.0,18.0,23.0,51.0,110.0,0.0
-145.0,-73.0,26.0,-1.0,-24.0,5.0,29.0,15.0,67.0,37.0,0.0
-195.0,-59.0,36.0,2.0,-35.0,-9.0,7.0,-5.0,50.0,-8.0,0.0
-101.0,-7.0,41.0,-14.0,-46.0,-35.0,-4.0,-20.0,13.0,-20.0,0.0
-80.0,-10.0,50.0,-2.0,-37.0,-27.0,2.0,-3.0,2.0,-15.0,0.0
-62.0,0.0,56.0,30.0,-7.0,4.0,3.0,-2.0,-2.0,-18.0,0.0
-66.0,-6.0,23.0,45.0,36.0,0.0,-8.0,-30.0,-17.0,-17.0,0.0
-93.0,-41.0,-19.0,33.0,66.0,-25.0,-37.0,-47.0,-15.0,-13.0,0.0
-127.0,-62.0,-15.0,7.0,34.0,-19.0,-40.0,-30.0,2.0,1.0,0.0
-161.0,-89.0,-18.0,10.0,11.0,-3.0,-15.0,-16.0,16.0,23.0,0.0
-158.0,-109.0,0.0,31.0,6.0,-3.0,-8.0,-17.0,13.0,18.0,0.0
-132.0,-111.0,8.0,30.0,15.0,3.0,-12.0,-10.0,48.0,44.0,0.0
-122.0,-109.0,-5.0,23.0,17.0,19.0,-4.0,14.0,61.0,32.0,0.0
-101.0,-98.0,10.0,30.0,23.0,26.0,7.0,14.0,34.0,-19.0,0.0
-36.0,-55.0,12.0,12.0,26.0,21.0,5.0,-4.0,11.0,-45.0,0.0
4.0,-26.0,5.0,1.0,31.0,15.0,-4.0,-15.0,3.0,-73.0,0.0
-18.0,-27.0,-1.0,-9.0,34.0,24.0,3.0,-1.0,-4.0,-69.0,0.0
-48.0,-45.0,-2.0,-6.0,33.0,24.0,7.0,1.0,10.0,-47.0,0.0
-75.0,-55.0,-13.0,13.0,11.0,17.0,12.0,0.0,5.0,-56.0,0.0
-78.0,-80.0,-31.0,7.0,3.0,10.0,32.0,13.0,14.0,-51.0,0.0
-68.0,-87.0,-48.0,-15.0,3.0,12.0,42.0,20.0,41.0,-19.0,0.0
-54.0,-62.0,-48.0,-19.0,-7.0,7.0,19.0,4.0,32.0,-16.0,0.0
-49.0,-26.0,-48.0,-12.0,-22.0,-11.0,-14.0,-10.0,8.0,-39.0,0.0
-54.0,-14.0,-38.0,-17.0,-32.0,-20.0,-27.0,-11.0,-15.0,-69.0,0.0
-37.0,-14.0,-39.0,-26.0,-43.0,-38.0,-15.0,-29.0,-20.0,-58.0,0.0
-20.0,-25.0,-31.0,-34.0,-46.0,-37.0,-22.0,-34.0,-27.0,-36.0,0.0
-42.0,-31.0,-8.0,-31.0,-45.0,-34.0,-40.0,-47.0,-41.0,-47.0,0.0
-64.0,-34.0,-2.0,-29.0,-33.0,-14.0,-22.0,-33.0,-33.0,-48.0,0.0
-58.0,-25.0,-6.0,-31.0,-7.0,-1.0,-2.0,-4.0,-18.0,-26.0,0.0
-20.0,-1.0,-1.0,-23.0,11.0,4.0,-9.0,3.0,-7.0,-5.0,0.0
44.0,12.0,6.0,-19.0,17.0,1.0,1.0,5.0,13.0,6.0,0.0
104.0,11.0,23.0,1.0,31.0,-2.0,-6.0,0.0,13.0,17.0,0.0
112.0,10.0,11.0,27.0,32.0,-2.0,-17.0,-7.0,18.0,33.0,0.0
75.0,12.0,5.0,23.0,30.0,13.0,-10.0,-2.0,24.0,46.0,0.0
57.0,27.0,2.0,15.0,15.0,4.0,-17.0,-14.0,3.0,33.0,0.0
28.0,30.0,-2.0,11.0,-5.0,-1.0,-27.0,-12.0,-13.0,1.0,0.0
-13.0,14.0,-6.0,4.0,-22.0,-6.0,-37.0,-14.0,-7.0,-19.0,0.0
-15.0,7.0,-11.0,-12.0,-32.0,-13.0,-12.0,-17.0,-7.0,-23.0,0.0
-4.0,2.0,-8.0,-24.0,-22.0,-19.0,-13.0,-17.0,-16.0,-22.0,0.0
-8.0,5.0,-5.0,-19.0,-34.0,-23.0,-30.0,-20.0,-27.0,-34.0,0.0
-14.0,-6.0,-17.0,-17.0,-44.0,-43.0,-27.0,-33.0,-37.0,-41.0,0.0
-23.0,-32.0,-16.0,-29.0,-40.0,-55.0,-29.0,-28.0,-25.0,-32.0,0.0
-19.0,-30.0,-4.0,-29.0,-35.0,-29.0,-18.0,-20.0,-17.0,-7.0,0.0
-16.0,-16.0,1.0,-40.0,-18.0,-7.0,-16.0,-20.0,-11.0,10.0,0.0
-3.0,27.0,3.0,-33.0,-10.0,-12.0,-30.0,-23.0,-34.0,-12.0,0.0
56.0,76.0,0.0,-20.0,0.0,-14.0,-26.0,-23.0,-43.0,-23.0,0.0
102.0,103.0,0.0,-4.0,10.0,-10.0,-26.0,-5.0,-41.0,-12.0,0.0
122.0,83.0,1.0,-7.0,20.0,-10.0,-9.0,6.0,-27.0,16.0,0.0
80.0,30.0,3.0,-10.0,26.0,8.0,13.0,38.0,8.0,51.0,0.0
0.0,-27.0,1.0,9.0,34.0,34.0,22.0,49.0,39.0,49.0,0.0
-28.0,-16.0,24.0,25.0,34.0,29.0,9.0,29.0,17.0,20.0,0.0
17.0,44.0,42.0,19.0,18.0,12.0,-9.0,16.0,0.0,15.0,0.0
75.0,80.0,24.0,-12.0,-6.0,-7.0,-30.0,9.0,-7.0,16.0,0.0
117.0,83.0,-14.0,-45.0,-36.0,-17.0,-33.0,-1.0,-13.0,16.0,0.0
131.0,61.0,-24.0,-55.0,-58.0,-24.0,-29.0,4.0,-10.0,15.0,0.0
110.0,27.0,-30.0,-53.0,-53.0,-11.0,-13.0,10.0,23.0,59.0,0.0
12.0,-37.0,-38.0,-11.0,3.0,4.0,2.0,7.0,32.0,63.0,0.0
-117.0,-118.0,-38.0,31.0,60.0,15.0,-4.0,5.0,1.0,2.0,0.0
-141.0,-136.0,-41.0,17.0,28.0,7.0,-8.0,5.0,-11.0,-16.0,0.0
-83.0,-93.0,-32.0,4.0,-1.0,2.0,-14.0,-2.0,-28.0,-30.0,0.0
-30.0,-40.0,-17.0,0.0,-7.0,3.0,-10.0,0.0,-37.0,-26.0,0.0
15.0,13.0,-2.0,7.0,-3.0,8.0,9.0,2.0,-33.0,-12.0,0.0
23.0,26.0,1.0,0.0,0.0,6.0,16.0,20.0,-11.0,8.0,0.0
-3.0,13.0,9.0,0.0,15.0,7.0,1.0,3.0,0.0,12.0,0.0
-26.0,-13.0,26.0,12.0,28.0,4.0,-5.0,-6.0,-11.0,-3.0,0.0
-16.0,-25.0,20.0,-10.0,31.0,-2.0,-4.0,11.0,3.0,15.0,0.0
-1.0,-19.0,-3.0,-26.0,23.0,2.0,-5.0,24.0,-5.0,25.0,0.0
-6.0,-12.0,-14.0,-12.0,24.0,6.0,12.0,26.0,4.0,18.0,0.0
-28.0,-6.0,4.0,-6.0,21.0,3.0,6.0,3.0,3.0,7.0,0.0
-46.0,-11.0,24.0,-4.0,25.0,-4.0,-10.0,-12.0,-5.0,3.0,0.0
-63.0,-22.0,29.0,9.0,23.0,11.0,1.0,-18.0,-8.0,3.0,0.0
-87.0,-40.0,22.0,18.0,15.0,9.0,-3.0,-15.0,-2.0,-29.0,0.0
-89.0,-46.0,1.0,13.0,-2.0,-7.0,-3.0,-16.0,-8.0,-49.0,0.0
-64.0,-52.0,-17.0,-2.0,-17.0,-18.0,10.0,-10.0,-2.0,-29.0,0.0
-76.0,-51.0,-23.0,-1.0,-27.0,-20.0,21.0,8.0,1.0,-35.0,0.0
-93.0,-44.0,-23.0,-4.0,-25.0,-15.0,24.0,15.0,-7.0,-44.0,0.0
-48.0,-34.0,-23.0,-23.0,-24.0,-28.0,23.0,14.0,-5.0,-19.0,0.0
-17.0,-30.0,-35.0,-15.0,-25.0,-44.0,19.0,14.0,1.0,-4.0,0.0
-40.0,-29.0,-8.0,16.0,-17.0,-25.0,4.0,20.0,-4.0,-35.0,0.0
-57.0,-24.0,14.0,38.0,-4.0,7.0,11.0,22.0,-12.0,-60.0,0.0
-16.0,-7.0,20.0,48.0,5.0,7.0,31.0,22.0,-4.0,-49.0,0.0
7.0,18.0,28.0,41.0,4.0,-3.0,26.0,13.0,7.0,-31.0,0.0
17.0,23.0,19.0,29.0,-12.0,-7.0,15.0,12.0,14.0,0.0,0.0
43.0,32.0,19.0,19.0,-23.0,-7.0,11.0,18.0,20.0,10.0,0.0
36.0,59.0,22.0,25.0,1.0,6.0,8.0,21.0,26.0,-1.0,0.0
9.0,82.0,10.0,35.0,28.0,13.0,9.0,30.0,34.0,-11.0,0.0
10.0,90.0,-4.0,18.0,18.0,-4.0,3.0,17.0,23.0,-9.0,0.0
12.0,81.0,-9.0,5.0,-5.0,-9.0,-8.0,15.0,26.0,-1.0,0.0
13.0,79.0,-11.0,5.0,-15.0,-16.0,-7.0,-5.0,-2.0,-18.0,0.0
8.0,48.0,-19.0,7.0,-18.0,-27.0,-20.0,-20.0,-23.0,-30.0,0.0
0.0,4.0,-23.0,6.0,-20.0,-39.0,-19.0,-20.0,-16.0,-31.0,0.0
-20.0,-64.0,-49.0,-8.0,-28.0,-43.0,-13.0,-15.0,-8.0,-8.0,0.0
-25.0,-154.0,-89.0,-35.0,-37.0,-37.0,-18.0,-11.0,6.0,13.0,0.0
-14.0,-144.0,-85.0,-39.0,-34.0,-18.0,4.0,-10.0,12.0,10.0,0.0
0.0,-79.0,-66.0,-23.0,-15.0,-4.0,28.0,5.0,27.0,2.0,0.0
21.0,-28.0,-35.0,-11.0,-7.0,1.0,16.0,8.0,39.0,-9.0,0.0
48.0,8.0,-9.0,-2.0,-3.0,2.0,-5.0,7.0,26.0,0.0,0.0
73.0,18.0,-17.0,4.0,-5.0,19.0,11.0,14.0,42.0,15.0,0.0
93.0,27.0,-23.0,3.0,1.0,29.0,39.0,27.0,51.0,27.0,0.0
93.0,30.0,-5.0,5.0,13.0,30.0,38.0,27.0,45.0,36.0,0.0
88.0,39.0,15.0,16.0,7.0,17.0,15.0,8.0,36.0,25.0,0.0
79.0,46.0,24.0,25.0,0.0,-7.0,-19.0,-12.0,2.0,9.0,0.0
52.0,30.0,23.0,13.0,0.0,-22.0,-30.0,-18.0,-12.0,4.0,0.0
0.0,-2.0,12.0,5.0,0.0,-29.0,-32.0,-17.0,-13.0,14.0,0.0
-39.0,-15.0,4.0,0.0,4.0,-22.0,-28.0,-26.0,-21.0,-19.0,0.0
-32.0,24.0,22.0,-12.0,-10.0,-28.0,-28.0,-34.0,-43.0,-43.0,0.0
-23.0,49.0,53.0,-10.0,-11.0,-40.0,-36.0,-49.0,-45.0,-42.0,0.0
1.0,65.0,51.0,-2.0,-19.0,-33.0,-21.0,-53.0,-26.0,-38.0,0.0
62.0,84.0,40.0,-14.0,-19.0,-21.0,-17.0,-41.0,-11.0,-33.0,0.0
118.0,72.0,25.0,-24.0,-15.0,-21.0,-10.0,-33.0,3.0,-7.0,0.0
111.0,45.0,9.0,-31.0,-19.0,-22.0,-8.0,-40.0,11.0,21.0,0.0
66.0,17.0,-4.0,-27.0,-8.0,-6.0,-7.0,-26.0,11.0,28.0,0.0
37.0,-1.0,-1.0,-29.0,-1.0,1.0,-6.0,-6.0,18.0,50.0,0.0
23.0,11.0,12.0,-6.0,5.0,6.0,-16.0,-6.0,5.0,45.0,0.0
0.0,41.0,41.0,26.0,5.0,13.0,-14.0,-11.0,-3.0,18.0,0.0
-6.0,40.0,37.0,23.0,5.0,20.0,-11.0,-9.0,6.0,26.0,0.0
13.0,22.0,19.0,13.0,1.0,17.0,-14.0,-1.0,12.0,43.0,0.0
7.0,-8.0,-4.0,1.0,-4.0,18.0,0.0,4.0,22.0,57.0,0.0
-44.0,-51.0,-4.0,12.0,5.0,23.0,-2.0,13.0,14.0,18.0,0.0
-83.0,-56.0,2.0,24.0,16.0,25.0,-8.0,21.0,6.0,-26.0,0.0
-68.0,-32.0,0.0,25.0,6.0,10.0,5.0,18.0,11.0,-36.0,0.0
-25.0,-5.0,6.0,5.0,-2.0,-7.0,-5.0,1.0,4.0,-29.0,0.0
-4.0,17.0,0.0,-23.0,-17.0,-20.0,-17.0,-10.0,-3.0,-31.0,0.0
28.0,39.0,-16.0,-64.0,-42.0,-36.0,-38.0,-25.0,-14.0,-22.0,0.0
116.0,75.0,-22.0,-98.0,-75.0,-49.0,-56.0,-39.0,-31.0,-22.0,0.0
169.0,80.0,-24.0,-103.0,-82.0,-48.0,-55.0,-28.0,-30.0,-22.0,0.0
136.0,55.0,-30.0,-92.0,-71.0,-38.0,-35.0,-6.0,-27.0,-13.0,0.0
93.0,16.0,-21.0,-77.0,-62.0,-20.0,-17.0,7.0,-5.0,10.0,0.0
24.0,-27.0,-4.0,-33.0,3.0,6.0,2.0,22.0,13.0,44.0,0.0
-46.0,-55.0,16.0,13.0,75.0,32.0,0.0,34.0,32.0,47.0,0.0
-53.0,-39.0,40.0,21.0,62.0,27.0,6.0,52.0,50.0,61.0,0.0
-21.0,-9.0,43.0,33.0,49.0,19.0,4.0,50.0,37.0,54.0,0.0
-2.0,1.0,32.0,37.0,57.0,19.0,6.0,50.0,31.0,37.0,0.0
15.0,37.0,36.0,40.0,51.0,20.0,22.0,38.0,26.0,15.0,0.0
8.0,51.0,43.0,38.0,26.0,20.0,8.0,13.0,7.0,8.0,0.0
-27.0,21.0,31.0,33.0,20.0,21.0,7.0,7.0,-10.0,-2.0,0.0
-61.0,-26.0,19.0,24.0,22.0,19.0,26.0,0.0,-20.0,-24.0,0.0
-113.0,-68.0,1.0,17.0,7.0,1.0,8.0,-7.0,-24.0,-39.0,0.0
-156.0,-119.0,-18.0,8.0,-3.0,0.0,8.0,6.0,-1.0,-30.0,0.0
-167.0,-120.0,0.0,6.0,-6.0,-3.0,20.0,9.0,-16.0,-39.0,0.0
-168.0,-87.0,10.0,11.0,-17.0,-16.0,12.0,1.0,-37.0,-57.0,0.0
-134.0,-70.0,13.0,10.0,-10.0,-15.0,0.0,0.0,-32.0,-52.0,0.0
-88.0,-64.0,-5.0,-5.0,-13.0,-9.0,5.0,-1.0,-29.0,-32.0,0.0
-64.0,-53.0,-20.0,-14.0,-15.0,-1.0,-8.0,4.0,-19.0,-24.0,0.0
-44.0,-12.0,4.0,-4.0,-7.0,3.0,-2.0,21.0,-16.0,-24.0,0.0
-36.0,25.0,40.0,28.0,29.0,6.0,5.0,26.0,-2.0,-23.0,0.0
-28.0,18.0,16.0,51.0,104.0,14.0,-8.0,17.0,7.0,-28.0,0.0
-12.0,17.0,11.0,37.0,98.0,21.0,-16.0,5.0,2.0,-31.0,0.0
9.0,23.0,6.0,22.0,66.0,31.0,-13.0,20.0,23.0,1.0,0.0
31.0,21.0,-2.0,26.0,60.0,27.0,5.0,22.0,28.0,16.0,0.0
39.0,21.0,1.0,28.0,47.0,19.0,0.0,18.0,8.0,13.0,0.0
33.0,19.0,-2.0,22.0,29.0,17.0,-13.0,11.0,-2.0,14.0,0.0
24.0,5.0,-12.0,15.0,27.0,15.0,-1.0,-1.0,-6.0,0.0,0.0
12.0,7.0,-9.0,0.0,27.0,10.0,-12.0,-1.0,-11.0,-7.0,0.0
3.0,0.0,-16.0,-10.0,20.0,-3.0,-5.0,-3.0,-20.0,3.0,0.0
-3.0,-8.0,-29.0,-16.0,4.0,-20.0,-1.0,-5.0,-20.0,2.0,0.0
-9.0,-13.0,-33.0,-15.0,-8.0,-32.0,-12.0,-13.0,-31.0,-8.0,0.0
-1.0,-20.0,-36.0,-13.0,2.0,-22.0,-12.0,-7.0,-35.0,-23.0,0.0
11.0,-18.0,-33.0,-11.0,-7.0,-26.0,-13.0,-9.0,-42.0,-21.0,0.0
10.0,-29.0,-49.0,-23.0,-26.0,-23.0,1.0,-6.0,-29.0,-13.0,0.0
-1.0,-44.0,-44.0,-34.0,-21.0,-14.0,6.0,4.0,-21.0,-23.0,0.0
24.0,-9.0,-24.0,-55.0,-15.0,-15.0,7.0,16.0,-5.0,-17.0,0.0
89.0,44.0,-11.0,-59.0,-27.0,-23.0,0.0,7.0,-6.0,-3.0,0.0
159.0,102.0,9.0,-49.0,-23.0,-25.0,-6.0,-11.0,-19.0,6.0,0.0
198.0,128.0,17.0,-36.0,-19.0,-12.0,-2.0,1.0,-15.0,20.0,0.0
183.0,104.0,10.0,-14.0,-18.0,16.0,8.0,32.0,20.0,48.0,0.0
180.0,86.0,3.0,-22.0,-31.0,23.0,19.0,40.0,30.0,63.0,0.0
128.0,75.0,7.0,-30.0,-30.0,8.0,8.0,24.0,25.0,44.0,0.0
45.0,28.0,11.0,25.0,55.0,7.0,-8.0,8.0,8.0,3.0,0.0
-2.0,-22.0,0.0,78.0,113.0,7.0,2.0,7.0,0.0,-7.0,0.0
-52.0,-46.0,3.0,52.0,58.0,-4.0,11.0,3.0,14.0,-9.0,0.0
-136.0,-102.0,13.0,25.0,13.0,-15.0,25.0,10.0,0.0,-53.0,0.0
-150.0,-107.0,7.0,18.0,7.0,1.0,46.0,9.0,-9.0,-81.0,0.0
-100.0,-73.0,-3.0,-7.0,-18.0,-5.0,62.0,15.0,-2.0,-77.0,0.0
-67.0,-58.0,24.0,-8.0,-34.0,-21.0,33.0,4.0,-24.0,-71.0,0.0
-75.0,-56.0,39.0,32.0,37.0,-12.0,2.0,-16.0,-29.0,-43.0,0.0
-54.0,-48.0,9.0,50.0,94.0,-5.0,5.0,-12.0,-10.0,37.0,0.0
-1.0,-5.0,-1.0,15.0,57.0,-18.0,22.0,2.0,14.0,100.0,0.0
45.0,42.0,9.0,-7.0,34.0,-9.0,13.0,8.0,27.0,76.0,0.0
35.0,50.0,23.0,5.0,36.0,0.0,7.0,12.0,7.0,25.0,0.0
10.0,22.0,26.0,7.0,42.0,18.0,23.0,24.0,18.0,19.0,0.0
-43.0,-37.0,-1.0,-3.0,43.0,18.0,27.0,19.0,11.0,10.0,0.0
-90.0,-88.0,-9.0,-13.0,26.0,12.0,0.0,9.0,1.0,-13.0,0.0
-116.0,-80.0,2.0,-14.0,12.0,9.0,-3.0,5.0,-7.0,-46.0,0.0
-127.0,-66.0,16.0,-8.0,15.0,-3.0,8.0,0.0,-11.0,-55.0,0.0
-112.0,-51.0,22.0,0.0,12.0,-9.0,15.0,0.0,3.0,-27.0,0.0
-88.0,-33.0,6.0,-10.0,3.0,-2.0,23.0,10.0,26.0,15.0,0.0
-72.0,-28.0,-6.0,-20.0,-4.0,-3.0,33.0,6.0,26.0,20.0,0.0
-51.0,-32.0,-15.0,-25.0,1.0,-7.0,29.0,-3.0,11.0,18.0,0.0
-9.0,-22.0,-37.0,-22.0,-10.0,-26.0,23.0,-18.0,-6.0,0.0,0.0
7.0,-31.0,-40.0,-27.0,-17.0,-37.0,9.0,-26.0,-1.0,-26.0,0.0
-14.0,-41.0,-35.0,-30.0,-19.0,-39.0,10.0,-30.0,6.0,-26.0,0.0
-36.0,-36.0,-22.0,-26.0,-13.0,-37.0,13.0,-27.0,4.0,-21.0,0.0
-55.0,-28.0,2.0,-20.0,-4.0,-31.0,7.0,-29.0,-2.0,-17.0,0.0
-90.0,-21.0,13.0,-9.0,13.0,-21.0,-7.0,-26.0,-7.0,-28.0,0.0
-94.0,-15.0,12.0,-4.0,29.0,-8.0,-8.0,-12.0,-1.0,-21.0,0.0
-64.0,-4.0,5.0,-2.0,44.0,-3.0,-5.0,0.0,4.0,-11.0,0.0
-33.0,11.0,3.0,8.0,48.0,10.0,-6.0,8.0,11.0,-8.0,0.0
-15.0,16.0,4.0,9.0,41.0,24.0,-3.0,18.0,11.0,0.0,0.0
-3.0,26.0,16.0,8.0,37.0,11.0,7.0,17.0,19.0,9.0,0.0
0.0,32.0,24.0,0.0,33.0,5.0,8.0,4.0,21.0,8.0,0.0
1.0,22.0,18.0,2.0,32.0,4.0,-6.0,0.0,21.0,1.0,0.0
-9.0,17.0,18.0,13.0,19.0,10.0,-1.0,0.0,23.0,6.0,0.0
-13.0,12.0,21.0,7.0,10.0,8.0,10.0,-12.0,13.0,8.0,0.0
-22.0,2.0,10.0,-3.0,2.0,-1.0,-5.0,-18.0,0.0,-4.0,0.0
-32.0,0.0,4.0,-6.0,-5.0,-12.0,-13.0,-28.0,-2.0,-4.0,0.0
-38.0,-7.0,1.0,-14.0,-14.0,-22.0,-6.0,-32.0,-9.0,-13.0,0.0
-33.0,0.0,1.0,-27.0,-3.0,-19.0,-16.0,-23.0,-17.0,-24.0,0.0
-20.0,11.0,2.0,-40.0,2.0,-11.0,-20.0,-23.0,-20.0,-13.0,0.0
-7.0,12.0,1.0,-42.0,13.0,1.0,-17.0,-21.0,-17.0,-6.0,0.0
2.0,9.0,1.0,-35.0,20.0,7.0,-25.0,-16.0,-20.0,1.0,0.0
23.0,31.0,15.0,-24.0,26.0,14.0,-14.0,-5.0,-10.0,12.0,0.0
67.0,52.0,27.0,-8.0,27.0,6.0,-15.0,-7.0,5.0,33.0,0.0
115.0,60.0,19.0,-14.0,31.0,9.0,-15.0,-10.0,7.0,37.0,0.0
161.0,74.0,11.0,-1.0,31.0,20.0,-7.0,-4.0,12.0,55.0,0.0
184.0,92.0,3.0,12.0,27.0,20.0,-8.0,6.0,18.0,55.0,0.0
198.0,99.0,15.0,22.0,35.0,21.0,-4.0,6.0,10.0,44.0,0.0
160.0,85.0,20.0,24.0,45.0,26.0,3.0,14.0,6.0,33.0,0.0
103.0,67.0,-3.0,24.0,30.0,39.0,-8.0,24.0,25.0,60.0,0.0
85.0,92.0,-9.0,20.0,18.0,27.0,0.0,13.0,2.0,54.0,0.0
88.0,136.0,-14.0,3.0,5.0,10.0,9.0,-6.0,-30.0,40.0,0.0
103.0,181.0,-11.0,-6.0,-9.0,-11.0,-8.0,-22.0,-40.0,26.0,0.0
116.0,223.0,5.0,-4.0,-17.0,-25.0,-23.0,-30.0,-51.0,11.0,0.0
85.0,204.0,29.0,4.0,-20.0,-29.0,-9.0,-34.0,-45.0,17.0,0.0
-12.0,65.0,12.0,-6.0,-5.0,-26.0,2.0,-1.0,-31.0,0.0,0.0
-87.0,-60.0,-15.0,-24.0,4.0,-15.0,34.0,40.0,-9.0,-2.0,0.0
-126.0,-115.0,-21.0,4.0,19.0,-6.0,34.0,29.0,-12.0,-2.0,0.0
-165.0,-123.0,-6.0,34.0,48.0,5.0,38.0,22.0,-21.0,-33.0,0.0
-194.0,-104.0,17.0,48.0,47.0,12.0,28.0,14.0,-15.0,-42.0,0.0
-236.0,-138.0,25.0,64.0,56.0,18.0,18.0,17.0,-1.0,-39.0,0.0
-227.0,-173.0,0.0,56.0,74.0,32.0,36.0,55.0,50.0,23.0,0.0
-159.0,-124.0,3.0,50.0,61.0,35.0,34.0,60.0,68.0,57.0,0.0
-104.0,-77.0,12.0,38.0,34.0,25.0,25.0,39.0,47.0,36.0,0.0
-26.0,-41.0,6.0,25.0,25.0,14.0,21.0,27.0,42.0,34.0,0.0
37.0,-17.0,1.0,18.0,36.0,10.0,3.0,19.0,25.0,25.0,0.0
64.0,-32.0,-11.0,13.0,31.0,-6.0,-4.0,1.0,-6.0,11.0,0.0
60.0,-61.0,-19.0,11.0,20.0,2.0,-3.0,-8.0,-25.0,-23.0,0.0
39.0,-74.0,-23.0,2.0,8.0,5.0,-2.0,-5.0,-28.0,-28.0,0.0
-14.0,-68.0,-21.0,-1.0,0.0,-15.0,-13.0,-16.0,-29.0,-17.0,0.0
-64.0,-81.0,-13.0,6.0,-2.0,-29.0,5.0,-11.0,-2.0,6.0,0.0
-73.0,-85.0,-24.0,2.0,-4.0,-32.0,18.0,-14.0,-7.0,-11.0,0.0
-92.0,-81.0,-18.0,-2.0,1.0,-22.0,13.0,-6.0,-17.0,-36.0,0.0
-106.0,-89.0,-5.0,3.0,11.0,-7.0,11.0,0.0,-5.0,-39.0,0.0
-100.0,-81.0,10.0,10.0,3.0,-13.0,17.0,-12.0,-8.0,-22.0,0.0
-69.0,-54.0,19.0,18.0,4.0,-15.0,23.0,-18.0,-7.0,-21.0,0.0
-23.0,-33.0,17.0,28.0,24.0,-6.0,33.0,-13.0,-1.0,-24.0,0.0
10.0,-15.0,8.0,17.0,21.0,0.0,46.0,0.0,4.0,-6.0,0.0
32.0,-6.0,7.0,13.0,12.0,14.0,31.0,14.0,25.0,18.0,0.0
42.0,18.0,22.0,16.0,18.0,20.0,13.0,12.0,30.0,27.0,0.0
45.0,30.0,24.0,27.0,25.0,23.0,-1.0,0.0,20.0,36.0,0.0
43.0,29.0,24.0,25.0,27.0,30.0,-9.0,-4.0,15.0,37.0,0.0
39.0,27.0,21.0,18.0,22.0,23.0,-3.0,-11.0,3.0,33.0,0.0
36.0,37.0,15.0,10.0,22.0,10.0,-15.0,-17.0,2.0,15.0,0.0
25.0,37.0,3.0,-9.0,18.0,-7.0,-28.0,-24.0,-7.0,0.0,0.0
27.0,33.0,-6.0,-4.0,14.0,-15.0,-13.0,-15.0,-7.0,-2.0,0.0
17.0,29.0,-11.0,-11.0,9.0,-34.0,-7.0,-9.0,-4.0,2.0,0.0
7.0,10.0,-8.0,-21.0,-7.0,-38.0,-21.0,-28.0,-13.0,-19.0,0.0
11.0,6.0,-34.0,-23.0,-8.0,-29.0,-13.0,-31.0,-16.0,-24.0,0.0
4.0,6.0,-37.0,-32.0,-2.0,-17.0,0.0,-28.0,-16.0,-17.0,0.0
1.0,6.0,-21.0,-20.0,-7.0,-14.0,-16.0,-28.0,-12.0,-23.0,0.0
14.0,5.0,-18.0,-15.0,5.0,-13.0,-20.0,-30.0,0.0,-12.0,0.0
20.0,10.0,-22.0,-11.0,28.0,-6.0,-9.0,-21.0,9.0,2.0,0.0
29.0,13.0,-17.0,-9.0,42.0,10.0,-10.0,0.0,18.0,6.0,0.0
43.0,10.0,-15.0,-10.0,39.0,27.0,-10.0,14.0,24.0,31.0,0.0
47.0,15.0,-18.0,-11.0,32.0,37.0,3.0,8.0,40.0,34.0,0.0
38.0,26.0,0.0,-9.0,35.0,38.0,10.0,7.0,40.0,28.0,0.0
32.0,29.0,17.0,-3.0,32.0,32.0,1.0,14.0,37.0,22.0,0.0
36.0,24.0,13.0,-6.0,20.0,18.0,0.0,8.0,35.0,20.0,0.0
43.0,45.0,14.0,-15.0,11.0,5.0,0.0,0.0,33.0,11.0,0.0
40.0,67.0,23.0,-15.0,7.0,-1.0,-12.0,-1.0,31.0,6.0,0.0
36.0,65.0,14.0,-18.0,5.0,-15.0,-24.0,-14.0,23.0,-9.0,0.0
17.0,43.0,-7.0,-23.0,0.0,-30.0,-17.0,-31.0,8.0,-13.0,0.0
6.0,21.0,-31.0,-41.0,-10.0,-29.0,-18.0,-28.0,9.0,-12.0,0.0
0.0,-5.0,-37.0,-45.0,-31.0,-25.0,-26.0,-24.0,-2.0,-16.0,0.0
-17.0,-20.0,-25.0,-36.0,-27.0,-24.0,-13.0,-5.0,-2.0,-17.0,0.0
-21.0,-10.0,-5.0,-27.0,-30.0,-27.0,-18.0,-9.0,-3.0,-26.0,0.0
3.0,1.0,13.0,-15.0,-28.0,-30.0,-19.0,-10.0,-15.0,-21.0,0.0
11.0,3.0,6.0,-9.0,-22.0,-19.0,3.0,-1.0,-11.0,-16.0,0.0
34.0,21.0,7.0,-5.0,-23.0,-11.0,-1.0,10.0,0.0,-12.0,0.0
70.0,45.0,13.0,-15.0,-32.0,-6.0,-11.0,16.0,8.0,-3.0,0.0
76.0,51.0,3.0,0.0,9.0,5.0,-5.0,2.0,13.0,-2.0,0.0
79.0,51.0,-1.0,19.0,63.0,29.0,-19.0,-1.0,5.0,-2.0,0.0
102.0,68.0,-1.0,12.0,47.0,36.0,-31.0,2.0,0.0,9.0,0.0
103.0,76.0,21.0,5.0,9.0,28.0,-12.0,6.0,-8.0,-8.0,0.0
94.0,58.0,34.0,3.0,1.0,21.0,-9.0,9.0,-14.0,-4.0,0.0
102.0,62.0,27.0,-22.0,-22.0,13.0,7.0,0.0,-8.0,14.0,0.0
97.0,58.0,10.0,-47.0,-60.0,5.0,15.0,3.0,6.0,24.0,0.0
38.0,5.0,-6.0,-34.0,-25.0,10.0,-1.0,-5.0,-6.0,1.0,0.0
-36.0,-58.0,-22.0,0.0,66.0,9.0,-12.0,-23.0,-39.0,-36.0,0.0
-67.0,-76.0,-31.0,-6.0,59.0,6.0,-23.0,-36.0,-45.0,-25.0,0.0
-78.0,-71.0,-6.0,-22.0,6.0,0.0,-29.0,-39.0,-38.0,-12.0,0.0
-85.0,-59.0,9.0,-13.0,1.0,-6.0,-4.0,-35.0,-37.0,-44.0,0.0
-62.0,-44.0,11.0,1.0,2.0,-6.0,2.0,-23.0,-39.0,-45.0,0.0
-17.0,-23.0,0.0,-10.0,-13.0,1.0,4.0,-5.0,-29.0,-18.0,0.0
28.0,-2.0,-12.0,-34.0,-18.0,0.0,19.0,11.0,-18.0,0.0,0.0
46.0,8.0,0.0,-10.0,23.0,1.0,6.0,3.0,-37.0,-9.0,0.0
35.0,1.0,20.0,45.0,126.0,13.0,-19.0,-23.0,-60.0,-26.0,0.0
-8.0,-5.0,26.0,52.0,138.0,18.0,-12.0,-27.0,-39.0,-14.0,0.0
7.0,0.0,22.0,15.0,100.0,24.0,3.0,9.0,6.0,22.0,0.0
82.0,25.0,20.0,-6.0,68.0,19.0,-2.0,14.0,39.0,60.0,0.0
127.0,45.0,37.0,-17.0,47.0,10.0,-16.0,0.0,33.0,25.0,0.0
127.0,61.0,40.0,-21.0,21.0,-7.0,-37.0,-7.0,15.0,22.0,0.0
99.0,50.0,2.0,-33.0,2.0,-33.0,-31.0,-5.0,30.0,51.0,0.0
37.0,28.0,-8.0,-45.0,-6.0,-30.0,-28.0,3.0,35.0,64.0,0.0
-82.0,-14.0,-10.0,-25.0,-2.0,-14.0,-11.0,7.0,13.0,15.0,0.0
-196.0,-65.0,-6.0,-9.0,4.0,-17.0,1.0,-10.0,-22.0,-38.0,0.0
-231.0,-90.0,-6.0,7.0,-16.0,-17.0,-15.0,-34.0,-44.0,-73.0,0.0
-200.0,-88.0,-28.0,11.0,-21.0,-16.0,2.0,-24.0,-39.0,-78.0,0.0
-151.0,-76.0,-46.0,9.0,-21.0,-17.0,10.0,0.0,-26.0,-72.0,0.0
-122.0,-57.0,-39.0,7.0,-7.0,-5.0,10.0,18.0,-16.0,-57.0,0.0
-70.0,-47.0,-47.0,6.0,4.0,7.0,25.0,33.0,2.0,-26.0,0.0
-10.0,-27.0,-44.0,10.0,-4.0,8.0,22.0,33.0,7.0,0.0,0.0
56.0,2.0,-24.0,0.0,-16.0,7.0,-4.0,22.0,0.0,3.0,0.0
108.0,46.0,0.0,-13.0,-5.0,10.0,-21.0,6.0,-3.0,2.0,0.0
121.0,86.0,31.0,2.0,5.0,7.0,-30.0,-1.0,-12.0,11.0,0.0
107.0,83.0,27.0,7.0,-4.0,12.0,-20.0,4.0,-7.0,38.0,0.0
41.0,59.0,19.0,4.0,-15.0,10.0,-14.0,19.0,12.0,59.0,0.0
-66.0,0.0,7.0,5.0,-15.0,19.0,6.0,45.0,39.0,39.0,0.0
-92.0,-30.0,-9.0,-16.0,0.0,32.0,34.0,49.0,39.0,19.0,0.0
-74.0,-3.0,-6.0,-32.0,6.0,19.0,25.0,25.0,15.0,-23.0,0.0
-64.0,-13.0,-9.0,-31.0,3.0,8.0,5.0,2.0,-14.0,-41.0,0.0
-70.0,-39.0,-15.0,-27.0,11.0,7.0,1.0,-20.0,-31.0,-46.0,0.0
-68.0,-41.0,-25.0,-28.0,-7.0,0.0,6.0,-19.0,-24.0,-38.0,0.0
-42.0,-7.0,-17.0,-26.0,-22.0,-12.0,-6.0,-17.0,-20.0,-29.0,0.0
-24.0,38.0,-14.0,-23.0,-34.0,-19.0,1.0,-26.0,-24.0,-31.0,0.0
-40.0,45.0,-15.0,-16.0,-61.0,-24.0,-6.0,-19.0,-18.0,-24.0,0.0
-51.0,26.0,-16.0,-29.0,-67.0,-24.0,-7.0,-16.0,1.0,6.0,0.0
-34.0,1.0,-12.0,-29.0,-71.0,-26.0,-2.0,-12.0,14.0,10.0,0.0
-19.0,-38.0,0.0,-17.0,-59.0,-5.0,4.0,7.0,11.0,-3.0,0.0
-8.0,-43.0,-1.0,17.0,2.0,27.0,17.0,13.0,3.0,0.0,0.0
29.0,16.0,-8.0,60.0,65.0,41.0,14.0,-1.0,-5.0,4.0,0.0
68.0,58.0,5.0,54.0,57.0,44.0,10.0,-3.0,12.0,25.0,0.0
81.0,71.0,4.0,25.0,10.0,39.0,0.0,4.0,35.0,62.0,0.0
86.0,75.0,-9.0,11.0,-8.0,19.0,-11.0,0.0,31.0,68.0,0.0
70.0,81.0,8.0,14.0,0.0,19.0,-13.0,-1.0,13.0,36.0,0.0
54.0,92.0,40.0,29.0,17.0,35.0,-4.0,-8.0,-21.0,0.0,0.0
76.0,94.0,47.0,37.0,18.0,30.0,11.0,-18.0,-47.0,-14.0,0.0
99.0,89.0,40.0,3.0,-12.0,-3.0,-11.0,-31.0,-43.0,-9.0,0.0
112.0,79.0,24.0,-35.0,-33.0,-25.0,-13.0,-42.0,-17.0,4.0,0.0
106.0,48.0,1.0,-48.0,-38.0,-22.0,4.0,-32.0,-9.0,5.0,0.0
56.0,11.0,-28.0,-40.0,-32.0,-6.0,14.0,-4.0,5.0,8.0,0.0
-4.0,0.0,-30.0,-35.0,-23.0,-2.0,20.0,0.0,14.0,23.0,0.0
-61.0,-14.0,-31.0,-22.0,-9.0,18.0,27.0,0.0,15.0,9.0,0.0
-136.0,-73.0,-23.0,-5.0,11.0,42.0,26.0,0.0,-8.0,-8.0,0.0
-167.0,-113.0,-8.0,12.0,29.0,52.0,15.0,-8.0,-35.0,-41.0,0.0
-68.0,-92.0,-9.0,0.0,11.0,24.0,-12.0,-40.0,-63.0,-54.0,0.0
33.0,-70.0,-22.0,-34.0,-10.0,-9.0,-28.0,-41.0,-35.0,22.0,0.0
58.0,-41.0,-24.0,-46.0,-21.0,-24.0,-22.0,-20.0,17.0,105.0,0.0
15.0,-46.0,-12.0,-24.0,-18.0,-6.0,2.0,-12.0,35.0,107.0,0.0
-51.0,-79.0,-3.0,-8.0,6.0,24.0,10.0,22.0,56.0,104.0,0.0
-75.0,-90.0,1.0,4.0,23.0,33.0,8.0,32.0,60.0,88.0,0.0
-111.0,-86.0,13.0,25.0,32.0,35.0,24.0,15.0,53.0,37.0,0.0
-129.0,-84.0,13.0,27.0,24.0,33.0,34.0,23.0,65.0,15.0,0.0
-129.0,-65.0,2.0,5.0,15.0,31.0,21.0,34.0,50.0,-15.0,0.0
-106.0,-59.0,-18.0,-9.0,-4.0,27.0,13.0,32.0,33.0,-18.0,0.0
-83.0,-77.0,-33.0,-23.0,-12.0,3.0,9.0,11.0,20.0,-24.0,0.0
-81.0,-86.0,-34.0,-43.0,-8.0,5.0,13.0,10.0,22.0,-27.0,0.0
-76.0,-74.0,-23.0,-27.0,-12.0,19.0,17.0,8.0,18.0,-21.0,0.0
-55.0,-60.0,-25.0,-18.0,-23.0,25.0,18.0,2.0,4.0,-29.0,0.0
-26.0,-51.0,-25.0,-21.0,-28.0,25.0,27.0,14.0,9.0,-33.0,0.0
1.0,-39.0,-11.0,-19.0,-32.0,21.0,31.0,17.0,13.0,-12.0,0.0
22.0,-22.0,-10.0,-11.0,-29.0,22.0,26.0,24.0,13.0,1.0,0.0
30.0,-7.0,-7.0,21.0,-15.0,29.0,13.0,30.0,18.0,13.0,0.0
38.0,5.0,-4.0,46.0,13.0,40.0,8.0,31.0,17.0,23.0,0.0
43.0,19.0,3.0,63.0,38.0,45.0,12.0,27.0,18.0,20.0,0.0
36.0,24.0,19.0,71.0,34.0,40.0,21.0,28.0,14.0,13.0,0.0
38.0,24.0,22.0,45.0,13.0,30.0,-1.0,23.0,5.0,16.0,0.0
29.0,36.0,49.0,45.0,0.0,20.0,-29.0,23.0,-9.0,11.0,0.0
8.0,28.0,53.0,50.0,-1.0,16.0,-22.0,9.0,-12.0,6.0,0.0
9.0,9.0,32.0,46.0,-5.0,20.0,-24.0,-11.0,-16.0,5.0,0.0
4.0,13.0,23.0,34.0,-6.0,2.0,-24.0,-16.0,-24.0,-2.0,0.0
-10.0,4.0,17.0,17.0,-25.0,-9.0,-16.0,-16.0,-28.0,-7.0,0.0
-21.0,5.0,8.0,7.0,-35.0,-7.0,-28.0,-16.0,-28.0,-20.0,0.0
-12.0,17.0,-1.0,3.0,-36.0,-8.0,-26.0,-24.0,-24.0,-22.0,0.0
-17.0,22.0,-16.0,2.0,-48.0,-12.0,-32.0,-22.0,-19.0,-22.0,0.0
-10.0,29.0,-7.0,8.0,-52.0,-9.0,-29.0,-19.0,-16.0,-26.0,0.0
0.0,32.0,-1.0,5.0,-48.0,1.0,-20.0,-10.0,-7.0,-9.0,0.0
6.0,31.0,-8.0,5.0,-29.0,5.0,1.0,-2.0,-2.0,0.0,0.0
13.0,27.0,0.0,8.0,-21.0,18.0,33.0,10.0,19.0,-9.0,0.0
21.0,38.0,0.0,17.0,-12.0,21.0,35.0,17.0,23.0,4.0,0.0
39.0,51.0,15.0,20.0,-16.0,16.0,20.0,23.0,25.0,26.0,0.0
65.0,63.0,18.0,6.0,-18.0,19.0,5.0,28.0,32.0,42.0,0.0
67.0,58.0,15.0,-21.0,-26.0,11.0,7.0,25.0,28.0,59.0,0.0
80.0,50.0,2.0,-32.0,-32.0,-1.0,19.0,26.0,9.0,66.0,0.0
114.0,88.0,23.0,-20.0,-30.0,0.0,5.0,16.0,-9.0,40.0,0.0
145.0,141.0,34.0,-28.0,-60.0,-25.0,-20.0,-25.0,-25.0,12.0,0.0
144.0,159.0,15.0,-52.0,-89.0,-50.0,-16.0,-43.0,-21.0,10.0,0.0
103.0,135.0,6.0,-73.0,-100.0,-55.0,-10.0,-31.0,-11.0,18.0,0.0
51.0,72.0,-9.0,-66.0,-76.0,-57.0,-17.0,-21.0,0.0,27.0,0.0
47.0,43.0,-14.0,-32.0,-8.0,-57.0,-28.0,-42.0,-18.0,11.0,0.0
65.0,31.0,-10.0,-21.0,13.0,-46.0,-33.0,-51.0,-34.0,-14.0,0.0
69.0,19.0,15.0,-14.0,10.0,-21.0,1.0,-31.0,-35.0,-31.0,0.0
65.0,10.0,16.0,2.0,4.0,-10.0,10.0,-9.0,-18.0,-16.0,0.0
51.0,-5.0,-4.0,25.0,-6.0,-17.0,9.0,0.0,-4.0,12.0,0.0
-2.0,-16.0,0.0,39.0,1.0,-24.0,19.0,-2.0,-3.0,0.0,0.0
-49.0,-33.0,-3.0,34.0,-3.0,-8.0,17.0,8.0,-1.0,-10.0,0.0
-19.0,-25.0,-31.0,19.0,-10.0,10.0,6.0,30.0,19.0,23.0,0.0
2.0,0.0,-31.0,2.0,-9.0,0.0,-7.0,35.0,26.0,36.0,0.0
-15.0,-12.0,-32.0,6.0,-5.0,9.0,-9.0,31.0,14.0,3.0,0.0
-64.0,-33.0,-36.0,10.0,0.0,7.0,-21.0,20.0,1.0,-18.0,0.0
-104.0,-59.0,-30.0,-3.0,6.0,9.0,-22.0,26.0,19.0,-16.0,0.0
-160.0,-79.0,-16.0,5.0,10.0,19.0,-19.0,28.0,22.0,-37.0,0.0
-179.0,-86.0,0.0,11.0,-1.0,19.0,-20.0,9.0,-1.0,-82.0,0.0
-138.0,-71.0,-28.0,2.0,-10.0,13.0,-7.0,9.0,12.0,-75.0,0.0
-104.0,-56.0,-51.0,-13.0,-25.0,-1.0,-19.0,5.0,3.0,-72.0,0.0
-105.0,-64.0,-61.0,-26.0,-38.0,-7.0,-19.0,-11.0,-8.0,-76.0,0.0
-116.0,-72.0,-73.0,-34.0,-49.0,-19.0,-12.0,-10.0,-18.0,-70.0,0.0
-91.0,-78.0,-79.0,-42.0,-57.0,-28.0,-19.0,-5.0,-18.0,-69.0,0.0
-71.0,-62.0,-74.0,-38.0,-49.0,-20.0,-7.0,-10.0,-16.0,-57.0,0.0
-55.0,-38.0,-58.0,-36.0,-48.0,-6.0,-10.0,-12.0,-23.0,-40.0,0.0
-36.0,-19.0,-38.0,-20.0,-43.0,4.0,-3.0,-16.0,-20.0,-31.0,0.0
-18.0,2.0,-25.0,0.0,-25.0,15.0,4.0,-6.0,-5.0,-27.0,0.0
8.0,8.0,-17.0,-2.0,-24.0,32.0,2.0,2.0,11.0,-16.0,0.0
29.0,16.0,-6.0,6.0,-17.0,28.0,15.0,18.0,17.0,11.0,0.0
46.0,30.0,-12.0,10.0,-19.0,34.0,12.0,30.0,13.0,22.0,0.0
50.0,44.0,-9.0,13.0,-12.0,40.0,7.0,24.0,17.0,23.0,0.0
47.0,44.0,-17.0,16.0,-6.0,33.0,3.0,23.0,16.0,21.0,0.0
49.0,49.0,5.0,14.0,-10.0,24.0,9.0,25.0,20.0,14.0,0.0
50.0,70.0,24.0,11.0,-13.0,16.0,-1.0,22.0,16.0,7.0,0.0
43.0,70.0,23.0,11.0,-15.0,21.0,-13.0,12.0,6.0,-10.0,0.0
32.0,70.0,12.0,2.0,-31.0,0.0,-24.0,-9.0,-10.0,-13.0,0.0
46.0,57.0,-4.0,-13.0,-48.0,-13.0,-32.0,-25.0,-24.0,-15.0,0.0
62.0,41.0,-11.0,-21.0,-62.0,-14.0,-32.0,-36.0,-22.0,-12.0,0.0
80.0,27.0,-9.0,-17.0,-59.0,-22.0,-34.0,-37.0,-16.0,-17.0,0.0
90.0,18.0,1.0,-23.0,-66.0,-31.0,-28.0,-40.0,-11.0,-10.0,0.0
63.0,-10.0,-12.0,-15.0,-59.0,-19.0,-15.0,-19.0,3.0,4.0,0.0
42.0,-16.0,-10.0,-2.0,-43.0,9.0,7.0,-1.0,18.0,27.0,0.0
24.0,5.0,9.0,0.0,-42.0,25.0,18.0,23.0,32.0,41.0,0.0
8.0,27.0,29.0,1.0,-44.0,19.0,24.0,31.0,45.0,23.0,0.0
-14.0,29.0,30.0,26.0,-17.0,20.0,18.0,15.0,25.0,0.0,0.0
1.0,39.0,14.0,40.0,30.0,27.0,-3.0,14.0,15.0,0.0,0.0
46.0,61.0,5.0,26.0,20.0,34.0,11.0,40.0,42.0,45.0,0.0
63.0,72.0,10.0,7.0,-17.0,28.0,30.0,46.0,38.0,46.0,0.0
51.0,75.0,19.0,-1.0,-37.0,30.0,22.0,47.0,36.0,36.0,0.0
29.0,78.0,21.0,-5.0,-55.0,30.0,18.0,50.0,19.0,41.0,0.0
10.0,62.0,17.0,-25.0,-65.0,29.0,26.0,33.0,6.0,40.0,0.0
-1.0,49.0,17.0,-31.0,-59.0,25.0,35.0,23.0,24.0,33.0,0.0
11.0,54.0,-6.0,-24.0,-47.0,18.0,25.0,28.0,48.0,47.0,0.0
40.0,94.0,-33.0,-5.0,0.0,11.0,-4.0,-4.0,14.0,19.0,0.0
75.0,116.0,-39.0,-15.0,2.0,1.0,6.0,-32.0,-2.0,17.0,0.0
107.0,121.0,-51.0,-45.0,-50.0,-16.0,3.0,-21.0,0.0,39.0,0.0
114.0,95.0,-47.0,-46.0,-69.0,-13.0,0.0,-12.0,2.0,38.0,0.0
79.0,29.0,-26.0,-34.0,-68.0,-14.0,2.0,-20.0,-14.0,18.0,0.0
26.0,-37.0,6.0,-19.0,-78.0,-24.0,-36.0,-35.0,-38.0,-43.0,0.0
2.0,-50.0,40.0,10.0,-48.0,-23.0,-53.0,-26.0,-54.0,-64.0,0.0
-38.0,-81.0,42.0,46.0,19.0,13.0,-37.0,3.0,-20.0,-25.0,0.0
-83.0,-137.0,27.0,61.0,63.0,58.0,5.0,37.0,25.0,6.0,0.0
-42.0,-107.0,35.0,60.0,52.0,45.0,11.0,33.0,33.0,29.0,0.0
0.0,-37.0,37.0,42.0,21.0,17.0,-14.0,11.0,19.0,14.0,0.0
-18.0,-30.0,22.0,9.0,6.0,24.0,13.0,14.0,27.0,6.0,0.0
0.0,-41.0,16.0,3.0,9.0,28.0,13.0,13.0,35.0,46.0,0.0
-8.0,-33.0,22.0,11.0,22.0,19.0,8.0,10.0,43.0,81.0,0.0
-86.0,-69.0,32.0,25.0,26.0,14.0,13.0,-4.0,35.0,48.0,0.0
-165.0,-98.0,46.0,45.0,25.0,7.0,7.0,-17.0,5.0,-26.0,0.0
-175.0,-102.0,54.0,40.0,16.0,-2.0,-10.0,-22.0,-17.0,-71.0,0.0
-157.0,-102.0,20.0,30.0,1.0,6.0,0.0,-19.0,-22.0,-81.0,0.0
-143.0,-97.0,1.0,22.0,-4.0,0.0,-7.0,-21.0,-24.0,-86.0,0.0
-113.0,-83.0,-2.0,11.0,-17.0,-9.0,-11.0,-17.0,-22.0,-64.0,0.0
-89.0,-57.0,5.0,-6.0,-20.0,-12.0,2.0,-12.0,-19.0,-44.0,0.0
-70.0,-31.0,5.0,-26.0,-13.0,-5.0,1.0,-16.0,-14.0,-31.0,0.0
-47.0,-3.0,7.0,-25.0,-14.0,3.0,4.0,-10.0,-14.0,-23.0,0.0
-31.0,14.0,3.0,7.0,-12.0,15.0,25.0,-5.0,-9.0,-10.0,0.0
-16.0,16.0,7.0,20.0,1.0,20.0,28.0,11.0,-1.0,6.0,0.0
1.0,16.0,0.0,17.0,10.0,16.0,23.0,18.0,14.0,15.0,0.0
13.0,17.0,13.0,18.0,7.0,11.0,17.0,20.0,16.0,8.0,0.0
28.0,12.0,34.0,18.0,10.0,13.0,22.0,21.0,12.0,13.0,0.0
25.0,14.0,25.0,28.0,12.0,18.0,20.0,16.0,8.0,9.0,0.0
17.0,10.0,25.0,34.0,-5.0,23.0,5.0,6.0,7.0,-4.0,0.0
10.0,12.0,15.0,29.0,-8.0,18.0,0.0,-1.0,-4.0,2.0,0.0
2.0,12.0,3.0,28.0,-15.0,3.0,-10.0,-7.0,-7.0,4.0,0.0
8.0,8.0,-11.0,16.0,-28.0,-3.0,-16.0,-7.0,-15.0,8.0,0.0
14.0,0.0,-13.0,4.0,-25.0,-14.0,-4.0,-17.0,-11.0,12.0,0.0
6.0,-24.0,-15.0,-14.0,-27.0,-29.0,-12.0,-18.0,-9.0,-7.0,0.0
-3.0,-29.0,-23.0,-18.0,-41.0,-22.0,-19.0,-12.0,-14.0,-10.0,0.0
-7.0,-19.0,-24.0,-7.0,-42.0,-15.0,-4.0,-8.0,-17.0,-8.0,0.0
-1.0,-15.0,-22.0,4.0,-37.0,-22.0,-2.0,0.0,-18.0,-5.0,0.0
16.0,-12.0,-17.0,6.0,-36.0,-17.0,0.0,-12.0,-10.0,9.0,0.0
43.0,-8.0,-11.0,0.0,-47.0,1.0,12.0,-8.0,-2.0,13.0,0.0
45.0,-9.0,-11.0,-3.0,-40.0,13.0,0.0,17.0,-2.0,33.0,0.0
33.0,-2.0,-10.0,-17.0,-37.0,15.0,0.0,28.0,15.0,43.0,0.0
26.0,9.0,-3.0,-30.0,-40.0,18.0,10.0,22.0,30.0,48.0,0.0
35.0,21.0,11.0,-14.0,-34.0,10.0,0.0,16.0,23.0,34.0,0.0
54.0,44.0,38.0,11.0,-27.0,-2.0,-13.0,22.0,14.0,24.0,0.0
57.0,44.0,35.0,25.0,-8.0,2.0,-11.0,20.0,10.0,23.0,0.0
49.0,38.0,24.0,31.0,-3.0,-8.0,-27.0,10.0,-7.0,15.0,0.0
43.0,26.0,29.0,13.0,-30.0,-24.0,-21.0,-5.0,2.0,11.0,0.0
36.0,17.0,20.0,-12.0,-67.0,-28.0,-26.0,-7.0,15.0,15.0,0.0
32.0,27.0,21.0,-21.0,-88.0,-23.0,-16.0,-3.0,13.0,24.0,0.0
16.0,41.0,22.0,-46.0,-113.0,-34.0,-3.0,-9.0,3.0,19.0,0.0
13.0,55.0,24.0,-82.0,-139.0,-38.0,-16.0,5.0,5.0,18.0,0.0
4.0,50.0,26.0,-51.0,-107.0,-20.0,-17.0,3.0,-9.0,17.0,0.0
-16.0,13.0,5.0,22.0,35.0,8.0,-25.0,-15.0,-42.0,3.0,0.0
-18.0,-10.0,-18.0,46.0,116.0,10.0,-35.0,-33.0,-37.0,-12.0,0.0
57.0,2.0,-10.0,11.0,49.0,-8.0,-23.0,-19.0,-20.0,6.0,0.0
93.0,5.0,-1.0,-9.0,24.0,4.0,8.0,17.0,5.0,35.0,0.0
81.0,-8.0,-6.0,-20.0,24.0,25.0,21.0,32.0,37.0,68.0,0.0
92.0,48.0,22.0,-23.0,17.0,13.0,-2.0,28.0,21.0,55.0,0.0
133.0,148.0,53.0,-13.0,11.0,3.0,-26.0,-3.0,-34.0,5.0,0.0
175.0,201.0,60.0,-18.0,2.0,4.0,-45.0,-29.0,-56.0,-11.0,0.0
194.0,215.0,50.0,-40.0,-5.0,-6.0,-38.0,-39.0,-57.0,-4.0,0.0
193.0,179.0,24.0,-71.0,-18.0,-12.0,-39.0,-42.0,-49.0,11.0,0.0
110.0,80.0,-4.0,-84.0,-17.0,-3.0,-15.0,-43.0,-44.0,12.0,0.0
0.0,-39.0,-23.0,-70.0,-4.0,10.0,0.0,-17.0,-34.0,33.0,0.0
-84.0,-90.0,-21.0,-69.0,-3.0,5.0,10.0,4.0,-7.0,44.0,0.0
-133.0,-62.0,-20.0,-66.0,-12.0,8.0,3.0,2.0,5.0,2.0,0.0
-118.0,-28.0,-14.0,-67.0,-33.0,2.0,17.0,-9.0,-1.0,-27.0,0.0
-79.0,-4.0,-31.0,-87.0,-60.0,-11.0,15.0,-23.0,1.0,-32.0,0.0
-80.0,-79.0,-60.0,-88.0,-76.0,-22.0,5.0,-17.0,2.0,-20.0,0.0
-84.0,-137.0,-50.0,-65.0,-70.0,-26.0,33.0,0.0,16.0,-14.0,0.0
-127.0,-123.0,-22.0,-49.0,-55.0,-18.0,55.0,21.0,18.0,-25.0,0.0
-169.0,-123.0,-5.0,-32.0,-37.0,-2.0,47.0,29.0,8.0,-45.0,0.0
-164.0,-126.0,-3.0,-16.0,-18.0,10.0,32.0,24.0,10.0,-59.0,0.0
-118.0,-100.0,-11.0,-3.0,-2.0,16.0,43.0,24.0,21.0,-20.0,0.0
-82.0,-67.0,-2.0,-6.0,1.0,34.0,58.0,19.0,18.0,-16.0,0.0
-53.0,-40.0,28.0,8.0,15.0,48.0,45.0,11.0,10.0,-40.0,0.0
-30.0,-26.0,51.0,17.0,22.0,39.0,15.0,10.0,8.0,-27.0,0.0
-31.0,-45.0,39.0,6.0,15.0,36.0,-5.0,12.0,19.0,-20.0,0.0
-54.0,-57.0,31.0,1.0,20.0,42.0,11.0,14.0,12.0,-23.0,0.0
-50.0,-25.0,27.0,6.0,11.0,38.0,8.0,10.0,5.0,-26.0,0.0
-46.0,-4.0,28.0,8.0,-4.0,22.0,-14.0,-3.0,1.0,-49.0,0.0
-49.0,0.0,28.0,1.0,-13.0,5.0,-6.0,-5.0,-12.0,-76.0,0.0
-27.0,-1.0,8.0,-14.0,-22.0,-7.0,0.0,-3.0,-9.0,-69.0,0.0
-8.0,-10.0,-21.0,-24.0,-42.0,-19.0,-7.0,-2.0,-12.0,-41.0,0.0
2.0,-18.0,-24.0,-34.0,-60.0,-18.0,2.0,-13.0,-28.0,-20.0,0.0
-4.0,-21.0,-12.0,-37.0,-52.0,-31.0,9.0,-12.0,-25.0,-12.0,0.0
-10.0,-16.0,-12.0,-38.0,-50.0,-34.0,-7.0,-5.0,-12.0,-11.0,0.0
-3.0,8.0,-3.0,-31.0,-38.0,-16.0,-13.0,-7.0,-18.0,-23.0,0.0
6.0,15.0,3.0,-19.0,-16.0,-6.0,-23.0,-5.0,-13.0,-29.0,0.0
30.0,12.0,5.0,-33.0,-10.0,-7.0,-11.0,9.0,-6.0,-25.0,0.0
59.0,18.0,-1.0,-47.0,-9.0,-7.0,6.0,12.0,3.0,-3.0,0.0
86.0,38.0,-7.0,-40.0,-3.0,6.0,-1.0,14.0,13.0,26.0,0.0
104.0,58.0,4.0,-42.0,-7.0,11.0,6.0,27.0,16.0,40.0,0.0
97.0,65.0,28.0,-24.0,-2.0,16.0,15.0,19.0,29.0,35.0,0.0
85.0,75.0,40.0,0.0,-5.0,10.0,-2.0,8.0,28.0,35.0,0.0
69.0,53.0,23.0,-15.0,-19.0,4.0,-11.0,6.0,17.0,20.0,0.0
38.0,7.0,11.0,-25.0,-20.0,1.0,-10.0,3.0,4.0,10.0,0.0
32.0,-26.0,2.0,-26.0,-23.0,-6.0,-12.0,-6.0,3.0,10.0,0.0
30.0,-27.0,-6.0,-22.0,-37.0,-26.0,9.0,2.0,0.0,9.0,0.0
15.0,-21.0,-13.0,-22.0,-40.0,-22.0,2.0,-6.0,-12.0,4.0,0.0
-1.0,-19.0,-9.0,-25.0,-28.0,-27.0,-11.0,-9.0,-20.0,-19.0,0.0
0.0,-11.0,-9.0,-23.0,-11.0,-33.0,6.0,1.0,-8.0,-10.0,0.0
4.0,5.0,-16.0,-28.0,-2.0,-33.0,14.0,14.0,0.0,10.0,0.0
0.0,22.0,-11.0,-13.0,-14.0,-19.0,0.0,11.0,-9.0,11.0,0.0
-7.0,36.0,12.0,3.0,-17.0,-1.0,3.0,6.0,-9.0,18.0,0.0
3.0,47.0,23.0,12.0,-6.0,-2.0,8.0,16.0,-10.0,31.0,0.0
33.0,54.0,34.0,23.0,-4.0,0.0,-2.0,17.0,-15.0,51.0,0.0
53.0,57.0,48.0,27.0,-10.0,1.0,-5.0,15.0,0.0,71.0,0.0
64.0,64.0,43.0,27.0,-3.0,0.0,0.0,24.0,20.0,73.0,0.0
54.0,71.0,45.0,18.0,7.0,9.0,-2.0,40.0,26.0,62.0,0.0
43.0,54.0,42.0,22.0,3.0,15.0,15.0,47.0,17.0,52.0,0.0
38.0,56.0,26.0,14.0,-19.0,3.0,17.0,34.0,9.0,34.0,0.0
39.0,63.0,7.0,-1.0,-41.0,-3.0,3.0,16.0,7.0,11.0,0.0
60.0,68.0,11.0,-9.0,-64.0,-12.0,1.0,14.0,-10.0,-2.0,0.0
74.0,88.0,19.0,-16.0,-81.0,-23.0,20.0,0.0,-24.0,4.0,0.0
61.0,71.0,23.0,-42.0,-107.0,-27.0,25.0,1.0,1.0,23.0,0.0
-11.0,23.0,6.0,-56.0,-100.0,-31.0,16.0,-7.0,0.0,2.0,0.0
-83.0,-12.0,-3.0,-32.0,-25.0,-16.0,3.0,-13.0,-24.0,-15.0,0.0
-95.0,1.0,2.0,1.0,45.0,-10.0,-5.0,-31.0,-39.0,-37.0,0.0
-48.0,82.0,19.0,0.0,49.0,-12.0,-22.0,-35.0,-59.0,-73.0,0.0
-26.0,141.0,32.0,-18.0,3.0,-22.0,-25.0,-34.0,-60.0,-84.0,0.0
3.0,157.0,28.0,-33.0,-23.0,-21.0,-39.0,-34.0,-36.0,-33.0,0.0
68.0,102.0,1.0,-39.0,-31.0,-6.0,-20.0,-22.0,0.0,34.0,0.0
104.0,-18.0,-19.0,-22.0,4.0,18.0,4.0,-1.0,20.0,60.0,0.0
78.0,-128.0,-32.0,25.0,54.0,31.0,-3.0,18.0,34.0,74.0,0.0
17.0,-176.0,-27.0,32.0,54.0,19.0,-2.0,17.0,45.0,63.0,0.0
-59.0,-197.0,-15.0,18.0,48.0,28.0,23.0,32.0,64.0,38.0,0.0
-70.0,-178.0,-12.0,9.0,53.0,32.0,28.0,48.0,61.0,13.0,0.0
-56.0,-120.0,-8.0,0.0,43.0,5.0,10.0,37.0,41.0,-8.0,0.0
-81.0,-84.0,-13.0,-10.0,8.0,-11.0,14.0,18.0,28.0,-18.0,0.0
-90.0,-71.0,-18.0,-37.0,-32.0,-19.0,25.0,8.0,30.0,-18.0,0.0
-93.0,-88.0,-30.0,-46.0,-32.0,-4.0,11.0,19.0,21.0,-23.0,0.0
-96.0,-96.0,-52.0,-8.0,11.0,-9.0,-3.0,10.0,-3.0,-33.0,0.0
-101.0,-84.0,-49.0,6.0,43.0,-32.0,-29.0,-25.0,-39.0,-76.0,0.0
-96.0,-73.0,-25.0,-14.0,5.0,-41.0,-34.0,-38.0,-48.0,-87.0,0.0
-60.0,-54.0,-10.0,-24.0,-16.0,-38.0,-9.0,-34.0,-37.0,-66.0,0.0
-32.0,-45.0,-9.0,-20.0,-18.0,-32.0,-14.0,-12.0,-33.0,-45.0,0.0
-21.0,-41.0,-3.0,-4.0,-8.0,-24.0,-13.0,-9.0,-13.0,-38.0,0.0
-14.0,-24.0,-1.0,18.0,0.0,-13.0,-6.0,-11.0,-4.0,-25.0,0.0
0.0,-19.0,0.0,32.0,-3.0,0.0,-11.0,-10.0,0.0,-16.0,0.0
19.0,-13.0,-2.0,38.0,6.0,5.0,0.0,3.0,6.0,-12.0,0.0
30.0,4.0,15.0,35.0,20.0,15.0,4.0,15.0,8.0,4.0,0.0
38.0,17.0,22.0,47.0,26.0,16.0,-3.0,10.0,4.0,12.0,0.0
46.0,25.0,27.0,45.0,28.0,10.0,10.0,4.0,15.0,18.0,0.0
61.0,32.0,23.0,34.0,30.0,15.0,3.0,0.0,0.0,14.0,0.0
49.0,30.0,14.0,32.0,24.0,21.0,-8.0,1.0,-3.0,11.0,0.0
31.0,14.0,4.0,16.0,20.0,9.0,-1.0,6.0,-2.0,0.0,0.0
13.0,2.0,-10.0,4.0,7.0,7.0,-1.0,12.0,8.0,16.0,0.0
-12.0,-23.0,-21.0,-7.0,-9.0,6.0,-7.0,11.0,6.0,20.0,0.0
-35.0,-31.0,-8.0,-6.0,-23.0,1.0,-4.0,-11.0,-5.0,-3.0,0.0
-34.0,-18.0,-8.0,-4.0,-28.0,-2.0,-14.0,-13.0,-22.0,-27.0,0.0
-21.0,-8.0,-23.0,-13.0,-37.0,2.0,-14.0,-6.0,-25.0,-20.0,0.0
6.0,-7.0,-26.0,-18.0,-32.0,5.0,-10.0,-8.0,-9.0,-2.0,0.0
20.0,1.0,-20.0,-11.0,-33.0,6.0,-12.0,-11.0,-3.0,0.0,0.0
41.0,14.0,-9.0,-14.0,-26.0,7.0,8.0,-5.0,11.0,5.0,0.0
71.0,22.0,-12.0,-5.0,-5.0,23.0,0.0,7.0,13.0,18.0,0.0
104.0,47.0,-6.0,2.0,2.0,32.0,-17.0,0.0,9.0,37.0,0.0
134.0,57.0,-5.0,-19.0,2.0,26.0,-20.0,-4.0,9.0,44.0,0.0
149.0,44.0,-9.0,-35.0,8.0,24.0,-22.0,6.0,13.0,53.0,0.0
139.0,20.0,1.0,-26.0,13.0,30.0,-19.0,17.0,22.0,64.0,0.0
110.0,26.0,25.0,-2.0,23.0,30.0,-22.0,30.0,16.0,66.0,0.0
75.0,21.0,44.0,21.0,31.0,25.0,-6.0,14.0,16.0,37.0,0.0
54.0,2.0,40.0,29.0,29.0,19.0,-6.0,8.0,19.0,16.0,0.0
46.0,-8.0,26.0,9.0,-8.0,9.0,0.0,11.0,34.0,33.0,0.0
41.0,6.0,44.0,8.0,-33.0,-4.0,-8.0,5.0,27.0,40.0,0.0
0.0,42.0,85.0,38.0,-37.0,-19.0,-23.0,-24.0,-17.0,-1.0,0.0
-55.0,35.0,91.0,53.0,-25.0,-15.0,-18.0,-52.0,-45.0,-61.0,0.0
-37.0,23.0,60.0,28.0,-13.0,-18.0,-15.0,-54.0,-44.0,-57.0,0.0
-44.0,14.0,39.0,10.0,-29.0,-26.0,-7.0,-35.0,-30.0,-37.0,0.0
-59.0,6.0,48.0,-4.0,-37.0,-23.0,-10.0,-19.0,-25.0,-35.0,0.0
-39.0,14.0,41.0,-3.0,-40.0,-14.0,3.0,-8.0,5.0,-19.0,0.0
-42.0,1.0,28.0,10.0,-21.0,0.0,11.0,9.0,7.0,-20.0,0.0
-76.0,-12.0,11.0,12.0,-8.0,10.0,3.0,5.0,7.0,-9.0,0.0
-130.0,-24.0,16.0,15.0,-6.0,5.0,20.0,6.0,21.0,-11.0,0.0
-178.0,-38.0,23.0,14.0,-5.0,16.0,31.0,29.0,37.0,-8.0,0.0
-185.0,-38.0,38.0,19.0,-7.0,28.0,32.0,46.0,41.0,-9.0,0.0
-162.0,-21.0,39.0,30.0,2.0,34.0,44.0,49.0,33.0,-21.0,0.0
-102.0,-33.0,23.0,16.0,1.0,31.0,62.0,57.0,25.0,3.0,0.0
-44.0,-51.0,5.0,3.0,-4.0,27.0,62.0,56.0,39.0,33.0,0.0
-35.0,-46.0,4.0,10.0,-10.0,28.0,39.0,42.0,33.0,26.0,0.0
-45.0,-37.0,7.0,9.0,-21.0,13.0,11.0,17.0,-7.0,-15.0,0.0
-63.0,-42.0,2.0,8.0,-26.0,-3.0,12.0,5.0,-23.0,-27.0,0.0
-81.0,-47.0,-2.0,15.0,-26.0,-12.0,15.0,-9.0,-26.0,-48.0,0.0
-97.0,-66.0,-6.0,30.0,-22.0,-23.0,9.0,-19.0,-37.0,-60.0,0.0
-80.0,-63.0,-9.0,21.0,-23.0,-16.0,4.0,-16.0,-33.0,-54.0,0.0
-39.0,-35.0,-18.0,1.0,-27.0,-27.0,14.0,-25.0,-24.0,-40.0,0.0
-2.0,-16.0,-23.0,0.0,-41.0,-24.0,9.0,-28.0,-19.0,-29.0,0.0
42.0,24.0,-40.0,1.0,-38.0,-13.0,1.0,-38.0,-32.0,-30.0,0.0
98.0,42.0,-45.0,4.0,-22.0,-4.0,4.0,-43.0,-32.0,-26.0,0.0
100.0,27.0,-42.0,-5.0,-13.0,-4.0,7.0,-28.0,-24.0,-1.0,0.0
79.0,18.0,-51.0,-22.0,-23.0,-15.0,9.0,-15.0,-17.0,22.0,0.0
76.0,23.0,-57.0,-28.0,-26.0,-13.0,-3.0,10.0,9.0,43.0,0.0
75.0,50.0,-37.0,-7.0,-16.0,8.0,18.0,37.0,24.0,50.0,0.0
70.0,78.0,20.0,27.0,0.0,16.0,38.0,33.0,32.0,40.0,0.0
46.0,108.0,69.0,52.0,0.0,5.0,24.0,19.0,18.0,-1.0,0.0
19.0,129.0,68.0,61.0,-12.0,-1.0,8.0,24.0,4.0,0.0,0.0
-2.0,149.0,44.0,33.0,-45.0,-16.0,6.0,19.0,7.0,17.0,0.0
-27.0,154.0,42.0,22.0,-24.0,-12.0,18.0,8.0,-18.0,-11.0,0.0
-23.0,167.0,32.0,40.0,31.0,-4.0,16.0,-15.0,-59.0,-57.0,0.0
14.0,136.0,5.0,22.0,17.0,-22.0,-10.0,-39.0,-81.0,-83.0,0.0
65.0,82.0,-17.0,-13.0,-34.0,-49.0,-29.0,-57.0,-89.0,-90.0,0.0
109.0,39.0,-35.0,-32.0,-56.0,-58.0,-34.0,-66.0,-78.0,-61.0,0.0
110.0,-43.0,-65.0,-58.0,-79.0,-60.0,-38.0,-47.0,-47.0,-21.0,0.0
29.0,-145.0,-88.0,-63.0,-77.0,-46.0,-8.0,-13.0,-4.0,-5.0,0.0
-47.0,-195.0,-95.0,-27.0,-33.0,-1.0,22.0,27.0,23.0,20.0,0.0
-80.0,-196.0,-77.0,6.0,-3.0,36.0,44.0,47.0,34.0,45.0,0.0
-148.0,-181.0,-19.0,39.0,14.0,48.0,34.0,52.0,21.0,-1.0,0.0
-157.0,-123.0,30.0,60.0,22.0,27.0,12.0,24.0,6.0,-34.0,0.0
-80.0,-80.0,20.0,59.0,22.0,1.0,11.0,19.0,8.0,-2.0,0.0
-10.0,-60.0,-10.0,33.0,-4.0,-2.0,9.0,27.0,42.0,58.0,0.0
-7.0,-43.0,-7.0,24.0,-14.0,12.0,3.0,26.0,46.0,74.0,0.0
-16.0,-12.0,6.0,21.0,-1.0,28.0,-2.0,6.0,17.0,36.0,0.0
-6.0,8.0,-1.0,-3.0,4.0,26.0,3.0,2.0,9.0,18.0,0.0
6.0,8.0,-20.0,-16.0,-8.0,8.0,1.0,8.0,11.0,35.0,0.0
15.0,0.0,-38.0,-27.0,-19.0,10.0,-1.0,16.0,16.0,48.0,0.0
13.0,-3.0,-47.0,-13.0,-28.0,8.0,6.0,5.0,12.0,24.0,0.0
-38.0,-40.0,-36.0,14.0,-26.0,1.0,16.0,-4.0,-19.0,-19.0,0.0
-52.0,-69.0,-39.0,15.0,-33.0,-4.0,24.0,6.0,-22.0,-23.0,0.0
-34.0,-51.0,-36.0,8.0,-35.0,-8.0,16.0,12.0,-13.0,-18.0,0.0
-43.0,-41.0,-25.0,22.0,-17.0,-3.0,1.0,-1.0,-40.0,-40.0,0.0
-39.0,-28.0,-24.0,27.0,-10.0,-3.0,-4.0,-19.0,-45.0,-57.0,0.0
-4.0,-9.0,-21.0,13.0,-11.0,5.0,8.0,-8.0,-21.0,-31.0,0.0
24.0,-1.0,-38.0,6.0,-11.0,21.0,38.0,10.0,20.0,4.0,0.0
24.0,-2.0,-39.0,3.0,-15.0,27.0,47.0,24.0,50.0,36.0,0.0
27.0,13.0,-21.0,21.0,5.0,39.0,45.0,35.0,63.0,52.0,0.0
40.0,38.0,-2.0,39.0,21.0,55.0,42.0,47.0,58.0,56.0,0.0
68.0,70.0,11.0,32.0,31.0,48.0,10.0,28.0,19.0,34.0,0.0
64.0,73.0,11.0,15.0,36.0,42.0,3.0,3.0,9.0,14.0,0.0
23.0,47.0,-4.0,-8.0,30.0,40.0,10.0,14.0,28.0,23.0,0.0
-5.0,20.0,-15.0,-31.0,15.0,30.0,14.0,19.0,17.0,39.0,0.0
-36.0,7.0,-17.0,-24.0,-2.0,11.0,19.0,12.0,7.0,28.0,0.0
-69.0,13.0,13.0,-8.0,-16.0,-15.0,-2.0,-3.0,-7.0,-7.0,0.0
-79.0,18.0,42.0,13.0,-31.0,-30.0,-24.0,-12.0,-28.0,-22.0,0.0
-44.0,12.0,50.0,35.0,-39.0,-35.0,-19.0,-22.0,-27.0,-12.0,0.0
-21.0,18.0,54.0,27.0,-55.0,-43.0,-8.0,-10.0,-25.0,-16.0,0.0
-18.0,35.0,58.0,15.0,-75.0,-46.0,-18.0,-4.0,-34.0,-24.0,0.0
-16.0,28.0,41.0,22.0,-45.0,-25.0,-33.0,-20.0,-44.0,-13.0,0.0
-24.0,12.0,24.0,48.0,22.0,-10.0,-35.0,-36.0,-51.0,-17.0,0.0
-5.0,2.0,6.0,42.0,23.0,-8.0,-31.0,-28.0,-39.0,-13.0,0.0
26.0,25.0,9.0,35.0,0.0,0.0,-7.0,-2.0,-3.0,3.0,0.0
33.0,50.0,28.0,43.0,4.0,11.0,13.0,8.0,22.0,18.0,0.0
32.0,74.0,46.0,58.0,6.0,3.0,17.0,13.0,9.0,30.0,0.0
40.0,77.0,52.0,59.0,10.0,7.0,18.0,7.0,14.0,35.0,0.0
37.0,68.0,39.0,50.0,17.0,24.0,11.0,20.0,23.0,35.0,0.0
40.0,61.0,39.0,34.0,10.0,28.0,6.0,26.0,27.0,34.0,0.0
36.0,64.0,34.0,25.0,-1.0,9.0,11.0,35.0,36.0,29.0,0.0
35.0,60.0,31.0,25.0,-21.0,-3.0,19.0,21.0,34.0,8.0,0.0
57.0,57.0,25.0,9.0,-42.0,-21.0,19.0,-3.0,23.0,-2.0,0.0
61.0,36.0,0.0,-9.0,-51.0,-37.0,9.0,-28.0,15.0,-15.0,0.0
52.0,18.0,-24.0,-18.0,-39.0,-37.0,-13.0,-36.0,-6.0,-29.0,0.0
40.0,32.0,-16.0,-16.0,-22.0,-32.0,-19.0,-38.0,-12.0,-40.0,0.0
37.0,39.0,-17.0,-8.0,-12.0,-29.0,-2.0,-34.0,-6.0,-24.0,0.0
12.0,30.0,-22.0,-1.0,-2.0,-8.0,16.0,-17.0,2.0,-10.0,0.0
-38.0,20.0,-5.0,15.0,10.0,11.0,28.0,10.0,15.0,-23.0,0.0
-56.0,25.0,21.0,35.0,22.0,16.0,8.0,5.0,1.0,-53.0,0.0
-48.0,0.0,43.0,37.0,36.0,30.0,6.0,10.0,14.0,-56.0,0.0
-17.0,-18.0,23.0,20.0,24.0,34.0,12.0,21.0,36.0,-13.0,0.0
13.0,-22.0,5.0,25.0,23.0,29.0,19.0,20.0,51.0,9.0,0.0
48.0,3.0,26.0,43.0,29.0,44.0,27.0,27.0,48.0,18.0,0.0
89.0,30.0,35.0,43.0,24.0,50.0,23.0,25.0,41.0,17.0,0.0
108.0,33.0,20.0,33.0,14.0,44.0,23.0,16.0,46.0,21.0,0.0
88.0,28.0,14.0,29.0,14.0,40.0,34.0,24.0,44.0,27.0,0.0
68.0,13.0,18.0,13.0,-1.0,26.0,25.0,22.0,36.0,24.0,0.0
48.0,2.0,11.0,-17.0,-18.0,9.0,0.0,8.0,19.0,9.0,0.0
-4.0,-2.0,0.0,-19.0,-30.0,0.0,-6.0,-7.0,6.0,-12.0,0.0
-62.0,-26.0,-15.0,-21.0,-25.0,-1.0,-1.0,0.0,4.0,-27.0,0.0
-76.0,-49.0,-29.0,-27.0,-25.0,-3.0,17.0,3.0,19.0,-22.0,0.0
-72.0,-58.0,-27.0,-28.0,-37.0,-3.0,26.0,-2.0,17.0,-34.0,0.0
-54.0,-48.0,-16.0,-28.0,-45.0,7.0,28.0,0.0,1.0,-36.0,0.0
-35.0,-33.0,-24.0,-19.0,-38.0,18.0,26.0,-4.0,5.0,-20.0,0.0
-29.0,-24.0,-13.0,-2.0,-30.0,22.0,14.0,0.0,6.0,-1.0,0.0
-19.0,-25.0,-8.0,24.0,-18.0,19.0,3.0,-2.0,7.0,6.0,0.0
1.0,-18.0,-8.0,28.0,-5.0,14.0,-5.0,-6.0,21.0,5.0,0.0
26.0,4.0,-3.0,24.0,10.0,18.0,-11.0,-5.0,16.0,14.0,0.0
39.0,22.0,13.0,18.0,16.0,21.0,-10.0,0.0,23.0,15.0,0.0
46.0,38.0,18.0,21.0,20.0,24.0,0.0,1.0,25.0,13.0,0.0
54.0,48.0,18.0,25.0,19.0,22.0,7.0,9.0,21.0,25.0,0.0
39.0,35.0,18.0,22.0,19.0,36.0,17.0,20.0,19.0,23.0,0.0
16.0,17.0,22.0,23.0,31.0,33.0,17.0,15.0,13.0,22.0,0.0
9.0,6.0,30.0,17.0,23.0,14.0,14.0,-7.0,3.0,8.0,0.0
4.0,16.0,39.0,9.0,5.0,3.0,-2.0,-21.0,-6.0,0.0,0.0
14.0,24.0,36.0,7.0,-13.0,-7.0,-26.0,-21.0,-13.0,-13.0,0.0
19.0,28.0,24.0,-3.0,-29.0,-16.0,-30.0,-30.0,-10.0,-11.0,0.0
29.0,27.0,21.0,-27.0,-38.0,-24.0,-25.0,-35.0,-21.0,-13.0,0.0
25.0,30.0,23.0,-37.0,-49.0,-31.0,-31.0,-32.0,-20.0,-19.0,0.0
46.0,41.0,12.0,-30.0,-56.0,-39.0,-39.0,-38.0,-23.0,0.0,0.0
83.0,43.0,-17.0,-37.0,-59.0,-35.0,-28.0,-46.0,-25.0,14.0,0.0
110.0,32.0,-28.0,-55.0,-62.0,-24.0,-23.0,-36.0,-11.0,37.0,0.0
135.0,73.0,-11.0,-55.0,-67.0,-8.0,-33.0,-13.0,7.0,75.0,0.0
138.0,132.0,17.0,-38.0,-70.0,-13.0,-36.0,0.0,16.0,78.0,0.0
107.0,121.0,33.0,-8.0,-7.0,2.0,-26.0,-13.0,8.0,47.0,0.0
67.0,74.0,49.0,45.0,80.0,42.0,-6.0,5.0,16.0,25.0,0.0
77.0,43.0,41.0,45.0,70.0,62.0,7.0,30.0,30.0,29.0,0.0
82.0,-19.0,3.0,25.0,36.0,55.0,24.0,35.0,37.0,52.0,0.0
42.0,-45.0,-17.0,28.0,39.0,49.0,35.0,38.0,30.0,66.0,0.0
2.0,-49.0,-22.0,38.0,35.0,38.0,32.0,46.0,33.0,79.0,0.0
-31.0,-45.0,-22.0,36.0,18.0,18.0,33.0,39.0,38.0,61.0,0.0
-68.0,-59.0,-22.0,39.0,8.0,13.0,28.0,30.0,29.0,27.0,0.0
-78.0,-63.0,-20.0,36.0,-4.0,0.0,20.0,12.0,15.0,11.0,0.0
-88.0,-48.0,-18.0,26.0,-18.0,-19.0,8.0,2.0,16.0,16.0,0.0
-74.0,-23.0,-14.0,1.0,-24.0,-24.0,5.0,4.0,25.0,8.0,0.0
-36.0,-6.0,-17.0,-1.0,-18.0,-18.0,-1.0,9.0,25.0,15.0,0.0
32.0,16.0,-23.0,-5.0,-16.0,-9.0,11.0,26.0,33.0,46.0,0.0
96.0,66.0,-22.0,-3.0,-12.0,-7.0,14.0,25.0,41.0,64.0,0.0
66.0,76.0,0.0,8.0,-8.0,0.0,11.0,16.0,24.0,48.0,0.0
43.0,55.0,6.0,1.0,-7.0,1.0,7.0,12.0,24.0,29.0,0.0
70.0,39.0,-12.0,-8.0,-27.0,-5.0,5.0,12.0,31.0,18.0,0.0
61.0,11.0,-17.0,-9.0,-22.0,2.0,7.0,25.0,34.0,7.0,0.0
41.0,-37.0,-26.0,1.0,-5.0,6.0,2.0,23.0,19.0,-3.0,0.0
12.0,-106.0,-20.0,14.0,21.0,6.0,-9.0,26.0,10.0,-14.0,0.0
-56.0,-133.0,22.0,28.0,22.0,19.0,-8.0,28.0,36.0,-7.0,0.0
-146.0,-170.0,26.0,20.0,12.0,32.0,18.0,40.0,59.0,18.0,0.0
-141.0,-128.0,12.0,-5.0,14.0,26.0,19.0,37.0,38.0,14.0,0.0
-111.0,-76.0,4.0,-19.0,-3.0,2.0,6.0,14.0,10.0,-3.0,0.0
-94.0,-87.0,-11.0,-48.0,-37.0,-11.0,14.0,8.0,22.0,-14.0,0.0
-85.0,-104.0,-38.0,-66.0,-61.0,-5.0,16.0,0.0,18.0,-38.0,0.0
-77.0,-96.0,-54.0,-63.0,-54.0,-14.0,16.0,-6.0,10.0,-17.0,0.0
-53.0,-81.0,-50.0,-42.0,-42.0,-15.0,27.0,-3.0,19.0,-2.0,0.0
-25.0,-66.0,-45.0,-34.0,-32.0,-15.0,31.0,1.0,28.0,18.0,0.0
-5.0,-46.0,-21.0,-16.0,-22.0,-21.0,22.0,-5.0,14.0,0.0,0.0
-4.0,-34.0,-13.0,-13.0,-13.0,-16.0,20.0,-7.0,22.0,-19.0,0.0
-21.0,-46.0,-21.0,4.0,25.0,5.0,25.0,12.0,48.0,-13.0,0.0
-29.0,-45.0,4.0,36.0,40.0,15.0,17.0,12.0,35.0,-4.0,0.0
-37.0,-34.0,46.0,37.0,45.0,19.0,6.0,2.0,23.0,-8.0,0.0
-44.0,-26.0,68.0,49.0,57.0,28.0,9.0,4.0,13.0,-13.0,0.0
-32.0,-9.0,75.0,62.0,61.0,42.0,13.0,10.0,5.0,-26.0,0.0
-2.0,12.0,81.0,65.0,50.0,46.0,9.0,13.0,9.0,-30.0,0.0
13.0,25.0,78.0,43.0,38.0,40.0,2.0,13.0,10.0,-17.0,0.0
17.0,6.0,61.0,32.0,25.0,29.0,10.0,9.0,15.0,4.0,0.0
5.0,-8.0,23.0,26.0,10.0,19.0,15.0,1.0,11.0,9.0,0.0
6.0,-19.0,16.0,37.0,-8.0,2.0,20.0,-3.0,9.0,-1.0,0.0
0.0,-23.0,27.0,38.0,-4.0,-2.0,14.0,0.0,0.0,-13.0,0.0
-11.0,-15.0,18.0,31.0,-10.0,-16.0,5.0,-5.0,-1.0,-16.0,0.0
-16.0,-4.0,-3.0,9.0,-31.0,-22.0,-1.0,-20.0,-1.0,-14.0,0.0
-17.0,-8.0,-4.0,-2.0,-38.0,-21.0,-2.0,-15.0,-10.0,-21.0,0.0
-11.0,-16.0,-10.0,5.0,-21.0,-10.0,-1.0,-18.0,-20.0,-3.0,0.0
-2.0,-15.0,-19.0,11.0,-9.0,0.0,7.0,-8.0,-26.0,6.0,0.0
21.0,-13.0,-11.0,13.0,2.0,3.0,20.0,9.0,-20.0,11.0,0.0
26.0,-6.0,-2.0,20.0,17.0,5.0,23.0,18.0,-18.0,24.0,0.0
30.0,-2.0,-5.0,19.0,13.0,12.0,24.0,20.0,-7.0,42.0,0.0
52.0,6.0,4.0,21.0,26.0,24.0,30.0,24.0,16.0,55.0,0.0
56.0,29.0,9.0,20.0,24.0,32.0,52.0,32.0,37.0,61.0,0.0
56.0,57.0,20.0,17.0,8.0,34.0,66.0,31.0,40.0,75.0,0.0
74.0,89.0,28.0,3.0,-8.0,21.0,52.0,33.0,40.0,74.0,0.0
95.0,128.0,32.0,8.0,-32.0,4.0,36.0,31.0,37.0,64.0,0.0
97.0,134.0,34.0,-14.0,-59.0,6.0,27.0,29.0,35.0,50.0,0.0
84.0,119.0,17.0,-40.0,-80.0,-3.0,18.0,26.0,12.0,50.0,0.0
48.0,76.0,3.0,-16.0,-57.0,-19.0,5.0,5.0,-5.0,43.0,0.0
-7.0,-19.0,-24.0,11.0,13.0,-25.0,-22.0,-22.0,-15.0,36.0,0.0
-49.0,-102.0,-36.0,2.0,35.0,-17.0,-19.0,-33.0,-26.0,19.0,0.0
-26.0,-104.0,-28.0,0.0,45.0,-1.0,-1.0,-15.0,-21.0,12.0,0.0
17.0,-49.0,-14.0,-1.0,24.0,-5.0,-4.0,-20.0,-35.0,3.0,0.0
37.0,-1.0,-15.0,3.0,7.0,-15.0,-10.0,-29.0,-45.0,-6.0,0.0
63.0,36.0,-9.0,-11.0,-26.0,-16.0,0.0,-22.0,-29.0,5.0,0.0
86.0,68.0,-13.0,-37.0,-55.0,-10.0,2.0,-5.0,-10.0,41.0,0.0
96.0,75.0,-18.0,-55.0,-71.0,-4.0,11.0,12.0,23.0,76.0,0.0
110.0,100.0,-4.0,-46.0,-66.0,7.0,14.0,15.0,28.0,58.0,0.0
94.0,103.0,40.0,14.0,6.0,40.0,23.0,8.0,18.0,29.0,0.0
53.0,98.0,63.0,56.0,61.0,68.0,36.0,12.0,12.0,17.0,0.0
7.0,55.0,53.0,77.0,90.0,56.0,35.0,21.0,10.0,-2.0,0.0
-21.0,-16.0,4.0,103.0,135.0,43.0,15.0,23.0,15.0,0.0,0.0
-59.0,-43.0,-16.0,80.0,116.0,39.0,13.0,20.0,28.0,16.0,0.0
-93.0,-24.0,-29.0,50.0,67.0,25.0,9.0,8.0,21.0,16.0,0.0
-70.0,7.0,-26.0,33.0,24.0,13.0,-3.0,0.0,10.0,9.0,0.0
-27.0,30.0,-22.0,26.0,10.0,6.0,7.0,-1.0,15.0,0.0,0.0
12.0,18.0,-36.0,16.0,9.0,4.0,16.0,1.0,9.0,-13.0,0.0
34.0,0.0,-44.0,-2.0,2.0,-7.0,19.0,-3.0,17.0,-10.0,0.0
33.0,18.0,-33.0,6.0,-6.0,-5.0,22.0,-5.0,32.0,-8.0,0.0
8.0,74.0,21.0,25.0,-1.0,-16.0,-4.0,-19.0,0.0,-37.0,0.0
-26.0,106.0,48.0,36.0,12.0,-34.0,-14.0,-29.0,-26.0,-39.0,0.0
-72.0,75.0,52.0,33.0,19.0,-34.0,-5.0,-23.0,-8.0,-29.0,0.0
-91.0,42.0,59.0,29.0,18.0,-30.0,-2.0,-7.0,12.0,-12.0,0.0
-111.0,0.0,53.0,33.0,29.0,-18.0,4.0,0.0,0.0,-34.0,0.0
-136.0,-58.0,48.0,50.0,35.0,3.0,8.0,10.0,2.0,-68.0,0.0
-118.0,-77.0,34.0,48.0,39.0,17.0,7.0,17.0,14.0,-51.0,0.0
-75.0,-81.0,12.0,36.0,29.0,7.0,3.0,19.0,11.0,-34.0,0.0
-40.0,-53.0,8.0,23.0,9.0,8.0,0.0,15.0,-10.0,-31.0,0.0
-22.0,-26.0,9.0,20.0,6.0,8.0,2.0,10.0,7.0,-18.0,0.0
-6.0,-22.0,1.0,17.0,13.0,17.0,13.0,11.0,28.0,-1.0,0.0
-8.0,-20.0,-16.0,12.0,6.0,6.0,10.0,4.0,9.0,-4.0,0.0
-5.0,-20.0,-24.0,-1.0,-6.0,0.0,10.0,3.0,-2.0,-15.0,0.0
-8.0,-16.0,-26.0,-11.0,-15.0,-7.0,7.0,-2.0,-7.0,-24.0,0.0
-5.0,-22.0,-28.0,-15.0,-25.0,-20.0,-5.0,-5.0,-20.0,-41.0,0.0
-4.0,-21.0,-26.0,-26.0,-39.0,-39.0,-21.0,-11.0,-19.0,-50.0,0.0
-5.0,-24.0,-15.0,-28.0,-46.0,-33.0,-29.0,-20.0,-26.0,-41.0,0.0
3.0,-17.0,-25.0,-23.0,-43.0,-28.0,-28.0,-29.0,-23.0,-29.0,0.0
6.0,-7.0,-23.0,-31.0,-43.0,-27.0,-23.0,-24.0,-23.0,-25.0,0.0
15.0,5.0,-18.0,-40.0,-39.0,-21.0,-18.0,-24.0,-12.0,-7.0,0.0
17.0,13.0,-11.0,-44.0,-22.0,-11.0,-10.0,-16.0,-6.0,4.0,0.0
29.0,23.0,2.0,-39.0,-12.0,4.0,-2.0,4.0,4.0,16.0,0.0
43.0,19.0,1.0,-28.0,5.0,18.0,-4.0,24.0,31.0,34.0,0.0
39.0,13.0,0.0,-22.0,14.0,27.0,0.0,33.0,48.0,49.0,0.0
46.0,17.0,-7.0,-21.0,7.0,32.0,2.0,30.0,45.0,53.0,0.0
57.0,18.0,-12.0,-24.0,-1.0,29.0,12.0,32.0,28.0,44.0,0.0
62.0,11.0,-22.0,-36.0,-8.0,23.0,6.0,22.0,23.0,40.0,0.0
79.0,6.0,-24.0,-39.0,-12.0,17.0,-4.0,13.0,23.0,30.0,0.0
80.0,2.0,-14.0,-31.0,-12.0,8.0,-6.0,9.0,18.0,25.0,0.0
56.0,12.0,2.0,-17.0,-21.0,0.0,-6.0,8.0,16.0,17.0,0.0
25.0,17.0,10.0,-28.0,-20.0,-10.0,-15.0,4.0,11.0,8.0,0.0
4.0,19.0,3.0,-38.0,-24.0,-18.0,-22.0,-11.0,-2.0,-14.0,0.0
17.0,11.0,6.0,-33.0,-33.0,-29.0,-24.0,-32.0,-16.0,-33.0,0.0
25.0,4.0,7.0,-22.0,-39.0,-31.0,-12.0,-24.0,-18.0,-21.0,0.0
35.0,16.0,19.0,-13.0,-39.0,-31.0,-13.0,-16.0,-12.0,-3.0,0.0
48.0,34.0,46.0,-7.0,-38.0,-28.0,-21.0,-19.0,-9.0,6.0,0.0
53.0,36.0,47.0,4.0,-34.0,-17.0,-7.0,-16.0,-12.0,12.0,0.0
39.0,41.0,57.0,14.0,-18.0,7.0,-8.0,-5.0,-2.0,11.0,0.0
26.0,45.0,54.0,11.0,-6.0,22.0,4.0,8.0,18.0,33.0,0.0
33.0,46.0,47.0,10.0,2.0,30.0,18.0,24.0,25.0,61.0,0.0
38.0,55.0,64.0,39.0,21.0,30.0,11.0,23.0,8.0,45.0,0.0
64.0,70.0,65.0,61.0,23.0,23.0,-10.0,12.0,-3.0,17.0,0.0
91.0,78.0,55.0,57.0,14.0,27.0,-15.0,4.0,2.0,14.0,0.0
104.0,54.0,38.0,53.0,22.0,26.0,-19.0,4.0,0.0,22.0,0.0
72.0,15.0,8.0,44.0,21.0,10.0,-7.0,3.0,9.0,31.0,0.0
5.0,-16.0,-11.0,27.0,7.0,10.0,0.0,7.0,5.0,31.0,0.0
-39.0,-24.0,-18.0,6.0,-8.0,4.0,-3.0,19.0,-2.0,8.0,0.0
-42.0,6.0,-6.0,-1.0,-25.0,0.0,-18.0,3.0,-25.0,-20.0,0.0
-49.0,13.0,-2.0,-5.0,-34.0,-24.0,-33.0,-16.0,-55.0,-31.0,0.0
-49.0,21.0,-8.0,-3.0,-41.0,-36.0,-46.0,-27.0,-74.0,-48.0,0.0
-27.0,22.0,-17.0,-1.0,-27.0,-16.0,-20.0,-15.0,-52.0,-53.0,0.0
15.0,28.0,-8.0,8.0,-9.0,3.0,-15.0,-2.0,-32.0,-38.0,0.0
78.0,54.0,0.0,2.0,-27.0,-7.0,-34.0,-12.0,-35.0,-13.0,0.0
168.0,79.0,-3.0,-23.0,-41.0,-6.0,-27.0,0.0,-41.0,19.0,0.0
241.0,64.0,-26.0,-52.0,-42.0,-1.0,0.0,15.0,-19.0,63.0,0.0
226.0,45.0,-38.0,-38.0,-29.0,25.0,13.0,24.0,-26.0,42.0,0.0
180.0,80.0,-24.0,-16.0,-10.0,48.0,25.0,33.0,-22.0,9.0,0.0
165.0,132.0,-8.0,-11.0,5.0,50.0,15.0,25.0,1.0,53.0,0.0
117.0,163.0,13.0,0.0,33.0,40.0,-13.0,-11.0,8.0,92.0,0.0
31.0,150.0,30.0,-7.0,29.0,29.0,-10.0,-11.0,15.0,89.0,0.0
-59.0,72.0,26.0,-16.0,4.0,31.0,5.0,-3.0,16.0,50.0,0.0
-82.0,5.0,4.0,-17.0,0.0,38.0,19.0,-2.0,-7.0,-11.0,0.0
-32.0,-40.0,-32.0,-32.0,1.0,40.0,23.0,-7.0,-14.0,-49.0,0.0
-15.0,-101.0,-61.0,-46.0,-10.0,30.0,14.0,0.0,0.0,-49.0,0.0
-14.0,-150.0,-83.0,-54.0,-25.0,21.0,12.0,-4.0,2.0,-26.0,0.0
-84.0,-192.0,-103.0,-49.0,-40.0,13.0,26.0,12.0,28.0,6.0,0.0
-154.0,-175.0,-85.0,-50.0,-45.0,22.0,42.0,43.0,56.0,9.0,0.0
-195.0,-144.0,-53.0,-21.0,-19.0,35.0,60.0,40.0,54.0,-30.0,0.0
-255.0,-120.0,-25.0,11.0,16.0,55.0,55.0,28.0,46.0,-64.0,0.0
-258.0,-104.0,-7.0,39.0,31.0,62.0,36.0,36.0,29.0,-73.0,0.0
-190.0,-89.0,-4.0,44.0,34.0,69.0,39.0,51.0,25.0,-63.0,0.0
-115.0,-64.0,-3.0,32.0,25.0,73.0,39.0,44.0,18.0,-48.0,0.0
-57.0,-64.0,21.0,16.0,3.0,70.0,21.0,23.0,19.0,-29.0,0.0
-30.0,-75.0,52.0,19.0,-26.0,66.0,14.0,27.0,17.0,-14.0,0.0
-50.0,-79.0,60.0,31.0,-5.0,62.0,1.0,21.0,-3.0,-28.0,0.0
-80.0,-92.0,39.0,29.0,53.0,54.0,-19.0,-3.0,-27.0,-45.0,0.0
-70.0,-79.0,29.0,18.0,46.0,41.0,-31.0,-19.0,-47.0,-46.0,0.0
-39.0,-55.0,43.0,0.0,2.0,33.0,-30.0,-13.0,-31.0,-36.0,0.0
-11.0,-45.0,40.0,5.0,-22.0,31.0,-16.0,-15.0,-32.0,-34.0,0.0
-3.0,-32.0,16.0,14.0,-18.0,39.0,-12.0,-27.0,-32.0,-37.0,0.0
-19.0,-28.0,-7.0,17.0,3.0,43.0,-11.0,-27.0,-33.0,-45.0,0.0
-32.0,-38.0,-10.0,0.0,-6.0,36.0,-6.0,-31.0,-33.0,-45.0,0.0
-30.0,-40.0,2.0,-12.0,-23.0,28.0,-9.0,-30.0,-27.0,-57.0,0.0
-13.0,-36.0,7.0,-16.0,-45.0,12.0,-11.0,-36.0,-24.0,-51.0,0.0
-11.0,-24.0,2.0,-19.0,-54.0,18.0,-11.0,-38.0,-31.0,-45.0,0.0
-4.0,-15.0,11.0,-17.0,-50.0,22.0,-25.0,-30.0,-29.0,-40.0,0.0
9.0,2.0,33.0,-9.0,-39.0,36.0,-26.0,-27.0,-26.0,-42.0,0.0
16.0,20.0,52.0,-19.0,-26.0,55.0,-22.0,-20.0,-19.0,-25.0,0.0
26.0,16.0,61.0,-20.0,-21.0,56.0,-28.0,-9.0,-11.0,8.0,0.0
34.0,15.0,47.0,-2.0,-12.0,63.0,-25.0,2.0,2.0,29.0,0.0
38.0,21.0,27.0,10.0,-3.0,72.0,-6.0,1.0,17.0,22.0,0.0
34.0,28.0,18.0,14.0,-2.0,67.0,-4.0,1.0,8.0,23.0,0.0
29.0,24.0,18.0,11.0,-7.0,56.0,-8.0,3.0,-5.0,32.0,0.0
36.0,14.0,10.0,-1.0,-16.0,52.0,-5.0,3.0,3.0,19.0,0.0
37.0,22.0,9.0,-11.0,-26.0,48.0,-1.0,1.0,5.0,13.0,0.0
23.0,21.0,-1.0,-26.0,-40.0,41.0,4.0,6.0,-4.0,14.0,0.0
8.0,15.0,-17.0,-27.0,-36.0,34.0,8.0,17.0,-6.0,7.0,0.0
-14.0,5.0,-21.0,-25.0,-45.0,28.0,4.0,8.0,3.0,-4.0,0.0
-18.0,8.0,-16.0,-25.0,-54.0,12.0,2.0,-9.0,3.0,-15.0,0.0
-6.0,2.0,-11.0,-17.0,-61.0,10.0,-4.0,-8.0,-16.0,-19.0,0.0
-1.0,3.0,-8.0,-12.0,-53.0,12.0,4.0,-4.0,-15.0,-12.0,0.0
5.0,4.0,-4.0,-13.0,-44.0,16.0,9.0,-3.0,-8.0,3.0,0.0
12.0,15.0,24.0,-7.0,-39.0,22.0,16.0,0.0,-11.0,2.0,0.0
34.0,16.0,27.0,1.0,-29.0,33.0,16.0,6.0,6.0,1.0,0.0
45.0,14.0,20.0,-3.0,-30.0,50.0,13.0,12.0,7.0,3.0,0.0
50.0,17.0,23.0,1.0,-21.0,41.0,-4.0,22.0,5.0,17.0,0.0
51.0,22.0,26.0,15.0,-14.0,44.0,-17.0,25.0,7.0,40.0,0.0
60.0,28.0,16.0,15.0,-21.0,56.0,-18.0,21.0,22.0,51.0,0.0
67.0,31.0,15.0,11.0,-26.0,43.0,-15.0,17.0,31.0,61.0,0.0
71.0,31.0,19.0,0.0,-33.0,36.0,-13.0,16.0,22.0,68.0,0.0
74.0,52.0,9.0,-19.0,-35.0,19.0,-1.0,14.0,14.0,62.0,0.0
76.0,101.0,17.0,-20.0,-48.0,2.0,-8.0,2.0,0.0,51.0,0.0
100.0,146.0,30.0,-27.0,-56.0,-6.0,-13.0,-9.0,-21.0,40.0,0.0
139.0,161.0,35.0,-50.0,-76.0,-13.0,-5.0,-21.0,-24.0,46.0,0.0
119.0,109.0,3.0,-92.0,-91.0,-7.0,16.0,-17.0,-11.0,67.0,0.0
64.0,16.0,-30.0,-86.0,-75.0,12.0,21.0,-10.0,-1.0,76.0,0.0
5.0,-45.0,-26.0,-25.0,-20.0,14.0,15.0,-8.0,2.0,55.0,0.0
-32.0,-101.0,-47.0,1.0,44.0,18.0,19.0,-6.0,6.0,40.0,0.0
-40.0,-62.0,-23.0,11.0,36.0,27.0,21.0,-10.0,-25.0,-7.0,0.0
23.0,43.0,30.0,18.0,10.0,27.0,8.0,-22.0,-61.0,-54.0,0.0
105.0,96.0,45.0,22.0,-6.0,21.0,2.0,-12.0,-59.0,-28.0,0.0
105.0,73.0,18.0,34.0,-12.0,10.0,8.0,0.0,-18.0,29.0,0.0
28.0,29.0,35.0,34.0,-7.0,8.0,13.0,7.0,25.0,56.0,0.0
-47.0,4.0,53.0,46.0,4.0,5.0,6.0,-2.0,26.0,49.0,0.0
-96.0,-19.0,47.0,38.0,17.0,-8.0,2.0,0.0,20.0,36.0,0.0
-63.0,-15.0,48.0,29.0,10.0,-10.0,1.0,-2.0,7.0,16.0,0.0
-46.0,-46.0,39.0,8.0,3.0,-4.0,-1.0,-3.0,0.0,7.0,0.0
-74.0,-90.0,22.0,2.0,10.0,0.0,16.0,11.0,20.0,30.0,0.0
-100.0,-75.0,24.0,14.0,-1.0,-2.0,24.0,20.0,21.0,18.0,0.0
-132.0,-48.0,27.0,3.0,-29.0,-13.0,17.0,9.0,0.0,-24.0,0.0
-185.0,-54.0,29.0,9.0,-20.0,-6.0,15.0,7.0,-14.0,-71.0,0.0
-205.0,-71.0,6.0,18.0,43.0,14.0,13.0,0.0,-34.0,-91.0,0.0
-165.0,-74.0,-2.0,6.0,43.0,7.0,0.0,-12.0,-40.0,-78.0,0.0
-111.0,-55.0,-2.0,6.0,-2.0,0.0,1.0,-10.0,-29.0,-65.0,0.0
-74.0,-40.0,-13.0,6.0,-25.0,-14.0,0.0,-11.0,-30.0,-51.0,0.0
-57.0,-35.0,-16.0,13.0,-25.0,-17.0,-3.0,-12.0,-31.0,-41.0,0.0
-35.0,-25.0,-10.0,25.0,-21.0,-13.0,-7.0,0.0,-26.0,-30.0,0.0
-14.0,-9.0,-6.0,37.0,-14.0,0.0,-10.0,21.0,-1.0,0.0,0.0
-7.0,6.0,-9.0,37.0,-18.0,12.0,-4.0,33.0,16.0,19.0,0.0
-3.0,9.0,-2.0,21.0,-12.0,16.0,3.0,26.0,14.0,16.0,0.0
3.0,10.0,-3.0,16.0,2.0,23.0,1.0,23.0,13.0,4.0,0.0
17.0,11.0,-2.0,37.0,13.0,18.0,0.0,24.0,5.0,6.0,0.0
22.0,3.0,1.0,36.0,0.0,10.0,2.0,22.0,10.0,22.0,0.0
21.0,9.0,16.0,26.0,-4.0,4.0,0.0,13.0,12.0,21.0,0.0
19.0,8.0,13.0,23.0,-12.0,-7.0,-5.0,13.0,3.0,14.0,0.0
20.0,-4.0,-3.0,9.0,-23.0,-21.0,-11.0,4.0,-2.0,9.0,0.0
13.0,0.0,-9.0,-1.0,-32.0,-26.0,10.0,8.0,-11.0,8.0,0.0
0.0,-8.0,-17.0,-14.0,-29.0,-37.0,0.0,0.0,-22.0,1.0,0.0
-19.0,-15.0,-21.0,-10.0,-27.0,-54.0,-6.0,-7.0,-16.0,-13.0,0.0
-9.0,-11.0,-22.0,-16.0,-32.0,-61.0,5.0,-6.0,-10.0,-13.0,0.0
3.0,-13.0,-29.0,-22.0,-38.0,-57.0,14.0,8.0,-5.0,4.0,0.0
8.0,-4.0,-31.0,-17.0,-33.0,-42.0,18.0,18.0,-7.0,3.0,0.0
27.0,7.0,-20.0,-1.0,-31.0,-25.0,13.0,15.0,-1.0,8.0,0.0
34.0,14.0,0.0,13.0,-15.0,-16.0,5.0,13.0,22.0,18.0,0.0
29.0,18.0,3.0,12.0,-14.0,-11.0,-5.0,5.0,30.0,20.0,0.0
37.0,27.0,5.0,10.0,2.0,-4.0,-6.0,13.0,39.0,22.0,0.0
35.0,28.0,11.0,17.0,15.0,5.0,-9.0,13.0,44.0,29.0,0.0
35.0,22.0,22.0,18.0,16.0,-1.0,-6.0,15.0,38.0,29.0,0.0
32.0,24.0,20.0,23.0,13.0,-10.0,-5.0,15.0,18.0,25.0,0.0
25.0,12.0,10.0,23.0,7.0,-17.0,-5.0,19.0,17.0,18.0,0.0
12.0,-3.0,-3.0,16.0,3.0,-25.0,-9.0,18.0,7.0,13.0,0.0
-3.0,-7.0,-27.0,16.0,-3.0,-42.0,-17.0,10.0,-1.0,12.0,0.0
-9.0,-14.0,-43.0,3.0,-20.0,-42.0,-12.0,12.0,-6.0,10.0,0.0
1.0,-17.0,-49.0,-15.0,-28.0,-36.0,0.0,14.0,8.0,14.0,0.0
-13.0,-22.0,-54.0,-28.0,-44.0,-42.0,-5.0,16.0,1.0,11.0,0.0
-31.0,-12.0,-54.0,-42.0,-53.0,-37.0,-4.0,12.0,-4.0,13.0,0.0
8.0,-7.0,-54.0,-39.0,-39.0,-32.0,-3.0,7.0,7.0,25.0,0.0
61.0,6.0,-77.0,-40.0,-33.0,-32.0,-14.0,1.0,14.0,33.0,0.0
103.0,27.0,-87.0,-51.0,-45.0,-39.0,-9.0,4.0,16.0,42.0,0.0
131.0,59.0,-85.0,-63.0,-51.0,-32.0,-8.0,13.0,18.0,59.0,0.0
154.0,107.0,-85.0,-65.0,-40.0,-20.0,0.0,15.0,12.0,71.0,0.0
221.0,156.0,-91.0,-67.0,-33.0,-4.0,6.0,20.0,17.0,65.0,0.0
257.0,215.0,-62.0,-47.0,-22.0,23.0,7.0,10.0,-14.0,21.0,0.0
217.0,220.0,-23.0,-8.0,10.0,37.0,13.0,-1.0,-40.0,-31.0,0.0
186.0,169.0,-23.0,14.0,62.0,37.0,3.0,-16.0,-66.0,-51.0,0.0
140.0,109.0,-20.0,29.0,99.0,12.0,-22.0,-46.0,-66.0,-31.0,0.0
42.0,15.0,-14.0,-6.0,53.0,-15.0,-26.0,-46.0,-32.0,-14.0,0.0
-75.0,-67.0,-2.0,-15.0,12.0,-14.0,-4.0,-25.0,11.0,-9.0,0.0
-126.0,-108.0,9.0,-10.0,1.0,-19.0,0.0,-16.0,27.0,7.0,0.0
-195.0,-167.0,21.0,8.0,10.0,-18.0,-13.0,-19.0,17.0,-1.0,0.0
-307.0,-211.0,59.0,57.0,23.0,-27.0,-20.0,-27.0,0.0,-59.0,0.0
-346.0,-219.0,68.0,80.0,29.0,-32.0,2.0,-26.0,-8.0,-100.0,0.0
-319.0,-195.0,49.0,70.0,23.0,-23.0,-1.0,-25.0,-28.0,-107.0,0.0
-253.0,-149.0,53.0,52.0,17.0,-22.0,-12.0,-19.0,-27.0,-95.0,0.0
-193.0,-110.0,70.0,52.0,10.0,-29.0,-15.0,-29.0,-41.0,-94.0,0.0
-134.0,-68.0,57.0,44.0,1.0,-45.0,-19.0,-23.0,-33.0,-78.0,0.0
-88.0,-48.0,43.0,41.0,5.0,-45.0,-5.0,-13.0,-17.0,-61.0,0.0
-65.0,-37.0,35.0,37.0,14.0,-29.0,9.0,-6.0,-6.0,-42.0,0.0
-64.0,-19.0,31.0,33.0,32.0,-20.0,14.0,-3.0,11.0,-20.0,0.0
-59.0,14.0,38.0,21.0,46.0,-6.0,15.0,10.0,23.0,0.0,0.0
-64.0,36.0,32.0,21.0,46.0,2.0,17.0,27.0,43.0,5.0,0.0
-53.0,22.0,40.0,18.0,40.0,4.0,13.0,31.0,34.0,5.0,0.0
-35.0,0.0,26.0,21.0,28.0,2.0,9.0,35.0,31.0,25.0,0.0
-48.0,-21.0,7.0,30.0,26.0,0.0,8.0,27.0,28.0,21.0,0.0
-50.0,-32.0,0.0,34.0,20.0,0.0,8.0,22.0,21.0,-6.0,0.0
-40.0,-27.0,-2.0,25.0,18.0,-3.0,2.0,0.0,5.0,-12.0,0.0
-16.0,-21.0,-1.0,18.0,7.0,-7.0,-11.0,-15.0,-9.0,-8.0,0.0
-12.0,-17.0,-13.0,7.0,-11.0,-9.0,-11.0,-23.0,-23.0,-7.0,0.0
-11.0,-18.0,-11.0,5.0,-24.0,-18.0,3.0,-21.0,-27.0,-11.0,0.0
-7.0,-10.0,-8.0,-10.0,-25.0,-18.0,-4.0,-13.0,-29.0,-10.0,0.0
-8.0,-3.0,4.0,-18.0,-16.0,-17.0,-10.0,-8.0,-17.0,-10.0,0.0
5.0,-1.0,11.0,-9.0,-16.0,-25.0,-5.0,-5.0,-5.0,-3.0,0.0
25.0,18.0,14.0,-11.0,-20.0,-22.0,-2.0,-8.0,0.0,6.0,0.0
48.0,33.0,11.0,-5.0,-14.0,-26.0,2.0,2.0,10.0,23.0,0.0
60.0,43.0,7.0,0.0,-6.0,-19.0,16.0,7.0,24.0,27.0,0.0
66.0,45.0,7.0,-9.0,15.0,-5.0,16.0,10.0,25.0,25.0,0.0
74.0,42.0,14.0,-7.0,11.0,11.0,18.0,8.0,34.0,50.0,0.0
81.0,45.0,18.0,4.0,9.0,19.0,26.0,13.0,21.0,47.0,0.0
85.0,42.0,16.0,4.0,0.0,4.0,25.0,13.0,10.0,35.0,0.0
66.0,36.0,8.0,-4.0,-7.0,-3.0,25.0,9.0,13.0,26.0,0.0
49.0,30.0,5.0,-4.0,-7.0,-8.0,20.0,5.0,5.0,13.0,0.0
40.0,32.0,-4.0,1.0,-7.0,-17.0,8.0,-6.0,-6.0,-6.0,0.0
36.0,29.0,-17.0,2.0,-10.0,-22.0,0.0,-15.0,-24.0,-12.0,0.0
24.0,28.0,-18.0,-5.0,-20.0,-32.0,-1.0,-19.0,-20.0,-19.0,0.0
13.0,21.0,-18.0,-12.0,-19.0,-43.0,-10.0,-23.0,-10.0,-30.0,0.0
8.0,20.0,-16.0,-9.0,-13.0,-39.0,-8.0,-22.0,-2.0,-16.0,0.0
11.0,14.0,-12.0,-7.0,-19.0,-41.0,-4.0,-21.0,-8.0,-13.0,0.0
14.0,19.0,-3.0,-13.0,-29.0,-19.0,2.0,-13.0,-7.0,-23.0,0.0
19.0,22.0,-2.0,-22.0,-16.0,2.0,12.0,-8.0,-12.0,-28.0,0.0
27.0,41.0,0.0,-17.0,-7.0,7.0,13.0,-3.0,-11.0,-22.0,0.0
64.0,64.0,9.0,-8.0,-3.0,5.0,12.0,9.0,-2.0,-7.0,0.0
106.0,101.0,24.0,-1.0,10.0,13.0,18.0,11.0,-5.0,8.0,0.0
146.0,131.0,24.0,-2.0,7.0,20.0,30.0,5.0,1.0,6.0,0.0
181.0,141.0,17.0,1.0,3.0,17.0,19.0,-2.0,13.0,27.0,0.0
174.0,120.0,10.0,-15.0,9.0,22.0,5.0,7.0,19.0,62.0,0.0
153.0,90.0,3.0,-24.0,25.0,40.0,7.0,10.0,18.0,78.0,0.0
123.0,66.0,17.0,-10.0,26.0,51.0,8.0,4.0,8.0,76.0,0.0
84.0,66.0,13.0,8.0,23.0,30.0,0.0,11.0,-9.0,39.0,0.0
89.0,106.0,5.0,-2.0,6.0,16.0,-5.0,-5.0,-23.0,-1.0,0.0
98.0,142.0,5.0,-21.0,-20.0,14.0,5.0,-11.0,-29.0,-29.0,0.0
44.0,131.0,-3.0,-33.0,-26.0,24.0,13.0,-7.0,-12.0,-37.0,0.0
-49.0,99.0,0.0,-33.0,-25.0,25.0,25.0,4.0,7.0,-34.0,0.0
-126.0,17.0,-20.0,-58.0,-48.0,21.0,21.0,18.0,29.0,0.0,0.0
-155.0,-71.0,-54.0,-61.0,-63.0,11.0,15.0,29.0,29.0,-4.0,0.0
-120.0,-118.0,-94.0,-41.0,-45.0,28.0,17.0,32.0,49.0,17.0,0.0
-51.0,-107.0,-97.0,-18.0,17.0,63.0,8.0,24.0,33.0,31.0,0.0
17.0,-58.0,-58.0,-12.0,24.0,87.0,11.0,18.0,12.0,17.0,0.0
23.0,-68.0,-32.0,-2.0,15.0,110.0,51.0,32.0,26.0,17.0,0.0
-15.0,-104.0,-6.0,40.0,51.0,146.0,67.0,46.0,45.0,19.0,0.0
-11.0,-91.0,13.0,84.0,86.0,163.0,38.0,36.0,42.0,8.0,0.0
-13.0,-62.0,18.0,76.0,75.0,165.0,34.0,25.0,63.0,18.0,0.0
-90.0,-53.0,29.0,61.0,55.0,163.0,31.0,28.0,55.0,13.0,0.0
-122.0,-47.0,38.0,68.0,40.0,161.0,23.0,22.0,44.0,0.0,0.0
-64.0,-30.0,50.0,69.0,17.0,151.0,12.0,5.0,15.0,-31.0,0.0
-8.0,-65.0,33.0,42.0,-4.0,135.0,0.0,-22.0,-13.0,-43.0,0.0
18.0,-74.0,5.0,31.0,-19.0,116.0,-21.0,-39.0,-19.0,-44.0,0.0
0.0,-70.0,-5.0,33.0,-28.0,114.0,-28.0,-35.0,-22.0,-55.0,0.0
-39.0,-80.0,-7.0,18.0,-43.0,106.0,-32.0,-35.0,-26.0,-46.0,0.0
-82.0,-74.0,-18.0,5.0,-49.0,110.0,-23.0,-35.0,-24.0,-45.0,0.0
-120.0,-62.0,-23.0,1.0,-46.0,117.0,-8.0,-24.0,-32.0,-44.0,0.0
-120.0,-50.0,-22.0,3.0,-44.0,127.0,-3.0,-22.0,-31.0,-48.0,0.0
-85.0,-34.0,-23.0,5.0,-42.0,133.0,-8.0,-25.0,-29.0,-28.0,0.0
-32.0,-16.0,-26.0,15.0,-41.0,132.0,-11.0,-18.0,-16.0,-13.0,0.0
-3.0,8.0,-14.0,28.0,-26.0,140.0,-8.0,-6.0,-6.0,-3.0,0.0
13.0,27.0,1.0,39.0,-16.0,151.0,-13.0,-9.0,-16.0,8.0,0.0
41.0,44.0,21.0,42.0,-9.0,158.0,-9.0,-2.0,-15.0,14.0,0.0
56.0,46.0,23.0,44.0,-7.0,170.0,-1.0,18.0,-9.0,28.0,0.0
57.0,52.0,16.0,26.0,0.0,171.0,11.0,25.0,6.0,29.0,0.0
48.0,63.0,4.0,24.0,-2.0,156.0,9.0,17.0,9.0,32.0,0.0
47.0,60.0,2.0,14.0,-8.0,141.0,0.0,6.0,4.0,26.0,0.0
40.0,46.0,-6.0,-6.0,-17.0,138.0,-4.0,4.0,0.0,7.0,0.0
34.0,30.0,-10.0,-13.0,-34.0,133.0,-15.0,5.0,-2.0,-1.0,0.0
27.0,26.0,-4.0,-8.0,-41.0,122.0,-18.0,0.0,-3.0,2.0,0.0
18.0,22.0,-13.0,-5.0,-51.0,129.0,-21.0,-10.0,-24.0,0.0,0.0
14.0,7.0,-28.0,-18.0,-65.0,127.0,-20.0,-21.0,-35.0,1.0,0.0
8.0,5.0,-40.0,-9.0,-64.0,113.0,-11.0,-25.0,-29.0,7.0,0.0
7.0,1.0,-32.0,-3.0,-60.0,110.0,-10.0,-9.0,-24.0,3.0,0.0
13.0,0.0,-19.0,-6.0,-57.0,118.0,-4.0,2.0,-8.0,5.0,0.0
17.0,0.0,-9.0,3.0,-50.0,118.0,4.0,13.0,7.0,14.0,0.0
17.0,13.0,-9.0,8.0,-36.0,123.0,26.0,15.0,19.0,30.0,0.0
28.0,31.0,-7.0,16.0,-32.0,124.0,28.0,19.0,32.0,40.0,0.0
46.0,34.0,-2.0,29.0,-20.0,126.0,13.0,29.0,32.0,48.0,0.0
55.0,40.0,-1.0,27.0,-13.0,139.0,7.0,49.0,34.0,50.0,0.0
53.0,49.0,-3.0,24.0,-6.0,146.0,5.0,43.0,43.0,42.0,0.0
36.0,56.0,-2.0,39.0,-9.0,141.0,17.0,41.0,49.0,45.0,0.0
29.0,53.0,3.0,55.0,-15.0,126.0,21.0,43.0,45.0,46.0,0.0
38.0,39.0,4.0,36.0,-21.0,118.0,18.0,43.0,37.0,44.0,0.0
38.0,23.0,1.0,21.0,-26.0,111.0,2.0,28.0,30.0,42.0,0.0
30.0,12.0,1.0,8.0,-29.0,97.0,-7.0,14.0,13.0,30.0,0.0
32.0,37.0,16.0,9.0,-32.0,75.0,-19.0,-1.0,3.0,19.0,0.0
72.0,84.0,30.0,7.0,-41.0,54.0,-31.0,-20.0,-3.0,6.0,0.0
127.0,101.0,3.0,-12.0,-54.0,39.0,-35.0,-28.0,-5.0,2.0,0.0
179.0,99.0,-15.0,-24.0,-68.0,20.0,-39.0,-23.0,-10.0,5.0,0.0
219.0,97.0,-32.0,-50.0,-76.0,15.0,-32.0,-15.0,-10.0,25.0,0.0
233.0,103.0,-39.0,-49.0,-75.0,31.0,-22.0,0.0,0.0,59.0,0.0
233.0,125.0,-31.0,-39.0,-72.0,45.0,-17.0,6.0,4.0,85.0,0.0
178.0,158.0,-2.0,-34.0,-76.0,33.0,-31.0,-19.0,-26.0,45.0,0.0
95.0,150.0,17.0,-50.0,-74.0,38.0,-25.0,-22.0,-32.0,39.0,0.0
78.0,142.0,45.0,-41.0,-65.0,58.0,-4.0,6.0,-1.0,76.0,0.0
0.0,139.0,86.0,-18.0,-70.0,75.0,28.0,51.0,59.0,96.0,0.0
-111.0,81.0,100.0,0.0,-70.0,117.0,72.0,93.0,97.0,70.0,0.0
-141.0,-23.0,49.0,16.0,-75.0,146.0,96.0,110.0,123.0,62.0,0.0
-159.0,-99.0,33.0,46.0,-23.0,155.0,102.0,122.0,121.0,55.0,0.0
-211.0,-162.0,10.0,92.0,88.0,158.0,75.0,88.0,68.0,-28.0,0.0
-180.0,-177.0,-34.0,57.0,57.0,151.0,58.0,54.0,28.0,-64.0,0.0
-132.0,-143.0,-43.0,9.0,-12.0,132.0,66.0,47.0,30.0,-54.0,0.0
-163.0,-128.0,-47.0,-14.0,-60.0,122.0,55.0,49.0,26.0,-65.0,0.0
-240.0,-149.0,-47.0,6.0,-58.0,112.0,48.0,28.0,-11.0,-107.0,0.0
-267.0,-168.0,-28.0,60.0,39.0,110.0,25.0,-4.0,-47.0,-144.0,0.0
-225.0,-172.0,-32.0,77.0,76.0,98.0,19.0,-17.0,-55.0,-129.0,0.0
-166.0,-147.0,-4.0,57.0,25.0,92.0,25.0,-3.0,-41.0,-103.0,0.0
-107.0,-92.0,18.0,43.0,4.0,74.0,5.0,2.0,-32.0,-80.0,0.0
-48.0,-33.0,31.0,52.0,-12.0,70.0,4.0,5.0,-21.0,-47.0,0.0
-10.0,-3.0,36.0,49.0,-8.0,71.0,16.0,-1.0,-13.0,-37.0,0.0
13.0,22.0,55.0,50.0,1.0,63.0,14.0,5.0,-6.0,-16.0,0.0
16.0,28.0,86.0,67.0,9.0,77.0,-4.0,3.0,3.0,4.0,0.0
-27.0,15.0,107.0,80.0,13.0,92.0,-15.0,9.0,-4.0,-15.0,0.0
-24.0,20.0,85.0,85.0,7.0,97.0,-13.0,9.0,-13.0,-22.0,0.0
20.0,40.0,61.0,66.0,-3.0,92.0,-11.0,0.0,-4.0,7.0,0.0
24.0,36.0,45.0,51.0,-3.0,85.0,-12.0,1.0,0.0,10.0,0.0
19.0,29.0,34.0,36.0,-2.0,71.0,-14.0,2.0,-1.0,8.0,0.0
15.0,27.0,20.0,27.0,-23.0,55.0,-26.0,-4.0,-3.0,-1.0,0.0
20.0,16.0,17.0,20.0,-40.0,34.0,-37.0,-8.0,-5.0,3.0,0.0
17.0,10.0,9.0,4.0,-46.0,18.0,-33.0,-11.0,-3.0,6.0,0.0
28.0,13.0,-4.0,-5.0,-49.0,22.0,-29.0,-22.0,-5.0,-10.0,0.0
28.0,23.0,0.0,-5.0,-48.0,30.0,-24.0,-16.0,-16.0,-24.0,0.0
18.0,13.0,-5.0,-7.0,-41.0,32.0,-11.0,-11.0,-13.0,-32.0,0.0
22.0,-3.0,0.0,-11.0,-38.0,30.0,5.0,-6.0,-15.0,-24.0,0.0
22.0,-16.0,-6.0,-4.0,-30.0,29.0,-4.0,-4.0,-9.0,-15.0,0.0
20.0,0.0,-2.0,6.0,-21.0,36.0,-15.0,-14.0,-8.0,-20.0,0.0
39.0,24.0,-1.0,2.0,0.0,39.0,-22.0,-6.0,-10.0,-16.0,0.0
62.0,26.0,15.0,0.0,8.0,46.0,-26.0,14.0,-9.0,-4.0,0.0
84.0,49.0,24.0,0.0,14.0,57.0,-16.0,9.0,-2.0,0.0,0.0
87.0,58.0,36.0,10.0,28.0,68.0,-4.0,10.0,9.0,0.0,0.0
48.0,48.0,36.0,27.0,33.0,55.0,11.0,12.0,13.0,-13.0,0.0
24.0,34.0,33.0,12.0,27.0,47.0,11.0,22.0,16.0,2.0,0.0
26.0,31.0,18.0,-9.0,11.0,30.0,3.0,22.0,26.0,20.0,0.0
30.0,27.0,6.0,-28.0,-1.0,22.0,-14.0,13.0,29.0,24.0,0.0
24.0,15.0,-1.0,-27.0,0.0,20.0,-23.0,-1.0,20.0,8.0,0.0
9.0,-4.0,0.0,-27.0,-6.0,10.0,-20.0,-6.0,9.0,16.0,0.0
9.0,-5.0,-2.0,-23.0,-14.0,-2.0,-22.0,-9.0,6.0,29.0,0.0
-10.0,-10.0,-10.0,-29.0,-20.0,-8.0,-19.0,-13.0,-2.0,29.0,0.0
-27.0,-20.0,-1.0,-21.0,-15.0,-5.0,-17.0,-17.0,-5.0,4.0,0.0
-32.0,-36.0,12.0,-9.0,-11.0,5.0,-24.0,-19.0,-13.0,-17.0,0.0
-6.0,-32.0,9.0,-18.0,-18.0,6.0,-14.0,-22.0,-16.0,-3.0,0.0
4.0,-15.0,2.0,-15.0,-14.0,2.0,-10.0,-14.0,-5.0,4.0,0.0
25.0,-8.0,11.0,0.0,-2.0,6.0,0.0,-9.0,8.0,18.0,0.0
39.0,6.0,19.0,5.0,13.0,9.0,1.0,-7.0,16.0,25.0,0.0
43.0,22.0,22.0,1.0,24.0,22.0,11.0,0.0,19.0,25.0,0.0
49.0,25.0,21.0,9.0,33.0,35.0,32.0,16.0,27.0,36.0,0.0
57.0,34.0,20.0,22.0,44.0,38.0,30.0,21.0,32.0,53.0,0.0
47.0,53.0,23.0,15.0,29.0,40.0,13.0,14.0,36.0,64.0,0.0
29.0,45.0,16.0,0.0,18.0,37.0,9.0,7.0,42.0,64.0,0.0
20.0,38.0,16.0,-3.0,3.0,23.0,10.0,3.0,20.0,71.0,0.0
5.0,22.0,-2.0,-10.0,0.0,2.0,20.0,-3.0,9.0,58.0,0.0
-5.0,8.0,-21.0,-34.0,6.0,4.0,20.0,2.0,11.0,49.0,0.0
-13.0,-14.0,-38.0,-46.0,-1.0,3.0,8.0,5.0,15.0,38.0,0.0
-9.0,-59.0,-64.0,-51.0,-16.0,-10.0,-1.0,-1.0,17.0,35.0,0.0
-21.0,-88.0,-78.0,-53.0,-27.0,-15.0,12.0,-2.0,-3.0,32.0,0.0
-46.0,-69.0,-68.0,-21.0,-13.0,-7.0,28.0,-8.0,-7.0,23.0,0.0
-32.0,-43.0,-42.0,0.0,-17.0,3.0,13.0,-10.0,-9.0,15.0,0.0
8.0,-13.0,-13.0,0.0,-10.0,9.0,5.0,-12.0,-11.0,20.0,0.0
87.0,5.0,14.0,-23.0,-19.0,2.0,5.0,-15.0,-1.0,25.0,0.0
173.0,45.0,22.0,-23.0,-10.0,-6.0,18.0,-23.0,1.0,40.0,0.0
206.0,66.0,19.0,-6.0,3.0,-13.0,3.0,-20.0,0.0,53.0,0.0
174.0,54.0,29.0,37.0,34.0,6.0,-16.0,-20.0,-5.0,61.0,0.0
151.0,63.0,53.0,50.0,30.0,20.0,-26.0,-25.0,-19.0,48.0,0.0
71.0,60.0,74.0,46.0,21.0,16.0,-18.0,-29.0,-10.0,31.0,0.0
-25.0,31.0,61.0,58.0,28.0,31.0,1.0,-17.0,3.0,8.0,0.0
-33.0,34.0,46.0,60.0,33.0,45.0,20.0,-12.0,6.0,-9.0,0.0
14.0,59.0,38.0,45.0,28.0,42.0,4.0,-18.0,8.0,-27.0,0.0
54.0,72.0,40.0,33.0,13.0,42.0,-17.0,-32.0,-10.0,-53.0,0.0
64.0,69.0,24.0,20.0,8.0,50.0,-19.0,-38.0,-18.0,-43.0,0.0
67.0,64.0,13.0,15.0,-4.0,45.0,-18.0,-39.0,-17.0,-21.0,0.0
31.0,13.0,-4.0,0.0,-26.0,27.0,-27.0,-41.0,-23.0,5.0,0.0
-13.0,-45.0,-12.0,-21.0,-43.0,18.0,-20.0,-35.0,6.0,42.0,0.0
-37.0,-56.0,0.0,-23.0,-44.0,21.0,-16.0,-32.0,-2.0,23.0,0.0
-56.0,-35.0,3.0,-7.0,-33.0,43.0,-11.0,-24.0,-19.0,3.0,0.0
-39.0,9.0,15.0,-6.0,-15.0,65.0,8.0,-8.0,-10.0,-1.0,0.0
-32.0,27.0,11.0,-29.0,0.0,84.0,13.0,2.0,7.0,-6.0,0.0
-19.0,7.0,-3.0,-39.0,13.0,98.0,7.0,-2.0,14.0,6.0,0.0
-2.0,-20.0,2.0,-33.0,29.0,103.0,12.0,-5.0,15.0,-1.0,0.0
-9.0,-54.0,5.0,-23.0,38.0,118.0,42.0,24.0,32.0,26.0,0.0
-26.0,-74.0,1.0,-27.0,48.0,115.0,53.0,42.0,75.0,67.0,0.0
-25.0,-46.0,18.0,-17.0,48.0,106.0,47.0,36.0,74.0,64.0,0.0
-6.0,-6.0,31.0,0.0,42.0,108.0,38.0,15.0,47.0,35.0,0.0
3.0,15.0,29.0,2.0,47.0,114.0,22.0,2.0,28.0,21.0,0.0
28.0,40.0,10.0,-12.0,37.0,104.0,2.0,-14.0,-11.0,0.0,0.0
58.0,83.0,5.0,-23.0,20.0,85.0,-7.0,-38.0,-48.0,-21.0,0.0
88.0,124.0,5.0,-46.0,-2.0,52.0,-12.0,-46.0,-42.0,18.0,0.0
37.0,105.0,0.0,-67.0,-22.0,31.0,-14.0,-38.0,-13.0,63.0,0.0
-91.0,67.0,0.0,-40.0,-11.0,45.0,0.0,-25.0,6.0,48.0,0.0
-151.0,16.0,11.0,-14.0,-22.0,46.0,-13.0,-6.0,9.0,27.0,0.0
-138.0,-39.0,-6.0,-29.0,-56.0,44.0,-17.0,12.0,34.0,39.0,0.0
-188.0,-110.0,-37.0,-35.0,-54.0,61.0,9.0,29.0,44.0,11.0,0.0
-237.0,-147.0,-47.0,-41.0,-46.0,96.0,57.0,63.0,73.0,-14.0,0.0
-251.0,-189.0,-54.0,-45.0,-53.0,109.0,77.0,98.0,98.0,-11.0,0.0
-250.0,-218.0,-59.0,-22.0,-12.0,130.0,90.0,112.0,96.0,-6.0,0.0
-171.0,-200.0,-68.0,-11.0,32.0,138.0,64.0,81.0,74.0,7.0,0.0
-91.0,-155.0,-64.0,-16.0,31.0,146.0,62.0,71.0,64.0,16.0,0.0
-54.0,-122.0,-46.0,24.0,63.0,147.0,56.0,54.0,42.0,12.0,0.0
-21.0,-99.0,-48.0,47.0,111.0,126.0,19.0,23.0,13.0,2.0,0.0
7.0,-61.0,-54.0,32.0,102.0,101.0,-9.0,3.0,-11.0,-32.0,0.0
19.0,-37.0,-35.0,34.0,64.0,91.0,-4.0,-6.0,-20.0,-54.0,0.0
10.0,-40.0,-12.0,43.0,49.0,94.0,-1.0,-16.0,-27.0,-77.0,0.0
-1.0,-40.0,-3.0,24.0,34.0,95.0,-6.0,-17.0,-38.0,-91.0,0.0
17.0,-34.0,4.0,-11.0,24.0,86.0,-9.0,-27.0,-39.0,-87.0,0.0
49.0,-24.0,-12.0,-21.0,7.0,69.0,-4.0,-28.0,-38.0,-83.0,0.0
84.0,1.0,-22.0,-9.0,1.0,59.0,-3.0,-35.0,-63.0,-73.0,0.0
102.0,49.0,-11.0,1.0,0.0,60.0,-32.0,-45.0,-66.0,-59.0,0.0
95.0,85.0,1.0,10.0,2.0,67.0,-56.0,-41.0,-60.0,-56.0,0.0
91.0,89.0,0.0,20.0,-1.0,71.0,-53.0,-20.0,-47.0,-30.0,0.0
76.0,54.0,2.0,21.0,0.0,70.0,-39.0,1.0,-16.0,1.0,0.0
36.0,46.0,24.0,32.0,10.0,84.0,-11.0,12.0,-16.0,-7.0,0.0
-7.0,30.0,38.0,48.0,25.0,100.0,12.0,29.0,-17.0,-19.0,0.0
-54.0,-25.0,40.0,60.0,29.0,125.0,23.0,45.0,2.0,-1.0,0.0
-52.0,-41.0,39.0,64.0,31.0,148.0,24.0,42.0,14.0,9.0,0.0
-20.0,-20.0,29.0,60.0,19.0,152.0,17.0,33.0,9.0,5.0,0.0
7.0,-16.0,23.0,50.0,9.0,138.0,-4.0,29.0,2.0,13.0,0.0
9.0,-11.0,28.0,43.0,0.0,134.0,-9.0,20.0,-2.0,1.0,0.0
8.0,1.0,35.0,38.0,1.0,119.0,-2.0,10.0,-11.0,-24.0,0.0
8.0,6.0,26.0,34.0,-4.0,111.0,8.0,-3.0,-23.0,-43.0,0.0
-2.0,2.0,32.0,26.0,-11.0,98.0,0.0,-12.0,-24.0,-44.0,0.0
-12.0,-6.0,22.0,17.0,-13.0,84.0,-13.0,-26.0,-28.0,-32.0,0.0
-3.0,-10.0,5.0,9.0,-10.0,71.0,-3.0,-34.0,-38.0,-21.0,0.0
3.0,-13.0,-10.0,6.0,-22.0,63.0,10.0,-37.0,-40.0,-21.0,0.0
0.0,-3.0,-18.0,4.0,-29.0,60.0,-3.0,-30.0,-35.0,-17.0,0.0
-4.0,8.0,-20.0,0.0,-21.0,66.0,-9.0,-27.0,-35.0,-9.0,0.0
6.0,12.0,-17.0,0.0,-9.0,69.0,0.0,-21.0,-14.0,3.0,0.0
39.0,30.0,-13.0,-10.0,0.0,70.0,9.0,-18.0,3.0,7.0,0.0
62.0,46.0,-18.0,-17.0,-6.0,73.0,0.0,-13.0,10.0,8.0,0.0
82.0,49.0,-11.0,-8.0,-1.0,73.0,-6.0,-21.0,0.0,15.0,0.0
103.0,78.0,-7.0,-6.0,3.0,85.0,-2.0,-16.0,-3.0,22.0,0.0
105.0,115.0,2.0,-10.0,-5.0,85.0,1.0,-15.0,-1.0,24.0,0.0
85.0,116.0,9.0,-14.0,-13.0,74.0,0.0,-22.0,5.0,45.0,0.0
58.0,100.0,12.0,-8.0,-19.0,66.0,-4.0,-27.0,8.0,37.0,0.0
50.0,62.0,8.0,4.0,-33.0,56.0,12.0,-18.0,15.0,30.0,0.0
46.0,0.0,-23.0,-5.0,-48.0,47.0,28.0,-4.0,38.0,47.0,0.0
75.0,-35.0,-51.0,-25.0,-58.0,39.0,28.0,9.0,43.0,56.0,0.0
97.0,-37.0,-46.0,-41.0,-68.0,40.0,29.0,12.0,38.0,43.0,0.0
82.0,-38.0,-47.0,-26.0,-32.0,38.0,2.0,-10.0,16.0,31.0,0.0
36.0,-51.0,-57.0,-16.0,10.0,34.0,-6.0,-18.0,-10.0,16.0,0.0
-23.0,-50.0,-44.0,25.0,75.0,15.0,-12.0,-43.0,-42.0,-34.0,0.0
-90.0,-46.0,-14.0,56.0,105.0,6.0,-32.0,-58.0,-60.0,-65.0,0.0
-113.0,-37.0,-4.0,34.0,70.0,10.0,-30.0,-27.0,-40.0,-46.0,0.0
-94.0,-25.0,3.0,26.0,40.0,12.0,-34.0,-8.0,-34.0,-29.0,0.0
-67.0,-5.0,2.0,30.0,32.0,10.0,-32.0,3.0,-24.0,-14.0,0.0
-37.0,-6.0,1.0,29.0,25.0,11.0,-12.0,20.0,6.0,21.0,0.0
-15.0,-9.0,5.0,27.0,28.0,14.0,9.0,33.0,19.0,40.0,0.0
-12.0,3.0,12.0,29.0,33.0,11.0,12.0,34.0,27.0,34.0,0.0
-13.0,7.0,27.0,36.0,41.0,14.0,15.0,32.0,31.0,24.0,0.0
-10.0,20.0,36.0,41.0,31.0,17.0,10.0,23.0,22.0,14.0,0.0
-20.0,20.0,23.0,36.0,29.0,24.0,16.0,20.0,18.0,9.0,0.0
-29.0,16.0,5.0,30.0,25.0,23.0,11.0,15.0,15.0,14.0,0.0
-18.0,27.0,8.0,24.0,13.0,15.0,0.0,12.0,7.0,9.0,0.0
-22.0,30.0,21.0,11.0,6.0,-1.0,5.0,-2.0,1.0,0.0,0.0
-26.0,8.0,1.0,3.0,0.0,-18.0,3.0,-5.0,-7.0,-9.0,0.0
-33.0,-5.0,-9.0,0.0,0.0,-40.0,-3.0,-6.0,-14.0,-21.0,0.0
-33.0,-14.0,-24.0,-1.0,-4.0,-48.0,-3.0,-12.0,-18.0,-24.0,0.0
-37.0,-12.0,-21.0,-5.0,0.0,-45.0,-7.0,-15.0,-16.0,-28.0,0.0
-27.0,-4.0,-3.0,2.0,6.0,-58.0,-10.0,-9.0,-20.0,-28.0,0.0
-16.0,-1.0,-6.0,2.0,14.0,-57.0,-13.0,-10.0,-26.0,-13.0,0.0
4.0,7.0,-4.0,0.0,21.0,-66.0,-14.0,13.0,-19.0,0.0,0.0
25.0,18.0,-1.0,-4.0,29.0,-63.0,1.0,31.0,-11.0,7.0,0.0
31.0,18.0,0.0,2.0,32.0,-51.0,11.0,26.0,-4.0,18.0,0.0
38.0,20.0,4.0,0.0,30.0,-52.0,6.0,21.0,0.0,30.0,0.0
36.0,32.0,12.0,10.0,36.0,-56.0,12.0,32.0,11.0,21.0,0.0
30.0,34.0,12.0,20.0,40.0,-54.0,10.0,35.0,10.0,8.0,0.0
28.0,36.0,20.0,11.0,31.0,-52.0,-2.0,30.0,0.0,9.0,0.0
31.0,31.0,19.0,4.0,26.0,-57.0,-18.0,24.0,-3.0,6.0,0.0
25.0,31.0,14.0,5.0,16.0,-72.0,-24.0,26.0,7.0,12.0,0.0
29.0,43.0,-1.0,4.0,15.0,-85.0,-17.0,17.0,3.0,12.0,0.0
17.0,28.0,-14.0,-1.0,12.0,-95.0,-5.0,12.0,-8.0,-1.0,0.0
13.0,17.0,-17.0,-13.0,-8.0,-109.0,-5.0,5.0,-19.0,-11.0,0.0
7.0,9.0,-17.0,-24.0,-4.0,-116.0,-23.0,-13.0,-20.0,-18.0,0.0
3.0,2.0,-18.0,-20.0,2.0,-123.0,-29.0,-9.0,-36.0,-29.0,0.0
17.0,17.0,-8.0,-10.0,10.0,-120.0,-22.0,-9.0,-51.0,-37.0,0.0
92.0,45.0,-1.0,-22.0,18.0,-128.0,-10.0,-15.0,-48.0,-47.0,0.0
161.0,85.0,-3.0,-30.0,3.0,-130.0,-8.0,-15.0,-38.0,-30.0,0.0
174.0,90.0,-14.0,-33.0,-7.0,-115.0,-4.0,-4.0,-6.0,20.0,0.0
155.0,77.0,-37.0,-35.0,4.0,-99.0,0.0,31.0,21.0,51.0,0.0
110.0,58.0,-31.0,-30.0,11.0,-99.0,-7.0,45.0,30.0,70.0,0.0
62.0,65.0,13.0,-6.0,11.0,-96.0,7.0,30.0,24.0,52.0,0.0
-4.0,52.0,53.0,15.0,31.0,-85.0,16.0,14.0,0.0,-7.0,0.0
-24.0,27.0,33.0,22.0,38.0,-76.0,7.0,34.0,17.0,15.0,0.0
-2.0,13.0,8.0,9.0,13.0,-71.0,24.0,59.0,48.0,70.0,0.0
-14.0,11.0,26.0,3.0,-15.0,-83.0,38.0,39.0,35.0,44.0,0.0
-63.0,10.0,25.0,35.0,5.0,-78.0,10.0,13.0,-23.0,-47.0,0.0
-58.0,31.0,11.0,48.0,60.0,-94.0,-31.0,-25.0,-65.0,-90.0,0.0
-20.0,30.0,0.0,12.0,50.0,-111.0,-36.0,-43.0,-72.0,-87.0,0.0
12.0,9.0,-16.0,-31.0,-14.0,-125.0,-29.0,-27.0,-33.0,-44.0,0.0
18.0,-10.0,-41.0,-75.0,-67.0,-139.0,-3.0,-1.0,11.0,8.0,0.0
-13.0,-34.0,-45.0,-85.0,-88.0,-137.0,10.0,2.0,20.0,15.0,0.0
-65.0,-53.0,-45.0,-90.0,-82.0,-125.0,16.0,12.0,18.0,-27.0,0.0
-86.0,-93.0,-70.0,-99.0,-69.0,-103.0,43.0,20.0,44.0,-27.0,0.0
-68.0,-109.0,-88.0,-86.0,-45.0,-84.0,51.0,23.0,66.0,0.0,0.0
-70.0,-125.0,-71.0,-58.0,-22.0,-72.0,46.0,26.0,70.0,15.0,0.0
-81.0,-135.0,-44.0,-9.0,5.0,-68.0,37.0,34.0,61.0,31.0,0.0
-61.0,-110.0,-21.0,7.0,16.0,-62.0,16.0,36.0,49.0,33.0,0.0
-33.0,-63.0,8.0,7.0,-6.0,-62.0,24.0,31.0,34.0,30.0,0.0
17.0,-7.0,40.0,8.0,-40.0,-81.0,16.0,13.0,32.0,29.0,0.0
70.0,27.0,67.0,7.0,-74.0,-102.0,-5.0,1.0,21.0,34.0,0.0
101.0,27.0,69.0,-21.0,-121.0,-129.0,-9.0,4.0,31.0,53.0,0.0
57.0,10.0,56.0,-26.0,-99.0,-122.0,2.0,-5.0,31.0,20.0,0.0
-5.0,-7.0,58.0,25.0,-21.0,-94.0,-14.0,-17.0,12.0,-30.0,0.0
-12.0,-11.0,46.0,105.0,63.0,-92.0,-39.0,-30.0,0.0,-48.0,0.0
-30.0,-7.0,32.0,134.0,91.0,-112.0,-56.0,-52.0,-21.0,-71.0,0.0
-54.0,-6.0,36.0,74.0,26.0,-123.0,-65.0,-54.0,-37.0,-77.0,0.0
-51.0,-31.0,34.0,53.0,-20.0,-122.0,-61.0,-58.0,-35.0,-53.0,0.0
-53.0,-62.0,16.0,48.0,-34.0,-104.0,-38.0,-47.0,-30.0,-33.0,0.0
-50.0,-45.0,13.0,33.0,-39.0,-108.0,-31.0,-32.0,-17.0,-17.0,0.0
-39.0,-15.0,29.0,21.0,-36.0,-110.0,-24.0,-34.0,-6.0,-16.0,0.0
-9.0,1.0,39.0,15.0,-24.0,-96.0,-13.0,-17.0,-6.0,-1.0,0.0
50.0,29.0,38.0,16.0,-20.0,-90.0,-15.0,-12.0,-2.0,8.0,0.0
87.0,47.0,41.0,14.0,-17.0,-90.0,-8.0,-14.0,2.0,21.0,0.0
91.0,66.0,34.0,1.0,-24.0,-92.0,0.0,-4.0,25.0,28.0,0.0
84.0,60.0,20.0,0.0,-26.0,-92.0,-1.0,4.0,32.0,24.0,0.0
38.0,38.0,22.0,18.0,-5.0,-90.0,-4.0,12.0,27.0,25.0,0.0
-6.0,34.0,15.0,43.0,18.0,-82.0,-8.0,4.0,30.0,17.0,0.0
-34.0,23.0,35.0,44.0,23.0,-69.0,14.0,-5.0,30.0,-10.0,0.0
-62.0,10.0,41.0,46.0,31.0,-63.0,37.0,4.0,9.0,-27.0,0.0
-51.0,-5.0,29.0,38.0,26.0,-72.0,27.0,12.0,8.0,-18.0,0.0
-43.0,-34.0,16.0,23.0,31.0,-79.0,10.0,28.0,4.0,-6.0,0.0
-74.0,-54.0,-1.0,21.0,28.0,-87.0,8.0,14.0,-25.0,-27.0,0.0
-74.0,-62.0,-17.0,2.0,9.0,-95.0,0.0,-1.0,-23.0,-34.0,0.0
-47.0,-68.0,-28.0,-22.0,-15.0,-110.0,-7.0,4.0,3.0,-11.0,0.0
-29.0,-40.0,-16.0,-23.0,-17.0,-102.0,-4.0,2.0,7.0,-3.0,0.0
-26.0,-6.0,0.0,-9.0,-21.0,-100.0,2.0,-9.0,2.0,-16.0,0.0
-31.0,19.0,17.0,0.0,-26.0,-102.0,10.0,-1.0,8.0,-7.0,0.0
-16.0,37.0,30.0,8.0,-26.0,-83.0,8.0,6.0,9.0,6.0,0.0
12.0,48.0,29.0,15.0,-33.0,-65.0,8.0,34.0,16.0,26.0,0.0
84.0,62.0,33.0,14.0,-31.0,-54.0,28.0,43.0,23.0,40.0,0.0
146.0,61.0,29.0,25.0,10.0,-42.0,25.0,33.0,29.0,50.0,0.0
118.0,34.0,12.0,59.0,88.0,-40.0,-10.0,4.0,3.0,29.0,0.0
91.0,17.0,0.0,46.0,76.0,-52.0,-41.0,-23.0,-24.0,9.0,0.0
79.0,23.0,-8.0,21.0,14.0,-62.0,-41.0,-20.0,-38.0,-10.0,0.0
-4.0,14.0,0.0,9.0,-12.0,-60.0,-24.0,-2.0,-32.0,-33.0,0.0
-55.0,5.0,-8.0,-6.0,-34.0,-63.0,-11.0,6.0,-20.0,-36.0,0.0
-51.0,0.0,-20.0,-24.0,-62.0,-71.0,3.0,10.0,-13.0,-25.0,0.0
-38.0,9.0,-29.0,-48.0,-74.0,-84.0,2.0,13.0,-14.0,-13.0,0.0
-21.0,8.0,-44.0,-63.0,-84.0,-90.0,-10.0,13.0,-17.0,-21.0,0.0
-26.0,0.0,-57.0,-70.0,-80.0,-99.0,-13.0,11.0,-7.0,-25.0,0.0
-34.0,-8.0,-57.0,-38.0,-22.0,-87.0,-19.0,5.0,-18.0,-37.0,0.0
-42.0,-8.0,-50.0,5.0,46.0,-76.0,-21.0,-14.0,-33.0,-51.0,0.0
-36.0,-11.0,-33.0,35.0,49.0,-87.0,-8.0,-22.0,-32.0,-39.0,0.0
-14.0,-9.0,-31.0,43.0,38.0,-85.0,3.0,-19.0,-20.0,-36.0,0.0
8.0,12.0,-27.0,22.0,13.0,-79.0,12.0,-7.0,-6.0,-19.0,0.0
28.0,29.0,-13.0,8.0,-10.0,-73.0,12.0,-6.0,5.0,2.0,0.0
48.0,26.0,-8.0,10.0,-26.0,-70.0,22.0,-4.0,9.0,14.0,0.0
65.0,31.0,-14.0,-2.0,-46.0,-64.0,31.0,4.0,11.0,20.0,0.0
66.0,41.0,-12.0,-17.0,-57.0,-68.0,18.0,13.0,14.0,29.0,0.0
50.0,20.0,-17.0,-7.0,0.0,-71.0,-3.0,10.0,4.0,25.0,0.0
20.0,-14.0,-39.0,24.0,69.0,-72.0,-10.0,6.0,-13.0,0.0,0.0
13.0,-27.0,-52.0,26.0,78.0,-65.0,2.0,9.0,-13.0,-6.0,0.0
8.0,-26.0,-56.0,0.0,54.0,-71.0,17.0,7.0,-20.0,-6.0,0.0
13.0,-29.0,-58.0,-33.0,11.0,-86.0,13.0,-1.0,-18.0,-8.0,0.0
40.0,-3.0,-33.0,-38.0,-51.0,-132.0,-6.0,-26.0,-19.0,24.0,0.0
48.0,-10.0,-15.0,-29.0,-40.0,-136.0,-15.0,-33.0,-16.0,29.0,0.0
52.0,5.0,12.0,-17.0,-30.0,-129.0,-15.0,-35.0,-34.0,25.0,0.0
54.0,12.0,19.0,1.0,-7.0,-116.0,-4.0,-24.0,-43.0,29.0,0.0
60.0,13.0,8.0,15.0,6.0,-108.0,-3.0,-11.0,-17.0,37.0,0.0
71.0,23.0,5.0,14.0,8.0,-99.0,-2.0,-7.0,1.0,54.0,0.0
56.0,18.0,22.0,10.0,6.0,-87.0,5.0,4.0,15.0,46.0,0.0
51.0,22.0,31.0,8.0,0.0,-83.0,15.0,17.0,14.0,34.0,0.0
107.0,47.0,24.0,5.0,-2.0,-74.0,27.0,18.0,1.0,23.0,0.0
215.0,97.0,5.0,-12.0,-26.0,-77.0,10.0,-1.0,-10.0,27.0,0.0
261.0,128.0,-11.0,-45.0,-51.0,-93.0,-3.0,-3.0,-13.0,40.0,0.0
222.0,109.0,-29.0,-44.0,-46.0,-98.0,2.0,1.0,2.0,54.0,0.0
102.0,64.0,-28.0,-34.0,-24.0,-89.0,32.0,26.0,23.0,61.0,0.0
-18.0,17.0,-9.0,-31.0,0.0,-93.0,41.0,29.0,33.0,61.0,0.0
-140.0,-12.0,12.0,-9.0,44.0,-111.0,8.0,0.0,0.0,-20.0,0.0
-177.0,-27.0,32.0,5.0,39.0,-126.0,11.0,-29.0,-23.0,-70.0,0.0
-115.0,-29.0,21.0,13.0,0.0,-111.0,25.0,-14.0,-23.0,-68.0,0.0
-67.0,-46.0,6.0,12.0,-21.0,-94.0,29.0,-8.0,-10.0,-41.0,0.0
-61.0,-64.0,22.0,29.0,-13.0,-86.0,37.0,-5.0,-6.0,-19.0,0.0
-54.0,-68.0,30.0,19.0,-10.0,-78.0,30.0,-1.0,16.0,23.0,0.0
-95.0,-121.0,34.0,23.0,1.0,-62.0,38.0,12.0,41.0,59.0,0.0
-130.0,-135.0,51.0,52.0,26.0,-43.0,48.0,31.0,46.0,28.0,0.0
-99.0,-98.0,65.0,60.0,56.0,-26.0,34.0,39.0,19.0,-6.0,0.0
-41.0,-64.0,56.0,57.0,64.0,-22.0,30.0,25.0,-1.0,-19.0,0.0
-11.0,-50.0,29.0,44.0,48.0,-35.0,13.0,11.0,11.0,-15.0,0.0
9.0,-39.0,-3.0,19.0,31.0,-47.0,19.0,12.0,23.0,7.0,0.0
-12.0,-36.0,0.0,13.0,29.0,-64.0,19.0,17.0,42.0,14.0,0.0
-53.0,-36.0,-1.0,-8.0,10.0,-65.0,7.0,44.0,54.0,15.0,0.0
-43.0,-28.0,-4.0,-18.0,1.0,-60.0,7.0,27.0,47.0,-3.0,0.0
-12.0,-10.0,1.0,-26.0,-3.0,-65.0,6.0,0.0,21.0,-28.0,0.0
-13.0,-25.0,-18.0,-38.0,-18.0,-77.0,5.0,-4.0,3.0,-25.0,0.0
-27.0,-43.0,-38.0,-42.0,-26.0,-75.0,23.0,6.0,0.0,-4.0,0.0
-40.0,-29.0,-39.0,-39.0,-17.0,-72.0,17.0,19.0,8.0,15.0,0.0
-21.0,15.0,-30.0,-41.0,-23.0,-72.0,11.0,11.0,15.0,43.0,0.0
-9.0,67.0,-3.0,-27.0,-22.0,-66.0,-4.0,3.0,4.0,18.0,0.0
2.0,88.0,10.0,6.0,6.0,-55.0,-3.0,3.0,9.0,8.0,0.0
38.0,109.0,28.0,20.0,16.0,-55.0,-11.0,-5.0,6.0,3.0,0.0
109.0,109.0,42.0,23.0,7.0,-59.0,-14.0,-14.0,6.0,8.0,0.0
150.0,43.0,35.0,5.0,1.0,-58.0,-19.0,-5.0,21.0,42.0,0.0
122.0,-9.0,11.0,2.0,5.0,-43.0,-17.0,0.0,38.0,55.0,0.0
86.0,-56.0,-5.0,1.0,14.0,-36.0,0.0,7.0,42.0,56.0,0.0
1.0,-148.0,-26.0,3.0,10.0,-26.0,20.0,28.0,61.0,60.0,0.0
-71.0,-170.0,-14.0,23.0,12.0,-20.0,20.0,31.0,48.0,39.0,0.0
-70.0,-105.0,13.0,31.0,12.0,-29.0,19.0,11.0,22.0,7.0,0.0
-35.0,-66.0,3.0,3.0,-3.0,-36.0,14.0,-2.0,20.0,18.0,0.0
-26.0,-64.0,-19.0,-13.0,-23.0,-40.0,12.0,0.0,25.0,48.0,0.0
-36.0,-71.0,-35.0,-9.0,-25.0,-54.0,20.0,7.0,41.0,54.0,0.0
-40.0,-56.0,-21.0,0.0,-33.0,-65.0,9.0,3.0,31.0,30.0,0.0
-36.0,-25.0,9.0,-2.0,-43.0,-74.0,12.0,-5.0,12.0,-5.0,0.0
-22.0,-12.0,13.0,-15.0,-45.0,-82.0,7.0,-15.0,1.0,-34.0,0.0
-31.0,-15.0,8.0,-30.0,-41.0,-62.0,0.0,-13.0,0.0,-41.0,0.0
-72.0,-36.0,-1.0,-15.0,-17.0,-27.0,21.0,8.0,14.0,-45.0,0.0
-89.0,-37.0,-9.0,-10.0,1.0,-3.0,38.0,30.0,27.0,-26.0,0.0
-53.0,-5.0,-3.0,10.0,39.0,-4.0,31.0,20.0,16.0,-12.0,0.0
-47.0,-14.0,-9.0,38.0,102.0,-13.0,-7.0,-5.0,-8.0,-17.0,0.0
-29.0,-23.0,-26.0,22.0,81.0,-23.0,-24.0,-20.0,-13.0,-13.0,0.0
14.0,2.0,-2.0,14.0,41.0,-29.0,0.0,-2.0,1.0,3.0,0.0
33.0,28.0,13.0,28.0,35.0,-23.0,0.0,0.0,12.0,-1.0,0.0
34.0,29.0,19.0,26.0,45.0,-13.0,5.0,1.0,9.0,-15.0,0.0
26.0,34.0,19.0,18.0,31.0,-22.0,15.0,-1.0,8.0,-20.0,0.0
15.0,38.0,19.0,12.0,14.0,-44.0,6.0,-12.0,3.0,-12.0,0.0
13.0,33.0,17.0,6.0,0.0,-55.0,15.0,-10.0,6.0,3.0,0.0
4.0,19.0,4.0,0.0,-11.0,-60.0,8.0,-3.0,-2.0,9.0,0.0
-11.0,-3.0,-7.0,-10.0,-22.0,-58.0,10.0,-10.0,-8.0,9.0,0.0
-10.0,0.0,-5.0,-16.0,-34.0,-68.0,20.0,-10.0,-10.0,12.0,0.0
8.0,6.0,0.0,-16.0,-47.0,-77.0,21.0,-14.0,-19.0,19.0,0.0
17.0,7.0,-1.0,-10.0,-44.0,-80.0,16.0,-20.0,-19.0,11.0,0.0
28.0,9.0,-13.0,-6.0,-47.0,-73.0,10.0,-23.0,-19.0,14.0,0.0
41.0,14.0,-9.0,-28.0,-47.0,-66.0,16.0,-14.0,-12.0,32.0,0.0
44.0,27.0,10.0,-50.0,-45.0,-54.0,16.0,12.0,0.0,35.0,0.0
17.0,26.0,12.0,-28.0,-10.0,-48.0,21.0,22.0,8.0,33.0,0.0
-4.0,5.0,12.0,7.0,68.0,-29.0,9.0,0.0,-6.0,16.0,0.0
0.0,0.0,14.0,22.0,99.0,-18.0,20.0,-3.0,-2.0,17.0,0.0
26.0,18.0,14.0,8.0,73.0,-20.0,18.0,10.0,13.0,22.0,0.0
26.0,28.0,6.0,2.0,60.0,-17.0,23.0,14.0,20.0,33.0,0.0
24.0,31.0,-8.0,-6.0,48.0,-27.0,16.0,26.0,14.0,37.0,0.0
48.0,35.0,-34.0,-12.0,34.0,-25.0,26.0,28.0,13.0,44.0,0.0
89.0,28.0,-40.0,-31.0,26.0,-27.0,32.0,15.0,12.0,39.0,0.0
111.0,27.0,-37.0,-38.0,8.0,-30.0,29.0,11.0,8.0,31.0,0.0
97.0,31.0,-32.0,-44.0,-5.0,-37.0,22.0,0.0,-11.0,9.0,0.0
47.0,25.0,-12.0,-42.0,-22.0,-60.0,19.0,-17.0,-21.0,-16.0,0.0
2.0,16.0,-16.0,-40.0,-43.0,-72.0,14.0,-14.0,-17.0,-7.0,0.0
-40.0,33.0,-19.0,-46.0,-60.0,-78.0,11.0,-17.0,-17.0,-8.0,0.0
-99.0,39.0,-5.0,-37.0,-70.0,-66.0,11.0,-17.0,-26.0,-6.0,0.0
-113.0,50.0,14.0,4.0,-57.0,-58.0,12.0,-20.0,-20.0,5.0,0.0
-34.0,86.0,31.0,25.0,-63.0,-68.0,-2.0,-20.0,-17.0,12.0,0.0
86.0,129.0,23.0,-6.0,-98.0,-76.0,-18.0,-23.0,-4.0,37.0,0.0
140.0,122.0,8.0,-2.0,-63.0,-56.0,-16.0,-21.0,-15.0,49.0,0.0
165.0,108.0,11.0,53.0,32.0,-46.0,-16.0,-20.0,-23.0,45.0,0.0
189.0,136.0,25.0,73.0,60.0,-41.0,-44.0,-19.0,-21.0,34.0,0.0
188.0,103.0,17.0,49.0,17.0,-31.0,-33.0,4.0,-9.0,53.0,0.0
77.0,-6.0,1.0,38.0,5.0,-39.0,-17.0,7.0,-21.0,37.0,0.0
-63.0,-104.0,8.0,42.0,28.0,-18.0,-12.0,9.0,-28.0,4.0,0.0
-133.0,-148.0,11.0,44.0,31.0,-15.0,0.0,25.0,-14.0,-14.0,0.0
-179.0,-139.0,16.0,42.0,19.0,-29.0,6.0,18.0,-12.0,-51.0,0.0
-191.0,-129.0,-3.0,44.0,10.0,-28.0,21.0,21.0,18.0,-56.0,0.0
-147.0,-104.0,-22.0,29.0,-4.0,-37.0,18.0,15.0,26.0,-41.0,0.0
-128.0,-70.0,-5.0,24.0,-17.0,-42.0,6.0,6.0,15.0,-49.0,0.0
-123.0,-75.0,-5.0,33.0,-14.0,-39.0,7.0,6.0,21.0,-61.0,0.0
-107.0,-90.0,-21.0,32.0,-8.0,-39.0,11.0,11.0,20.0,-46.0,0.0
-89.0,-86.0,-32.0,29.0,-13.0,-40.0,4.0,1.0,22.0,-25.0,0.0
-68.0,-79.0,-44.0,28.0,-14.0,-35.0,-15.0,4.0,4.0,-17.0,0.0
-51.0,-67.0,-41.0,33.0,-3.0,-32.0,-14.0,20.0,-3.0,1.0,0.0
-26.0,-56.0,-27.0,23.0,13.0,-26.0,-22.0,21.0,-5.0,8.0,0.0
1.0,-32.0,-11.0,29.0,17.0,-11.0,-4.0,24.0,2.0,8.0,0.0
29.0,0.0,-5.0,49.0,13.0,-8.0,-3.0,22.0,7.0,11.0,0.0
49.0,10.0,-7.0,48.0,6.0,-13.0,-14.0,1.0,0.0,9.0,0.0
34.0,8.0,4.0,41.0,-4.0,-15.0,-1.0,-2.0,-1.0,18.0,0.0
-12.0,0.0,3.0,29.0,0.0,-16.0,-1.0,3.0,-7.0,16.0,0.0
-55.0,-4.0,-7.0,15.0,0.0,-21.0,0.0,1.0,-3.0,1.0,0.0
-62.0,10.0,3.0,4.0,-12.0,-28.0,-19.0,-14.0,-14.0,-19.0,0.0
-68.0,3.0,-1.0,-6.0,-27.0,-34.0,-26.0,-14.0,-17.0,-33.0,0.0
-56.0,-2.0,-21.0,-31.0,-32.0,-46.0,-14.0,-13.0,-19.0,-29.0,0.0
-40.0,-7.0,-28.0,-54.0,-30.0,-55.0,-23.0,-24.0,-31.0,-26.0,0.0
-46.0,-4.0,-36.0,-66.0,-29.0,-69.0,-31.0,-38.0,-37.0,-36.0,0.0
-46.0,8.0,-21.0,-71.0,-34.0,-74.0,-15.0,-30.0,-31.0,-39.0,0.0
-46.0,10.0,-10.0,-75.0,-40.0,-74.0,-17.0,-28.0,-24.0,-27.0,0.0
-47.0,1.0,-10.0,-66.0,-36.0,-68.0,-25.0,-32.0,-22.0,-19.0,0.0
-30.0,5.0,-1.0,-54.0,-38.0,-56.0,-14.0,-25.0,-14.0,-2.0,0.0
0.0,13.0,8.0,-43.0,-31.0,-49.0,-14.0,-22.0,-11.0,20.0,0.0
37.0,22.0,11.0,-45.0,-30.0,-57.0,-25.0,-15.0,-6.0,32.0,0.0
71.0,47.0,16.0,-44.0,-30.0,-61.0,-21.0,-24.0,-11.0,43.0,0.0
98.0,66.0,11.0,-37.0,-28.0,-49.0,-23.0,-33.0,-3.0,48.0,0.0
110.0,83.0,22.0,-14.0,-28.0,-25.0,-30.0,-21.0,3.0,37.0,0.0
73.0,82.0,42.0,35.0,0.0,0.0,-14.0,-7.0,-22.0,1.0,0.0
50.0,58.0,43.0,38.0,4.0,0.0,-3.0,-7.0,-27.0,3.0,0.0
60.0,59.0,36.0,22.0,0.0,-29.0,-26.0,-10.0,-31.0,-6.0,0.0
70.0,61.0,17.0,22.0,7.0,-38.0,-54.0,-39.0,-47.0,-32.0,0.0
67.0,46.0,-5.0,14.0,-1.0,-39.0,-62.0,-53.0,-59.0,-60.0,0.0
47.0,30.0,-22.0,-2.0,-22.0,-30.0,-62.0,-63.0,-58.0,-79.0,0.0
24.0,-1.0,-34.0,-5.0,-32.0,-39.0,-46.0,-60.0,-46.0,-93.0,0.0
-30.0,-55.0,-41.0,-2.0,-40.0,-39.0,-13.0,-41.0,-22.0,-101.0,0.0
-91.0,-109.0,-68.0,-21.0,-53.0,-25.0,16.0,-9.0,17.0,-71.0,0.0
-106.0,-109.0,-77.0,-25.0,-50.0,-24.0,20.0,13.0,42.0,-47.0,0.0
-81.0,-63.0,-38.0,-7.0,-37.0,-37.0,24.0,9.0,23.0,-58.0,0.0
-90.0,-27.0,-2.0,14.0,-23.0,-32.0,-1.0,-13.0,0.0,-83.0,0.0
-126.0,-44.0,14.0,21.0,-18.0,-20.0,-27.0,-15.0,-2.0,-87.0,0.0
-119.0,-55.0,29.0,9.0,-33.0,-22.0,-31.0,0.0,18.0,-27.0,0.0
-126.0,-28.0,44.0,15.0,-12.0,-20.0,-22.0,4.0,19.0,-3.0,0.0
-107.0,-14.0,38.0,48.0,52.0,-1.0,-23.0,-13.0,11.0,-9.0,0.0
-31.0,-3.0,24.0,31.0,60.0,9.0,-13.0,-2.0,21.0,1.0,0.0
50.0,17.0,19.0,13.0,23.0,1.0,-5.0,6.0,20.0,11.0,0.0
95.0,37.0,19.0,18.0,-4.0,-7.0,-8.0,10.0,11.0,9.0,0.0
106.0,49.0,4.0,-5.0,-44.0,-19.0,-3.0,9.0,9.0,5.0,0.0
94.0,60.0,-15.0,-39.0,-70.0,-39.0,-13.0,-2.0,10.0,3.0,0.0
24.0,50.0,-40.0,-26.0,-38.0,-54.0,-31.0,-25.0,-17.0,-23.0,0.0
-99.0,-29.0,-59.0,6.0,28.0,-51.0,-54.0,-39.0,-54.0,-80.0,0.0
-174.0,-80.0,-73.0,-1.0,28.0,-44.0,-48.0,-48.0,-73.0,-114.0,0.0
-137.0,-61.0,-74.0,-31.0,-3.0,-44.0,-40.0,-50.0,-77.0,-91.0,0.0
-91.0,-32.0,-72.0,-38.0,-29.0,-62.0,-45.0,-58.0,-68.0,-57.0,0.0
-70.0,-19.0,-57.0,-39.0,-38.0,-68.0,-41.0,-49.0,-52.0,-32.0,0.0
-63.0,-26.0,-47.0,-44.0,-32.0,-43.0,-22.0,-46.0,-33.0,-12.0,0.0
-53.0,-17.0,-40.0,-35.0,-19.0,-17.0,-7.0,-27.0,-13.0,-1.0,0.0
-31.0,1.0,-37.0,-28.0,-8.0,0.0,5.0,-9.0,-9.0,0.0,0.0
6.0,-1.0,-37.0,-38.0,5.0,1.0,0.0,-14.0,-13.0,9.0,0.0
30.0,6.0,-32.0,-44.0,14.0,-10.0,-11.0,-16.0,-20.0,15.0,0.0
33.0,22.0,-18.0,-42.0,16.0,-9.0,-8.0,-1.0,-5.0,9.0,0.0
32.0,40.0,-5.0,-41.0,13.0,-11.0,-10.0,1.0,4.0,19.0,0.0
25.0,40.0,-1.0,-37.0,9.0,-10.0,0.0,1.0,10.0,21.0,0.0
13.0,36.0,-16.0,-45.0,1.0,-10.0,0.0,-3.0,-2.0,8.0,0.0
3.0,19.0,-26.0,-45.0,-10.0,-9.0,-11.0,-9.0,-8.0,-2.0,0.0
-13.0,16.0,-21.0,-26.0,-15.0,-17.0,-24.0,-9.0,-21.0,-23.0,0.0
-26.0,11.0,-4.0,-24.0,-21.0,-36.0,-31.0,-10.0,-24.0,-35.0,0.0
-25.0,7.0,3.0,-31.0,-35.0,-38.0,-39.0,-31.0,-19.0,-39.0,0.0
-21.0,14.0,15.0,-45.0,-54.0,-38.0,-44.0,-35.0,-33.0,-40.0,0.0
-8.0,7.0,29.0,-63.0,-86.0,-47.0,-41.0,-37.0,-29.0,-32.0,0.0
11.0,24.0,36.0,-64.0,-93.0,-51.0,-28.0,-36.0,-23.0,-20.0,0.0
44.0,78.0,35.0,-68.0,-97.0,-47.0,-28.0,-23.0,-14.0,-14.0,0.0
82.0,119.0,30.0,-86.0,-102.0,-46.0,-32.0,-11.0,1.0,-10.0,0.0
96.0,122.0,23.0,-49.0,-45.0,-58.0,-38.0,-18.0,-9.0,-9.0,0.0
138.0,111.0,0.0,11.0,42.0,-72.0,-65.0,-57.0,-37.0,-20.0,0.0
201.0,108.0,0.0,25.0,60.0,-73.0,-69.0,-79.0,-57.0,-21.0,0.0
238.0,54.0,-13.0,25.0,23.0,-60.0,-41.0,-45.0,-38.0,31.0,0.0
249.0,22.0,-13.0,23.0,3.0,-64.0,-28.0,-9.0,-13.0,70.0,0.0
202.0,15.0,-9.0,24.0,8.0,-81.0,-11.0,1.0,0.0,96.0,0.0
83.0,-22.0,-7.0,34.0,39.0,-116.0,-1.0,9.0,6.0,88.0,0.0
-17.0,-47.0,-6.0,23.0,50.0,-165.0,-11.0,1.0,-3.0,42.0,0.0
-86.0,-83.0,-13.0,11.0,54.0,-232.0,-18.0,-6.0,17.0,9.0,0.0
-158.0,-99.0,-11.0,1.0,66.0,-293.0,-21.0,-14.0,9.0,-54.0,0.0
-215.0,-111.0,-8.0,-13.0,31.0,-351.0,-19.0,-14.0,-12.0,-80.0,0.0
-274.0,-152.0,-5.0,-19.0,-1.0,-390.0,-8.0,-9.0,-7.0,-101.0,0.0
-297.0,-170.0,-8.0,-32.0,-17.0,-405.0,5.0,-5.0,8.0,-105.0,0.0
-240.0,-135.0,-10.0,-47.0,-37.0,-432.0,-1.0,9.0,-6.0,-113.0,0.0
-180.0,-114.0,-12.0,-36.0,-29.0,-427.0,3.0,4.0,-15.0,-90.0,0.0
-127.0,-91.0,-23.0,-37.0,-27.0,-435.0,1.0,-17.0,-22.0,-58.0,0.0
-87.0,-75.0,-31.0,-52.0,-39.0,-452.0,-14.0,-20.0,-13.0,-35.0,0.0
-59.0,-61.0,-26.0,-59.0,-35.0,-472.0,-19.0,-9.0,0.0,-13.0,0.0
-49.0,-42.0,-9.0,-43.0,-30.0,-474.0,-16.0,0.0,-10.0,-12.0,0.0
-41.0,-21.0,8.0,14.0,12.0,-465.0,-16.0,-3.0,-22.0,-18.0,0.0
-33.0,-20.0,16.0,61.0,71.0,-455.0,-23.0,-12.0,-28.0,-18.0,0.0
-30.0,-30.0,7.0,65.0,110.0,-439.0,-18.0,-9.0,-27.0,-7.0,0.0
-17.0,-31.0,3.0,48.0,71.0,-442.0,-22.0,-7.0,-24.0,0.0,0.0
-13.0,-31.0,-1.0,40.0,34.0,-454.0,-33.0,-2.0,-23.0,-4.0,0.0
-33.0,-38.0,4.0,37.0,26.0,-462.0,-42.0,-7.0,-34.0,-6.0,0.0
-46.0,-38.0,-7.0,26.0,19.0,-462.0,-33.0,-3.0,-32.0,-12.0,0.0
-49.0,-43.0,-29.0,-5.0,9.0,-461.0,-20.0,-3.0,-35.0,-14.0,0.0
-45.0,-50.0,-45.0,-26.0,-4.0,-455.0,-14.0,-14.0,-48.0,-25.0,0.0
-49.0,-67.0,-56.0,-38.0,-19.0,-469.0,-16.0,-14.0,-44.0,-29.0,0.0
-49.0,-73.0,-65.0,-52.0,-35.0,-438.0,-15.0,-12.0,-30.0,-26.0,0.0
-47.0,-62.0,-67.0,-49.0,-33.0,-437.0,-17.0,-21.0,-24.0,-25.0,0.0
-42.0,-43.0,-55.0,-43.0,-36.0,-458.0,-20.0,-22.0,-30.0,-32.0,0.0
