channel0,channel1,channel2,channel3,channel4,channel5,channel6,channel7,channel8,channel9,true_locs
-7.0,-32.0,109.0,-12.0,22.0,7.0,-17.0,15.0,13.0,-15.0,0.0
-1.0,-9.0,107.0,-19.0,6.0,18.0,-9.0,20.0,24.0,-43.0,0.0
17.0,-10.0,91.0,-33.0,-17.0,17.0,-2.0,34.0,27.0,-16.0,0.0
28.0,-23.0,125.0,-59.0,-34.0,16.0,2.0,44.0,10.0,-2.0,0.0
35.0,-18.0,111.0,-80.0,-45.0,10.0,10.0,38.0,10.0,0.0,0.0
26.0,21.0,56.0,-72.0,-36.0,2.0,33.0,38.0,8.0,-7.0,0.0
16.0,90.0,-10.0,-24.0,-15.0,-4.0,25.0,27.0,0.0,-22.0,0.0
17.0,109.0,-37.0,8.0,3.0,0.0,12.0,26.0,7.0,-11.0,0.0
2.0,69.0,-58.0,20.0,13.0,0.0,2.0,26.0,27.0,-2.0,0.0
-14.0,53.0,-70.0,49.0,0.0,-4.0,-13.0,19.0,20.0,-7.0,0.0
-23.0,60.0,-88.0,89.0,6.0,-10.0,-22.0,13.0,18.0,-18.0,0.0
-32.0,35.0,-109.0,95.0,11.0,-6.0,-17.0,18.0,2.0,-17.0,0.0
-16.0,17.0,-17.0,57.0,14.0,-4.0,-13.0,28.0,3.0,-1.0,0.0
-3.0,17.0,22.0,40.0,20.0,-1.0,-3.0,26.0,0.0,10.0,0.0
17.0,25.0,66.0,33.0,7.0,-9.0,-19.0,10.0,-20.0,10.0,0.0
23.0,38.0,104.0,13.0,-21.0,-27.0,-51.0,-6.0,-40.0,9.0,0.0
0.0,30.0,89.0,-23.0,-26.0,-4.0,-44.0,-7.0,-34.0,7.0,0.0
1.0,27.0,117.0,-80.0,-28.0,-5.0,-40.0,-9.0,-27.0,10.0,0.0
13.0,39.0,178.0,-118.0,-38.0,-30.0,-43.0,-18.0,-21.0,15.0,0.0
20.0,35.0,185.0,-114.0,-30.0,-35.0,-49.0,-31.0,-20.0,3.0,0.0
20.0,31.0,117.0,-104.0,-26.0,-23.0,-44.0,-17.0,-8.0,-2.0,0.0
13.0,10.0,43.0,-99.0,-44.0,-13.0,-24.0,1.0,12.0,15.0,0.0
18.0,1.0,-20.0,-107.0,-58.0,-16.0,-13.0,15.0,26.0,41.0,0.0
5.0,6.0,-77.0,-61.0,-35.0,-22.0,-32.0,4.0,21.0,35.0,0.0
-12.0,-13.0,-118.0,22.0,-4.0,-14.0,-34.0,-8.0,0.0,23.0,0.0
-8.0,-29.0,-141.0,143.0,17.0,1.0,-19.0,-5.0,10.0,21.0,0.0
4.0,-24.0,-130.0,159.0,39.0,6.0,-10.0,1.0,12.0,25.0,0.0
-11.0,-25.0,-74.0,86.0,35.0,1.0,-4.0,-4.0,0.0,29.0,0.0
-20.0,-8.0,-28.0,34.0,2.0,-12.0,-10.0,-3.0,-1.0,38.0,0.0
-16.0,-6.0,5.0,10.0,-21.0,-13.0,-15.0,6.0,0.0,39.0,0.0
-32.0,-15.0,39.0,-14.0,-29.0,-19.0,-8.0,4.0,-5.0,41.0,0.0
-38.0,-42.0,45.0,-35.0,-43.0,-20.0,-12.0,-1.0,0.0,42.0,0.0
-40.0,-70.0,47.0,-48.0,-38.0,-7.0,0.0,0.0,10.0,26.0,0.0
-34.0,-53.0,86.0,-34.0,-16.0,-1.0,9.0,-6.0,11.0,23.0,0.0
-29.0,-34.0,103.0,-7.0,-2.0,-4.0,13.0,6.0,11.0,23.0,0.0
-21.0,-34.0,125.0,6.0,0.0,-2.0,16.0,12.0,23.0,23.0,0.0
-20.0,-41.0,131.0,13.0,-3.0,6.0,22.0,12.0,24.0,24.0,0.0
-25.0,-35.0,94.0,11.0,-9.0,7.0,13.0,24.0,12.0,17.0,0.0
-38.0,-30.0,34.0,38.0,12.0,-6.0,1.0,6.0,0.0,12.0,0.0
-49.0,-47.0,-41.0,46.0,13.0,-2.0,1.0,-1.0,-5.0,12.0,0.0
-41.0,-50.0,-93.0,35.0,5.0,-18.0,10.0,19.0,27.0,34.0,0.0
-10.0,-30.0,-144.0,-1.0,5.0,-19.0,13.0,24.0,30.0,52.0,0.0
31.0,-9.0,-140.0,-27.0,12.0,-13.0,39.0,39.0,15.0,65.0,0.0
29.0,7.0,-120.0,-24.0,22.0,-6.0,56.0,42.0,6.0,56.0,0.0
21.0,7.0,-90.0,-6.0,11.0,0.0,41.0,29.0,-6.0,43.0,0.0
15.0,1.0,-30.0,26.0,14.0,12.0,31.0,30.0,1.0,17.0,0.0
1.0,9.0,13.0,55.0,28.0,20.0,6.0,30.0,1.0,0.0,0.0
-5.0,20.0,52.0,62.0,37.0,14.0,0.0,23.0,-10.0,-1.0,0.0
-6.0,18.0,82.0,49.0,46.0,29.0,5.0,20.0,-7.0,-2.0,0.0
-16.0,1.0,98.0,14.0,51.0,45.0,0.0,23.0,-10.0,-16.0,0.0
-30.0,-11.0,97.0,0.0,43.0,31.0,-23.0,1.0,-20.0,-33.0,0.0
-18.0,-2.0,58.0,13.0,5.0,-1.0,-36.0,-14.0,-8.0,-16.0,0.0
9.0,20.0,12.0,7.0,-39.0,-21.0,-29.0,-20.0,16.0,24.0,0.0
23.0,24.0,71.0,-2.0,-38.0,-31.0,-39.0,-28.0,6.0,90.0,0.0
32.0,24.0,82.0,-5.0,-15.0,-22.0,-20.0,-20.0,1.0,174.0,0.0
44.0,14.0,44.0,-47.0,-13.0,5.0,27.0,11.0,23.0,157.0,0.0
27.0,-9.0,-4.0,-75.0,6.0,46.0,29.0,39.0,40.0,80.0,0.0
20.0,-3.0,-48.0,-38.0,34.0,67.0,14.0,54.0,40.0,55.0,0.0
19.0,-10.0,-91.0,-18.0,51.0,57.0,12.0,43.0,41.0,52.0,0.0
22.0,-9.0,-86.0,-31.0,43.0,49.0,0.0,20.0,37.0,44.0,0.0
2.0,-15.0,-79.0,52.0,49.0,42.0,4.0,7.0,12.0,28.0,0.0
-6.0,-17.0,-67.0,92.0,61.0,52.0,-1.0,-6.0,0.0,10.0,0.0
-6.0,-8.0,-15.0,34.0,62.0,59.0,0.0,1.0,6.0,5.0,0.0
3.0,-2.0,15.0,-10.0,79.0,58.0,14.0,17.0,29.0,25.0,0.0
21.0,0.0,29.0,-56.0,94.0,60.0,36.0,39.0,54.0,42.0,0.0
19.0,15.0,67.0,-94.0,89.0,50.0,40.0,39.0,63.0,57.0,0.0
4.0,0.0,92.0,-71.0,46.0,24.0,14.0,11.0,33.0,56.0,0.0
-16.0,-5.0,65.0,-19.0,19.0,3.0,-11.0,-17.0,0.0,26.0,0.0
-35.0,-12.0,2.0,87.0,15.0,17.0,-12.0,-28.0,-13.0,-4.0,0.0
-38.0,-12.0,15.0,147.0,15.0,39.0,-2.0,-29.0,-10.0,-8.0,0.0
-2.0,5.0,17.0,102.0,3.0,36.0,0.0,-24.0,-5.0,16.0,0.0
49.0,24.0,5.0,49.0,-21.0,12.0,9.0,-2.0,24.0,60.0,0.0
79.0,32.0,-24.0,57.0,-38.0,7.0,34.0,26.0,47.0,83.0,0.0
64.0,22.0,-37.0,54.0,-36.0,15.0,72.0,66.0,53.0,75.0,0.0
46.0,25.0,-53.0,11.0,-42.0,23.0,57.0,70.0,38.0,69.0,0.0
50.0,29.0,-74.0,8.0,-44.0,25.0,27.0,41.0,31.0,60.0,0.0
52.0,18.0,-90.0,39.0,-8.0,25.0,2.0,20.0,36.0,53.0,0.0
34.0,13.0,-100.0,78.0,55.0,36.0,25.0,34.0,56.0,45.0,0.0
33.0,5.0,-128.0,71.0,75.0,50.0,58.0,47.0,62.0,35.0,0.0
21.0,-16.0,-38.0,32.0,50.0,56.0,53.0,32.0,26.0,18.0,0.0
1.0,-15.0,69.0,-10.0,37.0,53.0,29.0,33.0,23.0,18.0,0.0
11.0,-22.0,95.0,-90.0,-8.0,37.0,11.0,23.0,24.0,7.0,0.0
28.0,-4.0,124.0,-135.0,-48.0,32.0,38.0,25.0,41.0,10.0,0.0
41.0,30.0,150.0,-102.0,-43.0,31.0,43.0,27.0,72.0,15.0,0.0
36.0,75.0,170.0,-57.0,13.0,35.0,38.0,61.0,157.0,49.0,0.0
24.0,47.0,156.0,-28.0,30.0,42.0,55.0,51.0,123.0,35.0,0.0
18.0,-2.0,112.0,-14.0,13.0,46.0,59.0,34.0,61.0,0.0,0.0
24.0,-1.0,67.0,23.0,11.0,56.0,54.0,43.0,59.0,4.0,0.0
37.0,-16.0,-2.0,57.0,41.0,80.0,50.0,49.0,61.0,31.0,0.0
23.0,-29.0,-19.0,47.0,56.0,70.0,27.0,21.0,52.0,21.0,0.0
3.0,-20.0,-50.0,55.0,26.0,40.0,7.0,-21.0,20.0,0.0,0.0
-8.0,29.0,-83.0,81.0,12.0,20.0,19.0,-43.0,-10.0,-12.0,0.0
-8.0,53.0,-80.0,116.0,32.0,8.0,9.0,-51.0,-24.0,-17.0,0.0
1.0,49.0,-67.0,136.0,50.0,-9.0,0.0,-37.0,-15.0,-1.0,0.0
18.0,47.0,-45.0,101.0,14.0,-24.0,0.0,-10.0,-15.0,0.0,0.0
12.0,26.0,1.0,17.0,-34.0,-13.0,8.0,27.0,-16.0,0.0,0.0
21.0,16.0,58.0,-76.0,-74.0,-12.0,10.0,84.0,14.0,27.0,0.0
46.0,14.0,115.0,-161.0,-114.0,-33.0,-10.0,62.0,19.0,47.0,0.0
26.0,5.0,148.0,-160.0,-98.0,-24.0,-16.0,1.0,2.0,29.0,0.0
14.0,10.0,170.0,-98.0,-62.0,-1.0,-20.0,-33.0,-15.0,0.0,0.0
8.0,20.0,179.0,-58.0,-44.0,8.0,-27.0,-31.0,-21.0,-7.0,1.0
8.0,11.0,170.0,-59.0,-46.0,0.0,-33.0,-22.0,-23.0,-5.0,1.0
14.0,1.0,143.0,-44.0,-45.0,-4.0,-36.0,0.0,-14.0,-6.0,1.0
8.0,-9.0,94.0,-36.0,-22.0,24.0,-18.0,8.0,-3.0,-4.0,1.0
13.0,-10.0,37.0,-30.0,-10.0,42.0,4.0,19.0,8.0,10.0,1.0
32.0,10.0,27.0,-23.0,-17.0,38.0,7.0,21.0,19.0,21.0,1.0
26.0,15.0,13.0,11.0,11.0,22.0,-2.0,13.0,11.0,23.0,1.0
-9.0,-3.0,-53.0,64.0,68.0,19.0,-15.0,3.0,-6.0,3.0,1.0
-15.0,-3.0,-107.0,98.0,95.0,22.0,-27.0,-8.0,-18.0,-9.0,1.0
-6.0,-15.0,-69.0,115.0,98.0,21.0,-25.0,-8.0,-14.0,-6.0,1.0
-21.0,-31.0,-77.0,121.0,107.0,27.0,-9.0,5.0,-12.0,-4.0,1.0
-30.0,-32.0,-78.0,103.0,106.0,48.0,0.0,1.0,-15.0,-5.0,1.0
-29.0,-21.0,-49.0,116.0,75.0,36.0,-5.0,-3.0,-6.0,9.0,1.0
-1.0,7.0,18.0,146.0,26.0,21.0,10.0,3.0,2.0,26.0,1.0
16.0,12.0,99.0,79.0,-9.0,20.0,28.0,10.0,3.0,36.0,1.0
14.0,20.0,148.0,-7.0,-2.0,29.0,49.0,28.0,24.0,46.0,1.0
4.0,12.0,159.0,-22.0,-3.0,15.0,45.0,22.0,4.0,37.0,1.0
18.0,0.0,167.0,-90.0,-69.0,-18.0,36.0,17.0,-9.0,43.0,1.0
39.0,7.0,184.0,-143.0,-107.0,-20.0,31.0,31.0,7.0,73.0,0.0
45.0,19.0,145.0,-89.0,-51.0,11.0,25.0,34.0,12.0,74.0,0.0
47.0,10.0,31.0,-59.0,5.0,26.0,37.0,32.0,6.0,67.0,0.0
38.0,-5.0,20.0,-75.0,-4.0,33.0,52.0,38.0,9.0,60.0,0.0
48.0,0.0,30.0,-87.0,-26.0,8.0,31.0,39.0,27.0,74.0,0.0
49.0,13.0,24.0,-112.0,-30.0,-20.0,0.0,39.0,32.0,87.0,0.0
55.0,43.0,-14.0,-131.0,-28.0,-30.0,-1.0,32.0,36.0,86.0,0.0
34.0,32.0,-36.0,-128.0,-9.0,-19.0,3.0,19.0,27.0,79.0,0.0
27.0,23.0,-70.0,-120.0,10.0,-1.0,36.0,24.0,32.0,89.0,0.0
41.0,33.0,-134.0,-107.0,8.0,-2.0,50.0,25.0,51.0,84.0,0.0
55.0,54.0,-100.0,-38.0,10.0,10.0,42.0,48.0,53.0,74.0,0.0
61.0,47.0,9.0,15.0,8.0,37.0,70.0,63.0,67.0,84.0,0.0
53.0,31.0,56.0,87.0,26.0,53.0,86.0,71.0,83.0,97.0,0.0
41.0,51.0,105.0,248.0,70.0,73.0,93.0,68.0,83.0,86.0,0.0
34.0,72.0,144.0,272.0,68.0,69.0,79.0,55.0,64.0,63.0,0.0
19.0,52.0,173.0,275.0,57.0,46.0,43.0,46.0,45.0,56.0,0.0
15.0,29.0,187.0,237.0,65.0,41.0,16.0,61.0,51.0,61.0,0.0
9.0,12.0,187.0,153.0,76.0,64.0,28.0,65.0,55.0,62.0,0.0
6.0,11.0,167.0,121.0,91.0,68.0,46.0,57.0,58.0,67.0,0.0
5.0,7.0,110.0,134.0,114.0,58.0,56.0,53.0,55.0,62.0,0.0
2.0,8.0,45.0,129.0,111.0,43.0,51.0,47.0,40.0,56.0,0.0
15.0,24.0,20.0,96.0,91.0,28.0,35.0,50.0,23.0,54.0,0.0
19.0,23.0,-40.0,55.0,65.0,51.0,44.0,53.0,18.0,43.0,0.0
30.0,28.0,-105.0,52.0,33.0,51.0,59.0,37.0,7.0,40.0,0.0
39.0,21.0,-52.0,18.0,-8.0,24.0,36.0,36.0,-49.0,56.0,0.0
57.0,57.0,-73.0,21.0,-6.0,12.0,30.0,44.0,-12.0,67.0,0.0
48.0,75.0,-91.0,67.0,53.0,29.0,35.0,44.0,27.0,55.0,0.0
29.0,57.0,-25.0,70.0,81.0,38.0,48.0,47.0,23.0,41.0,0.0
34.0,47.0,3.0,45.0,80.0,47.0,50.0,42.0,13.0,45.0,0.0
54.0,62.0,46.0,6.0,56.0,49.0,44.0,34.0,10.0,54.0,0.0
77.0,83.0,71.0,-38.0,26.0,37.0,45.0,48.0,29.0,67.0,0.0
64.0,83.0,69.0,-24.0,24.0,35.0,44.0,57.0,36.0,78.0,0.0
28.0,61.0,138.0,50.0,51.0,32.0,40.0,39.0,15.0,50.0,0.0
3.0,46.0,163.0,77.0,56.0,25.0,22.0,25.0,4.0,26.0,0.0
4.0,40.0,96.0,52.0,32.0,22.0,4.0,20.0,13.0,22.0,0.0
11.0,27.0,29.0,31.0,5.0,2.0,-27.0,7.0,-1.0,32.0,0.0
12.0,26.0,-10.0,14.0,0.0,-11.0,-52.0,2.0,-18.0,33.0,0.0
14.0,31.0,-56.0,-7.0,21.0,-4.0,-40.0,0.0,-6.0,34.0,0.0
7.0,27.0,-106.0,-41.0,21.0,2.0,-21.0,18.0,9.0,45.0,0.0
6.0,19.0,-66.0,-60.0,4.0,11.0,-6.0,17.0,16.0,17.0,0.0
7.0,26.0,-52.0,-70.0,7.0,0.0,-3.0,3.0,5.0,-14.0,0.0
4.0,41.0,-62.0,-60.0,-16.0,-15.0,-22.0,-8.0,-20.0,-18.0,0.0
3.0,51.0,-58.0,-52.0,-27.0,-26.0,-22.0,-12.0,-30.0,-26.0,0.0
17.0,44.0,-51.0,-60.0,-31.0,-32.0,-45.0,-25.0,-34.0,-37.0,0.0
24.0,43.0,-12.0,-73.0,-44.0,-46.0,-56.0,-39.0,-34.0,-30.0,0.0
26.0,22.0,7.0,-106.0,-48.0,-56.0,-59.0,-38.0,-15.0,-1.0,0.0
28.0,-1.0,31.0,-117.0,-27.0,-44.0,-56.0,-29.0,4.0,82.0,0.0
50.0,0.0,102.0,-51.0,32.0,-9.0,-18.0,-1.0,27.0,187.0,0.0
66.0,19.0,172.0,-24.0,65.0,22.0,37.0,15.0,21.0,163.0,0.0
49.0,19.0,171.0,-26.0,42.0,14.0,45.0,0.0,-2.0,69.0,0.0
26.0,-2.0,151.0,-25.0,13.0,8.0,33.0,0.0,11.0,51.0,0.0
26.0,-14.0,130.0,-10.0,6.0,20.0,38.0,44.0,36.0,43.0,0.0
7.0,-50.0,75.0,17.0,10.0,32.0,56.0,62.0,23.0,16.0,0.0
-28.0,-66.0,-32.0,86.0,45.0,29.0,49.0,37.0,-8.0,-4.0,0.0
-65.0,-87.0,-86.0,148.0,60.0,24.0,27.0,1.0,-36.0,-31.0,0.0
-67.0,-83.0,-80.0,139.0,44.0,8.0,6.0,-18.0,-46.0,-42.0,0.0
-61.0,-72.0,-73.0,103.0,9.0,-23.0,-16.0,-18.0,-39.0,-49.0,0.0
-45.0,-37.0,-85.0,55.0,-28.0,-42.0,-55.0,-14.0,-32.0,-46.0,0.0
-49.0,22.0,-85.0,5.0,-35.0,-61.0,-78.0,-23.0,-21.0,-45.0,0.0
-35.0,41.0,-64.0,-34.0,-29.0,-55.0,-67.0,-1.0,0.0,-35.0,0.0
-25.0,13.0,-64.0,-47.0,-24.0,-30.0,-28.0,16.0,25.0,-6.0,0.0
0.0,3.0,-100.0,-45.0,-7.0,0.0,-15.0,28.0,39.0,14.0,0.0
28.0,13.0,-53.0,-34.0,10.0,12.0,-21.0,30.0,49.0,5.0,0.0
11.0,3.0,24.0,-39.0,1.0,-3.0,13.0,17.0,55.0,2.0,0.0
-7.0,-2.0,57.0,-38.0,-12.0,17.0,79.0,1.0,37.0,-20.0,0.0
-2.0,0.0,83.0,-28.0,-8.0,40.0,77.0,-9.0,22.0,-31.0,0.0
26.0,17.0,150.0,-48.0,-5.0,27.0,53.0,8.0,39.0,-16.0,0.0
37.0,18.0,149.0,-64.0,-9.0,28.0,32.0,33.0,52.0,9.0,0.0
31.0,16.0,97.0,-52.0,-1.0,29.0,21.0,30.0,47.0,-2.0,0.0
24.0,15.0,52.0,-22.0,6.0,17.0,18.0,20.0,31.0,-18.0,0.0
19.0,11.0,8.0,5.0,19.0,24.0,25.0,19.0,29.0,-17.0,0.0
7.0,8.0,-39.0,1.0,21.0,19.0,18.0,24.0,32.0,-22.0,0.0
7.0,6.0,-83.0,2.0,12.0,17.0,-1.0,21.0,36.0,-24.0,0.0
5.0,3.0,-112.0,17.0,19.0,19.0,0.0,9.0,19.0,-33.0,0.0
-5.0,-8.0,-116.0,36.0,19.0,33.0,15.0,3.0,0.0,-55.0,0.0
6.0,-7.0,-79.0,52.0,26.0,31.0,9.0,10.0,20.0,-58.0,0.0
-8.0,0.0,-53.0,67.0,37.0,23.0,-1.0,-4.0,-4.0,-62.0,0.0
-33.0,-17.0,-98.0,89.0,48.0,24.0,-7.0,-33.0,-34.0,-73.0,0.0
-46.0,-29.0,-139.0,101.0,74.0,20.0,-16.0,-41.0,-44.0,-87.0,0.0
-36.0,-32.0,-133.0,99.0,80.0,20.0,-17.0,-37.0,-36.0,-90.0,0.0
-40.0,-60.0,-37.0,67.0,63.0,22.0,-5.0,-13.0,-22.0,-75.0,0.0
-33.0,-71.0,71.0,25.0,36.0,23.0,16.0,2.0,-17.0,-54.0,0.0
-36.0,-64.0,91.0,-4.0,0.0,19.0,47.0,5.0,13.0,-31.0,0.0
-27.0,-69.0,100.0,4.0,-15.0,7.0,81.0,2.0,30.0,-17.0,0.0
-9.0,-59.0,101.0,-2.0,-33.0,-1.0,73.0,5.0,28.0,-15.0,0.0
5.0,-40.0,73.0,-26.0,-50.0,-14.0,52.0,4.0,23.0,6.0,0.0
-1.0,-26.0,-1.0,-53.0,-47.0,-18.0,46.0,2.0,32.0,12.0,0.0
-18.0,-9.0,-64.0,-68.0,-43.0,-12.0,43.0,11.0,31.0,-5.0,0.0
-11.0,23.0,-98.0,-92.0,-57.0,-10.0,50.0,23.0,31.0,-6.0,0.0
11.0,29.0,-119.0,-113.0,-74.0,-3.0,52.0,17.0,29.0,16.0,0.0
20.0,37.0,-97.0,-108.0,-76.0,-15.0,39.0,-14.0,22.0,2.0,0.0
12.0,50.0,-60.0,-112.0,-86.0,-32.0,11.0,-33.0,15.0,-15.0,0.0
16.0,64.0,-26.0,-115.0,-109.0,-54.0,-24.0,-38.0,12.0,-15.0,0.0
20.0,66.0,2.0,-105.0,-99.0,-45.0,-37.0,-41.0,4.0,-20.0,0.0
2.0,44.0,-58.0,-40.0,-52.0,-27.0,-39.0,-54.0,1.0,-36.0,0.0
-18.0,29.0,-109.0,120.0,-12.0,-27.0,-47.0,-58.0,-8.0,-41.0,0.0
-10.0,42.0,-82.0,146.0,-32.0,-28.0,-31.0,-37.0,11.0,-25.0,0.0
0.0,51.0,-36.0,84.0,-39.0,-13.0,1.0,-7.0,30.0,-10.0,0.0
4.0,41.0,77.0,35.0,-32.0,4.0,44.0,-8.0,16.0,-19.0,0.0
22.0,42.0,175.0,-19.0,-45.0,8.0,41.0,-8.0,8.0,-13.0,0.0
37.0,54.0,199.0,-67.0,-50.0,4.0,17.0,7.0,27.0,0.0,0.0
30.0,43.0,135.0,-84.0,-39.0,-2.0,0.0,4.0,6.0,-5.0,0.0
23.0,20.0,92.0,-78.0,-27.0,3.0,14.0,4.0,3.0,-6.0,0.0
16.0,3.0,25.0,-50.0,-11.0,6.0,25.0,9.0,12.0,2.0,0.0
12.0,4.0,-31.0,35.0,1.0,21.0,6.0,12.0,25.0,-3.0,0.0
15.0,14.0,-69.0,81.0,8.0,23.0,-20.0,-8.0,10.0,-8.0,0.0
17.0,15.0,-99.0,57.0,3.0,27.0,-20.0,-22.0,-3.0,-7.0,0.0
12.0,1.0,-112.0,36.0,4.0,33.0,-30.0,-14.0,-8.0,-7.0,0.0
-8.0,-18.0,-86.0,18.0,3.0,31.0,-27.0,-2.0,4.0,-4.0,0.0
-25.0,-34.0,-79.0,12.0,-13.0,7.0,-46.0,-6.0,-3.0,-15.0,0.0
-33.0,-41.0,-60.0,3.0,-15.0,-13.0,-45.0,-11.0,-11.0,-23.0,0.0
-39.0,-50.0,-45.0,-8.0,-24.0,-15.0,-56.0,-15.0,-38.0,-27.0,0.0
-34.0,-65.0,-52.0,-22.0,-33.0,-21.0,-62.0,-15.0,-90.0,-27.0,0.0
-38.0,-55.0,-6.0,-12.0,-25.0,-8.0,-46.0,-11.0,-25.0,-36.0,0.0
-32.0,-65.0,53.0,-10.0,-20.0,-4.0,-29.0,-10.0,-17.0,-39.0,0.0
-50.0,-70.0,75.0,0.0,-11.0,-5.0,2.0,-17.0,5.0,-29.0,0.0
-57.0,-53.0,94.0,0.0,-12.0,4.0,6.0,-16.0,3.0,-31.0,0.0
-37.0,-35.0,131.0,-8.0,-7.0,7.0,0.0,-22.0,-13.0,-47.0,0.0
-14.0,-32.0,107.0,-4.0,-12.0,0.0,4.0,-34.0,-19.0,-52.0,0.0
-3.0,-37.0,50.0,-20.0,-19.0,0.0,2.0,-24.0,-5.0,-47.0,0.0
-2.0,-43.0,-29.0,-4.0,-19.0,2.0,-11.0,-31.0,4.0,-57.0,0.0
-9.0,-38.0,-138.0,20.0,-4.0,8.0,-20.0,-36.0,-6.0,-72.0,0.0
-28.0,-48.0,-192.0,29.0,14.0,11.0,-30.0,-51.0,-23.0,-94.0,0.0
-48.0,-58.0,-181.0,25.0,53.0,17.0,-50.0,-67.0,-41.0,-111.0,0.0
-66.0,-73.0,-218.0,8.0,94.0,27.0,-63.0,-75.0,-70.0,-126.0,0.0
-104.0,-81.0,-171.0,44.0,132.0,25.0,-90.0,-84.0,-106.0,-142.0,0.0
-124.0,-71.0,-110.0,115.0,164.0,7.0,-110.0,-83.0,-119.0,-152.0,0.0
-118.0,-68.0,-92.0,133.0,166.0,-9.0,-105.0,-67.0,-110.0,-149.0,0.0
-96.0,-78.0,-41.0,95.0,95.0,-50.0,-112.0,-47.0,-98.0,-127.0,0.0
-90.0,-105.0,1.0,59.0,-4.0,-88.0,-111.0,-26.0,-65.0,-113.0,0.0
-77.0,-59.0,-2.0,108.0,-26.0,-101.0,-88.0,-19.0,-36.0,-107.0,0.0
-41.0,21.0,29.0,177.0,-34.0,-74.0,-48.0,-5.0,-21.0,-81.0,0.0
-6.0,11.0,48.0,27.0,-62.0,-11.0,5.0,20.0,-9.0,-62.0,0.0
-5.0,-40.0,61.0,-233.0,-128.0,21.0,17.0,33.0,3.0,-46.0,0.0
6.0,-40.0,83.0,-388.0,-208.0,7.0,6.0,12.0,12.0,-35.0,0.0
0.0,-19.0,57.0,-331.0,-238.0,-36.0,-28.0,-17.0,-3.0,-34.0,0.0
-30.0,-9.0,1.0,-197.0,-195.0,-62.0,-74.0,-65.0,-24.0,-48.0,0.0
-61.0,-26.0,-52.0,-91.0,-111.0,-72.0,-111.0,-88.0,-67.0,-78.0,0.0
-39.0,-34.0,-76.0,-89.0,-76.0,-72.0,-101.0,-83.0,-72.0,-83.0,0.0
7.0,1.0,-98.0,-53.0,-66.0,-60.0,-64.0,-43.0,-47.0,-64.0,0.0
37.0,41.0,-101.0,16.0,-54.0,-17.0,1.0,34.0,-3.0,-33.0,0.0
46.0,40.0,-108.0,-24.0,-43.0,13.0,31.0,104.0,23.0,-23.0,0.0
46.0,34.0,-99.0,-100.0,-74.0,2.0,18.0,113.0,28.0,-25.0,0.0
45.0,16.0,-62.0,-110.0,-79.0,-11.0,1.0,47.0,26.0,-29.0,0.0
31.0,0.0,-48.0,-104.0,-68.0,-12.0,-5.0,6.0,25.0,-36.0,0.0
16.0,-1.0,-24.0,-105.0,-74.0,-17.0,-15.0,6.0,22.0,-43.0,0.0
30.0,-9.0,11.0,-67.0,-63.0,-11.0,-17.0,9.0,22.0,-52.0,0.0
18.0,4.0,43.0,-22.0,-31.0,4.0,-21.0,5.0,13.0,-63.0,0.0
15.0,9.0,54.0,-10.0,-21.0,4.0,-16.0,7.0,-2.0,-66.0,0.0
22.0,-6.0,45.0,-17.0,-21.0,10.0,-4.0,20.0,-8.0,-68.0,0.0
3.0,-23.0,29.0,-28.0,-9.0,16.0,-2.0,17.0,-17.0,-65.0,0.0
3.0,-37.0,29.0,-22.0,11.0,9.0,-16.0,7.0,-24.0,-68.0,0.0
9.0,-34.0,3.0,-6.0,19.0,0.0,-24.0,0.0,-29.0,-65.0,0.0
4.0,-33.0,-48.0,-6.0,15.0,2.0,-20.0,-3.0,-18.0,-54.0,0.0
10.0,-31.0,-93.0,-3.0,28.0,5.0,-4.0,1.0,15.0,-46.0,0.0
13.0,-20.0,-133.0,2.0,43.0,0.0,-16.0,8.0,42.0,-30.0,0.0
-13.0,-54.0,-181.0,2.0,12.0,-1.0,-16.0,-1.0,-1.0,-47.0,0.0
-22.0,-52.0,-187.0,10.0,16.0,7.0,-10.0,2.0,7.0,-41.0,0.0
-29.0,-56.0,-185.0,13.0,14.0,17.0,-10.0,12.0,10.0,-35.0,0.0
-48.0,-67.0,-146.0,24.0,25.0,24.0,-6.0,13.0,9.0,-31.0,0.0
-42.0,-46.0,-65.0,25.0,39.0,19.0,-6.0,13.0,-1.0,-28.0,0.0
-33.0,-32.0,-25.0,20.0,47.0,21.0,3.0,7.0,-24.0,-23.0,0.0
-40.0,-21.0,-17.0,37.0,47.0,29.0,39.0,10.0,-29.0,-40.0,0.0
-40.0,-13.0,-21.0,48.0,37.0,35.0,40.0,25.0,-40.0,-62.0,0.0
-11.0,9.0,-1.0,69.0,35.0,31.0,18.0,12.0,-52.0,-56.0,0.0
1.0,17.0,80.0,91.0,49.0,13.0,16.0,-15.0,-50.0,-49.0,0.0
-1.0,17.0,95.0,86.0,60.0,19.0,28.0,-23.0,-51.0,-43.0,0.0
-5.0,28.0,90.0,56.0,59.0,9.0,18.0,-33.0,-99.0,-21.0,0.0
-12.0,22.0,80.0,36.0,63.0,0.0,14.0,-36.0,-45.0,-14.0,0.0
-28.0,24.0,66.0,18.0,66.0,9.0,27.0,-25.0,30.0,-22.0,0.0
-18.0,44.0,42.0,10.0,59.0,4.0,18.0,-25.0,25.0,-25.0,0.0
10.0,59.0,15.0,-41.0,33.0,3.0,0.0,-27.0,6.0,-21.0,0.0
27.0,55.0,-17.0,-102.0,10.0,3.0,-4.0,-17.0,1.0,-8.0,0.0
15.0,28.0,-59.0,-19.0,32.0,3.0,-1.0,3.0,-5.0,-10.0,0.0
19.0,6.0,-68.0,95.0,43.0,3.0,14.0,26.0,5.0,-3.0,0.0
65.0,34.0,-46.0,70.0,22.0,1.0,33.0,29.0,33.0,15.0,0.0
73.0,44.0,-12.0,0.0,-1.0,-8.0,24.0,25.0,32.0,25.0,0.0
56.0,32.0,38.0,-1.0,-5.0,-12.0,18.0,43.0,47.0,33.0,0.0
44.0,23.0,83.0,102.0,16.0,0.0,16.0,40.0,37.0,8.0,0.0
40.0,46.0,103.0,159.0,28.0,-3.0,-8.0,33.0,13.0,-9.0,0.0
30.0,54.0,117.0,124.0,31.0,0.0,-29.0,25.0,0.0,-17.0,0.0
0.0,40.0,147.0,102.0,67.0,37.0,-20.0,-3.0,-27.0,-48.0,0.0
-25.0,16.0,138.0,68.0,81.0,43.0,-25.0,-17.0,-31.0,-64.0,0.0
-29.0,-32.0,101.0,-6.0,58.0,26.0,-31.0,0.0,-2.0,-33.0,0.0
-11.0,-26.0,84.0,-40.0,23.0,28.0,-21.0,38.0,26.0,36.0,0.0
23.0,-10.0,48.0,-48.0,16.0,25.0,-9.0,53.0,31.0,109.0,0.0
58.0,2.0,-2.0,-38.0,21.0,28.0,22.0,45.0,32.0,224.0,0.0
73.0,29.0,3.0,-24.0,24.0,44.0,33.0,53.0,37.0,246.0,0.0
63.0,35.0,-2.0,-37.0,12.0,40.0,16.0,63.0,36.0,156.0,0.0
51.0,32.0,-49.0,-42.0,11.0,21.0,13.0,54.0,23.0,118.0,0.0
31.0,18.0,-91.0,-16.0,25.0,18.0,16.0,46.0,28.0,119.0,0.0
14.0,14.0,-158.0,3.0,31.0,24.0,21.0,35.0,25.0,115.0,0.0
12.0,8.0,-171.0,8.0,31.0,27.0,12.0,37.0,15.0,117.0,0.0
18.0,10.0,-80.0,10.0,31.0,26.0,19.0,40.0,3.0,115.0,0.0
12.0,3.0,7.0,9.0,27.0,16.0,36.0,41.0,8.0,113.0,0.0
16.0,-8.0,62.0,6.0,31.0,18.0,41.0,39.0,16.0,107.0,0.0
9.0,-22.0,79.0,10.0,33.0,41.0,49.0,39.0,30.0,93.0,0.0
-2.0,-27.0,61.0,5.0,28.0,34.0,54.0,29.0,42.0,88.0,0.0
-15.0,-22.0,142.0,4.0,25.0,29.0,54.0,33.0,59.0,92.0,0.0
-13.0,-26.0,168.0,7.0,30.0,27.0,46.0,22.0,58.0,95.0,0.0
-7.0,-27.0,132.0,5.0,34.0,31.0,55.0,27.0,43.0,93.0,0.0
3.0,0.0,60.0,9.0,29.0,26.0,53.0,34.0,44.0,79.0,0.0
5.0,70.0,-4.0,9.0,36.0,28.0,20.0,32.0,47.0,65.0,0.0
0.0,112.0,-6.0,15.0,43.0,34.0,14.0,27.0,59.0,64.0,0.0
-15.0,91.0,-15.0,29.0,55.0,32.0,24.0,43.0,87.0,67.0,0.0
-35.0,47.0,-27.0,24.0,45.0,34.0,25.0,41.0,54.0,49.0,0.0
-39.0,38.0,-64.0,18.0,49.0,30.0,26.0,35.0,31.0,51.0,0.0
-36.0,27.0,-76.0,26.0,42.0,21.0,22.0,26.0,19.0,48.0,0.0
-25.0,30.0,-75.0,25.0,29.0,11.0,10.0,13.0,9.0,35.0,0.0
-14.0,45.0,-78.0,30.0,10.0,0.0,-5.0,6.0,-2.0,19.0,0.0
-2.0,39.0,-63.0,35.0,10.0,8.0,-8.0,18.0,-10.0,27.0,0.0
-5.0,21.0,-10.0,39.0,19.0,19.0,-1.0,25.0,-12.0,24.0,0.0
-8.0,28.0,68.0,36.0,25.0,19.0,11.0,22.0,-30.0,17.0,0.0
-15.0,36.0,117.0,42.0,42.0,12.0,36.0,16.0,-35.0,9.0,0.0
-15.0,19.0,163.0,60.0,71.0,13.0,50.0,4.0,-32.0,0.0,0.0
-30.0,22.0,169.0,110.0,101.0,29.0,34.0,-23.0,-41.0,-14.0,0.0
-45.0,32.0,139.0,178.0,117.0,31.0,25.0,-32.0,-54.0,-30.0,0.0
-57.0,30.0,95.0,200.0,114.0,27.0,10.0,-43.0,-59.0,-37.0,0.0
-53.0,30.0,27.0,195.0,106.0,20.0,-19.0,-51.0,-62.0,-35.0,0.0
-58.0,3.0,-49.0,168.0,85.0,19.0,-25.0,-47.0,-65.0,-48.0,0.0
-61.0,-19.0,-90.0,100.0,32.0,7.0,-7.0,-33.0,-51.0,-48.0,0.0
-11.0,-9.0,-55.0,13.0,-7.0,2.0,34.0,-3.0,-13.0,-1.0,0.0
43.0,0.0,-55.0,-59.0,-23.0,-1.0,55.0,19.0,34.0,35.0,0.0
94.0,30.0,-53.0,-134.0,-71.0,-21.0,44.0,38.0,66.0,68.0,0.0
129.0,44.0,-64.0,-189.0,-131.0,-28.0,41.0,47.0,75.0,99.0,0.0
129.0,52.0,-23.0,-189.0,-166.0,-24.0,26.0,76.0,90.0,119.0,0.0
102.0,56.0,14.0,-144.0,-155.0,-15.0,14.0,87.0,95.0,115.0,0.0
84.0,67.0,31.0,-90.0,-117.0,0.0,19.0,81.0,73.0,96.0,0.0
82.0,63.0,71.0,-101.0,-101.0,-5.0,21.0,69.0,66.0,80.0,0.0
88.0,54.0,123.0,-140.0,-82.0,-12.0,20.0,54.0,71.0,69.0,0.0
81.0,33.0,167.0,-165.0,-40.0,-7.0,17.0,52.0,64.0,68.0,0.0
56.0,12.0,155.0,-143.0,15.0,5.0,16.0,50.0,48.0,58.0,0.0
28.0,11.0,102.0,-68.0,65.0,5.0,3.0,42.0,30.0,38.0,0.0
9.0,-10.0,65.0,35.0,115.0,31.0,11.0,43.0,24.0,24.0,0.0
4.0,-23.0,72.0,98.0,130.0,43.0,29.0,46.0,34.0,44.0,0.0
18.0,-16.0,-5.0,151.0,117.0,43.0,29.0,40.0,53.0,42.0,0.0
41.0,-5.0,-101.0,226.0,113.0,61.0,53.0,47.0,49.0,49.0,0.0
56.0,9.0,-136.0,151.0,78.0,65.0,96.0,70.0,64.0,74.0,0.0
57.0,22.0,-100.0,6.0,13.0,36.0,92.0,74.0,72.0,85.0,0.0
53.0,26.0,-81.0,-89.0,-20.0,28.0,72.0,70.0,79.0,88.0,0.0
42.0,12.0,-66.0,-108.0,-23.0,19.0,61.0,57.0,73.0,69.0,0.0
21.0,10.0,-78.0,-74.0,-8.0,7.0,39.0,39.0,53.0,64.0,0.0
13.0,21.0,-97.0,25.0,8.0,0.0,23.0,13.0,6.0,33.0,0.0
-6.0,3.0,-89.0,120.0,32.0,-1.0,27.0,8.0,-16.0,17.0,0.0
-3.0,-9.0,-18.0,51.0,14.0,0.0,39.0,22.0,6.0,49.0,0.0
17.0,14.0,-41.0,44.0,16.0,9.0,36.0,23.0,8.0,56.0,0.0
37.0,42.0,-29.0,153.0,51.0,32.0,46.0,23.0,14.0,57.0,0.0
59.0,54.0,68.0,177.0,74.0,52.0,63.0,28.0,17.0,57.0,0.0
76.0,62.0,167.0,118.0,54.0,34.0,61.0,15.0,0.0,55.0,0.0
45.0,52.0,177.0,95.0,46.0,28.0,29.0,-3.0,-6.0,40.0,0.0
11.0,35.0,124.0,76.0,36.0,29.0,11.0,-2.0,-1.0,27.0,0.0
0.0,18.0,67.0,53.0,26.0,24.0,39.0,-4.0,-4.0,13.0,0.0
13.0,12.0,32.0,43.0,19.0,16.0,42.0,-9.0,-17.0,9.0,0.0
16.0,10.0,-36.0,63.0,35.0,12.0,33.0,-9.0,-22.0,14.0,0.0
8.0,21.0,-71.0,110.0,72.0,27.0,24.0,-12.0,-31.0,17.0,0.0
0.0,30.0,-70.0,124.0,91.0,43.0,19.0,-18.0,-50.0,3.0,0.0
-15.0,20.0,-106.0,102.0,86.0,36.0,12.0,-29.0,-64.0,-6.0,0.0
-35.0,10.0,-176.0,43.0,55.0,30.0,-8.0,-36.0,-68.0,-8.0,0.0
-32.0,22.0,-135.0,-14.0,-1.0,7.0,-24.0,-39.0,-63.0,0.0,0.0
4.0,42.0,-49.0,-67.0,-15.0,3.0,-27.0,-27.0,-19.0,15.0,0.0
30.0,36.0,-16.0,-134.0,-53.0,8.0,-10.0,-16.0,0.0,37.0,0.0
53.0,44.0,10.0,-181.0,-116.0,-6.0,0.0,-2.0,13.0,60.0,0.0
71.0,37.0,61.0,-183.0,-145.0,-2.0,7.0,14.0,39.0,83.0,0.0
65.0,21.0,118.0,-148.0,-111.0,0.0,14.0,6.0,48.0,87.0,0.0
17.0,5.0,178.0,-40.0,-44.0,15.0,6.0,-9.0,28.0,71.0,0.0
-6.0,12.0,191.0,136.0,11.0,37.0,-20.0,-42.0,6.0,38.0,0.0
-11.0,17.0,176.0,194.0,37.0,49.0,-14.0,-61.0,-15.0,29.0,0.0
-20.0,0.0,130.0,112.0,56.0,77.0,8.0,-70.0,-29.0,25.0,0.0
-36.0,-20.0,58.0,97.0,47.0,73.0,1.0,-83.0,-51.0,-3.0,0.0
-45.0,-25.0,-15.0,119.0,35.0,42.0,-31.0,-71.0,-70.0,-31.0,0.0
-50.0,-18.0,-58.0,89.0,26.0,29.0,-62.0,-33.0,-62.0,-22.0,0.0
-49.0,-33.0,-68.0,-2.0,10.0,19.0,-59.0,1.0,-40.0,2.0,0.0
-41.0,-75.0,-72.0,-105.0,-19.0,20.0,-37.0,62.0,-15.0,12.0,0.0
-7.0,-86.0,-62.0,-142.0,-68.0,15.0,-12.0,119.0,8.0,42.0,0.0
17.0,-43.0,-55.0,-113.0,-99.0,0.0,-13.0,93.0,25.0,61.0,0.0
20.0,22.0,-41.0,-89.0,-101.0,2.0,-4.0,48.0,28.0,58.0,0.0
23.0,48.0,-7.0,-70.0,-77.0,24.0,30.0,41.0,19.0,57.0,0.0
26.0,42.0,5.0,-45.0,-42.0,32.0,34.0,29.0,16.0,48.0,0.0
30.0,50.0,31.0,-19.0,-5.0,26.0,1.0,19.0,1.0,32.0,0.0
23.0,68.0,92.0,14.0,17.0,10.0,-34.0,4.0,-17.0,7.0,0.0
13.0,66.0,151.0,27.0,24.0,1.0,-29.0,-6.0,-23.0,12.0,0.0
2.0,30.0,183.0,9.0,9.0,17.0,-23.0,4.0,-30.0,21.0,0.0
-6.0,0.0,167.0,-19.0,0.0,19.0,-19.0,13.0,-10.0,20.0,0.0
-2.0,0.0,155.0,-21.0,9.0,24.0,-7.0,15.0,7.0,25.0,0.0
0.0,6.0,55.0,0.0,35.0,37.0,5.0,6.0,-6.0,34.0,0.0
2.0,0.0,-85.0,9.0,46.0,27.0,5.0,0.0,-24.0,30.0,0.0
1.0,1.0,-139.0,-24.0,33.0,12.0,10.0,1.0,-11.0,38.0,0.0
-11.0,-6.0,-151.0,-37.0,38.0,19.0,6.0,14.0,-5.0,51.0,0.0
-8.0,-14.0,-99.0,-36.0,32.0,27.0,3.0,19.0,-5.0,47.0,0.0
-13.0,-28.0,-79.0,-40.0,-4.0,21.0,3.0,10.0,-3.0,35.0,0.0
-24.0,-22.0,-72.0,-21.0,-17.0,18.0,6.0,14.0,3.0,23.0,0.0
-22.0,0.0,-64.0,10.0,3.0,12.0,0.0,-10.0,-8.0,11.0,0.0
-33.0,-2.0,-45.0,22.0,21.0,11.0,-1.0,-2.0,-17.0,-1.0,0.0
-27.0,-18.0,4.0,-17.0,35.0,29.0,17.0,17.0,-4.0,12.0,0.0
-3.0,-12.0,33.0,-35.0,39.0,31.0,27.0,11.0,4.0,14.0,0.0
22.0,0.0,42.0,-43.0,28.0,22.0,19.0,10.0,-2.0,4.0,0.0
42.0,14.0,64.0,-45.0,16.0,13.0,14.0,27.0,-4.0,5.0,0.0
36.0,7.0,98.0,-48.0,17.0,8.0,12.0,27.0,15.0,5.0,0.0
-1.0,-24.0,152.0,-44.0,10.0,0.0,21.0,19.0,16.0,-4.0,0.0
-3.0,-27.0,182.0,-22.0,13.0,-2.0,6.0,-5.0,-2.0,13.0,0.0
20.0,-1.0,162.0,8.0,27.0,-14.0,-22.0,-29.0,-28.0,86.0,0.0
42.0,13.0,98.0,11.0,28.0,-11.0,-17.0,-26.0,-20.0,158.0,0.0
47.0,11.0,25.0,3.0,22.0,6.0,5.0,-7.0,5.0,109.0,0.0
41.0,11.0,-42.0,-18.0,13.0,9.0,6.0,13.0,35.0,48.0,0.0
49.0,5.0,-77.0,-32.0,6.0,6.0,3.0,12.0,33.0,50.0,0.0
56.0,8.0,-81.0,-6.0,20.0,9.0,5.0,-2.0,22.0,56.0,0.0
36.0,14.0,-58.0,19.0,34.0,16.0,6.0,-14.0,21.0,45.0,0.0
8.0,15.0,-24.0,47.0,39.0,32.0,11.0,-17.0,18.0,33.0,0.0
-2.0,37.0,-3.0,54.0,55.0,32.0,0.0,-20.0,14.0,21.0,0.0
-3.0,48.0,9.0,50.0,37.0,10.0,-13.0,-29.0,-15.0,6.0,0.0
-11.0,38.0,14.0,52.0,33.0,-4.0,-26.0,-44.0,-28.0,-7.0,0.0
-12.0,36.0,23.0,20.0,19.0,-15.0,-32.0,-44.0,-24.0,0.0,0.0
0.0,41.0,63.0,-23.0,-3.0,-12.0,-20.0,-35.0,-20.0,1.0,0.0
23.0,43.0,98.0,-52.0,-22.0,-21.0,16.0,-26.0,-12.0,1.0,0.0
27.0,39.0,126.0,-58.0,-27.0,-35.0,34.0,-23.0,-9.0,11.0,0.0
5.0,9.0,171.0,-51.0,-14.0,-36.0,28.0,-9.0,-9.0,9.0,0.0
-11.0,-13.0,179.0,-29.0,-5.0,-30.0,29.0,0.0,-22.0,5.0,0.0
-17.0,-17.0,129.0,-7.0,0.0,-23.0,43.0,-2.0,-35.0,2.0,0.0
-7.0,-8.0,65.0,5.0,11.0,-5.0,44.0,6.0,-31.0,5.0,0.0
5.0,-11.0,18.0,2.0,9.0,19.0,25.0,12.0,-22.0,16.0,0.0
5.0,-25.0,-23.0,-27.0,1.0,24.0,20.0,14.0,-24.0,18.0,0.0
5.0,-25.0,-73.0,-35.0,-8.0,14.0,10.0,17.0,-8.0,16.0,0.0
0.0,-27.0,-119.0,44.0,19.0,0.0,4.0,16.0,0.0,17.0,0.0
-2.0,-22.0,-101.0,81.0,35.0,-9.0,8.0,6.0,-5.0,24.0,0.0
11.0,-5.0,-52.0,37.0,17.0,-14.0,10.0,1.0,5.0,31.0,0.0
21.0,-2.0,-25.0,20.0,15.0,-18.0,8.0,-9.0,3.0,27.0,0.0
-3.0,-10.0,0.0,13.0,29.0,-11.0,1.0,-17.0,-5.0,22.0,0.0
-16.0,-15.0,16.0,20.0,43.0,5.0,4.0,-20.0,-8.0,12.0,0.0
-16.0,-24.0,36.0,23.0,67.0,10.0,0.0,-19.0,-12.0,15.0,0.0
-26.0,-46.0,60.0,13.0,68.0,12.0,-3.0,-34.0,-11.0,3.0,0.0
-30.0,-44.0,87.0,-6.0,48.0,11.0,-4.0,-52.0,-9.0,-20.0,0.0
-35.0,-38.0,87.0,-3.0,37.0,11.0,-22.0,-63.0,-36.0,-42.0,0.0
-60.0,-44.0,115.0,40.0,12.0,8.0,-33.0,-73.0,-65.0,-64.0,0.0
-69.0,-39.0,140.0,68.0,-46.0,-12.0,-30.0,-71.0,-55.0,-62.0,0.0
-38.0,-8.0,67.0,17.0,-85.0,-32.0,-26.0,-52.0,-38.0,-46.0,0.0
-12.0,-6.0,6.0,-28.0,-82.0,-35.0,-5.0,-43.0,-41.0,-46.0,0.0
0.0,-22.0,-29.0,-48.0,-85.0,-50.0,-9.0,-47.0,-37.0,-54.0,0.0
-4.0,-30.0,-88.0,-63.0,-81.0,-54.0,-30.0,-40.0,-37.0,-62.0,0.0
-12.0,-36.0,-130.0,-70.0,-85.0,-44.0,-44.0,-31.0,-28.0,-71.0,0.0
-15.0,-40.0,-125.0,-67.0,-88.0,-60.0,-49.0,-21.0,-14.0,-77.0,0.0
-25.0,-64.0,-140.0,-74.0,-80.0,-71.0,-43.0,-17.0,-28.0,-86.0,0.0
-39.0,-79.0,-118.0,-56.0,-73.0,-61.0,-31.0,-30.0,-42.0,-89.0,0.0
-54.0,-87.0,-76.0,-7.0,-48.0,-52.0,-11.0,-39.0,-47.0,-92.0,0.0
-67.0,-77.0,-48.0,5.0,-8.0,-36.0,29.0,-35.0,-50.0,-87.0,0.0
-41.0,-44.0,-72.0,4.0,-3.0,-27.0,26.0,-25.0,-39.0,-86.0,0.0
-27.0,-14.0,-44.0,32.0,-13.0,-35.0,-18.0,-26.0,-36.0,-80.0,0.0
-22.0,13.0,35.0,68.0,-15.0,-44.0,-29.0,-26.0,-52.0,-90.0,0.0
-11.0,35.0,53.0,50.0,-5.0,-49.0,-25.0,-37.0,-44.0,-79.0,0.0
0.0,17.0,31.0,31.0,13.0,-45.0,-37.0,-48.0,-40.0,-74.0,0.0
-8.0,-17.0,45.0,10.0,16.0,-32.0,-34.0,-55.0,-59.0,-80.0,0.0
-10.0,-43.0,76.0,-33.0,-5.0,-41.0,-29.0,-35.0,-50.0,-63.0,0.0
0.0,-22.0,37.0,-47.0,-2.0,-35.0,-37.0,-32.0,-35.0,-66.0,0.0
3.0,41.0,11.0,-15.0,13.0,-31.0,-42.0,-38.0,-36.0,-79.0,0.0
-7.0,64.0,-36.0,-24.0,17.0,-37.0,-43.0,-50.0,-53.0,-65.0,0.0
-22.0,41.0,-78.0,-12.0,14.0,-38.0,-42.0,-45.0,-61.0,-51.0,0.0
-13.0,30.0,-95.0,4.0,2.0,-50.0,-42.0,-50.0,-58.0,-51.0,0.0
-6.0,36.0,-103.0,-10.0,-18.0,-62.0,-33.0,-56.0,-36.0,-42.0,0.0
-4.0,25.0,-95.0,-27.0,-40.0,-60.0,-15.0,-48.0,-16.0,-36.0,0.0
13.0,17.0,-46.0,-47.0,-63.0,-51.0,-24.0,-32.0,-8.0,-18.0,0.0
17.0,14.0,26.0,-72.0,-63.0,-39.0,-12.0,-20.0,-1.0,-4.0,0.0
-4.0,4.0,20.0,-80.0,-43.0,-27.0,19.0,-27.0,-3.0,-9.0,0.0
-14.0,0.0,-4.0,-44.0,-21.0,-24.0,30.0,-38.0,-14.0,-22.0,0.0
-4.0,30.0,54.0,9.0,2.0,-25.0,19.0,-46.0,-16.0,-40.0,0.0
-6.0,53.0,113.0,50.0,33.0,-10.0,15.0,-44.0,2.0,-28.0,0.0
-23.0,34.0,121.0,42.0,38.0,-3.0,15.0,-55.0,-6.0,-30.0,0.0
-33.0,0.0,78.0,32.0,21.0,-11.0,7.0,-51.0,-29.0,-33.0,0.0
-35.0,-19.0,26.0,47.0,24.0,-12.0,1.0,-22.0,-16.0,-14.0,0.0
-9.0,-28.0,42.0,27.0,20.0,-2.0,-2.0,-1.0,11.0,10.0,0.0
-2.0,-15.0,-16.0,-69.0,-20.0,-8.0,-7.0,0.0,2.0,12.0,0.0
-17.0,-25.0,-14.0,-149.0,-48.0,-2.0,-5.0,0.0,-10.0,7.0,0.0
-45.0,-66.0,-52.0,-152.0,-48.0,15.0,-14.0,-3.0,-7.0,-3.0,0.0
-62.0,-75.0,-149.0,-24.0,-33.0,15.0,-14.0,2.0,1.0,-5.0,0.0
-63.0,-67.0,-170.0,101.0,-11.0,12.0,-4.0,14.0,-11.0,-6.0,0.0
-47.0,-57.0,-120.0,34.0,-32.0,-3.0,-13.0,9.0,-85.0,-7.0,0.0
-20.0,-16.0,-105.0,-43.0,-39.0,-19.0,2.0,15.0,-28.0,5.0,0.0
-20.0,-17.0,-94.0,-54.0,-4.0,-13.0,48.0,20.0,2.0,1.0,0.0
-16.0,-41.0,-34.0,-54.0,7.0,-7.0,72.0,12.0,-4.0,-2.0,0.0
-21.0,-52.0,30.0,-42.0,17.0,-19.0,53.0,-12.0,-18.0,-21.0,0.0
-10.0,-43.0,63.0,-25.0,24.0,-20.0,45.0,-33.0,-27.0,-37.0,0.0
12.0,-38.0,100.0,-18.0,39.0,-10.0,38.0,-37.0,-26.0,-22.0,0.0
11.0,-42.0,127.0,-2.0,30.0,-21.0,6.0,-38.0,-28.0,-15.0,0.0
16.0,-19.0,137.0,-10.0,0.0,-38.0,-8.0,-33.0,-14.0,-16.0,0.0
16.0,-2.0,118.0,-33.0,-34.0,-48.0,-19.0,-21.0,-32.0,-4.0,0.0
11.0,11.0,77.0,-68.0,-51.0,-58.0,-38.0,-18.0,-83.0,-13.0,0.0
17.0,36.0,48.0,-76.0,-73.0,-60.0,-26.0,-18.0,-14.0,-18.0,0.0
22.0,49.0,-18.0,-71.0,-101.0,-61.0,-14.0,-21.0,-2.0,-17.0,0.0
21.0,37.0,-102.0,-37.0,-59.0,-46.0,27.0,-9.0,-9.0,-25.0,0.0
9.0,32.0,-96.0,-15.0,-7.0,-28.0,33.0,0.0,-17.0,-17.0,0.0
-3.0,8.0,-107.0,0.0,-11.0,-24.0,22.0,-6.0,-43.0,-18.0,0.0
-12.0,-2.0,-165.0,12.0,-8.0,-18.0,40.0,-8.0,0.0,-26.0,0.0
-11.0,-13.0,-189.0,3.0,3.0,-3.0,37.0,-3.0,-10.0,-24.0,0.0
-14.0,-21.0,-174.0,-3.0,-2.0,-1.0,35.0,0.0,-69.0,-17.0,0.0
-4.0,-3.0,-139.0,-10.0,-13.0,-10.0,35.0,3.0,-79.0,-10.0,0.0
-13.0,6.0,-103.0,6.0,-13.0,-4.0,34.0,0.0,-2.0,-12.0,0.0
-29.0,12.0,-10.0,29.0,-2.0,-5.0,-1.0,-20.0,-5.0,-26.0,0.0
-29.0,13.0,-4.0,42.0,6.0,-3.0,-2.0,-22.0,-7.0,-30.0,0.0
-32.0,-15.0,29.0,44.0,18.0,8.0,20.0,-8.0,7.0,-21.0,0.0
-27.0,-27.0,110.0,38.0,26.0,14.0,-18.0,-8.0,18.0,-20.0,0.0
-15.0,-9.0,132.0,12.0,5.0,18.0,-41.0,-2.0,5.0,-2.0,0.0
-8.0,-8.0,111.0,8.0,9.0,12.0,-19.0,12.0,6.0,3.0,0.0
-12.0,-20.0,73.0,35.0,25.0,12.0,18.0,7.0,0.0,7.0,0.0
-2.0,-23.0,10.0,66.0,43.0,9.0,16.0,-1.0,0.0,6.0,0.0
3.0,2.0,-43.0,80.0,51.0,4.0,7.0,-13.0,0.0,-6.0,0.0
-2.0,26.0,-74.0,83.0,48.0,-5.0,5.0,-5.0,11.0,-3.0,0.0
0.0,37.0,-120.0,59.0,32.0,-10.0,7.0,-2.0,13.0,8.0,0.0
11.0,34.0,-140.0,-8.0,-4.0,-22.0,2.0,-12.0,4.0,22.0,0.0
24.0,27.0,-158.0,-97.0,-47.0,-39.0,-15.0,-14.0,7.0,32.0,0.0
15.0,24.0,-192.0,-148.0,-71.0,-32.0,-26.0,-14.0,12.0,32.0,0.0
0.0,16.0,-161.0,-138.0,-54.0,-3.0,-22.0,4.0,14.0,41.0,0.0
6.0,23.0,-94.0,-97.0,-28.0,16.0,-6.0,22.0,33.0,52.0,0.0
33.0,29.0,-38.0,-71.0,1.0,22.0,10.0,31.0,46.0,54.0,0.0
66.0,27.0,35.0,-44.0,34.0,43.0,43.0,32.0,52.0,69.0,0.0
71.0,40.0,81.0,11.0,67.0,84.0,72.0,44.0,86.0,76.0,0.0
47.0,43.0,87.0,14.0,72.0,82.0,72.0,48.0,91.0,54.0,0.0
32.0,35.0,104.0,-8.0,29.0,65.0,76.0,43.0,80.0,28.0,0.0
30.0,31.0,124.0,-39.0,-27.0,43.0,70.0,46.0,69.0,43.0,0.0
44.0,27.0,108.0,-52.0,-55.0,25.0,37.0,47.0,66.0,58.0,0.0
27.0,5.0,41.0,-4.0,-43.0,9.0,-14.0,29.0,-8.0,51.0,0.0
-18.0,-12.0,-22.0,114.0,-2.0,6.0,-45.0,10.0,-61.0,10.0,0.0
-24.0,31.0,-52.0,240.0,29.0,3.0,-28.0,-11.0,-18.0,-12.0,0.0
-26.0,71.0,-71.0,223.0,33.0,-5.0,-2.0,-30.0,-33.0,-33.0,0.0
-33.0,42.0,-81.0,145.0,34.0,2.0,10.0,-17.0,-38.0,-51.0,0.0
-28.0,10.0,-104.0,66.0,27.0,23.0,16.0,0.0,-17.0,-34.0,0.0
-3.0,27.0,-105.0,5.0,19.0,31.0,32.0,14.0,8.0,-8.0,0.0
39.0,62.0,-110.0,-18.0,7.0,28.0,36.0,32.0,17.0,11.0,0.0
42.0,55.0,-71.0,-53.0,-8.0,19.0,16.0,24.0,-54.0,19.0,0.0
45.0,73.0,-58.0,-40.0,-10.0,18.0,31.0,9.0,-17.0,10.0,0.0
57.0,95.0,0.0,-14.0,-3.0,24.0,46.0,7.0,12.0,7.0,0.0
52.0,88.0,89.0,0.0,1.0,22.0,33.0,-1.0,15.0,-10.0,0.0
52.0,83.0,137.0,-4.0,5.0,23.0,14.0,3.0,32.0,-31.0,0.0
32.0,62.0,154.0,1.0,17.0,29.0,-12.0,14.0,27.0,-56.0,0.0
22.0,47.0,152.0,-13.0,3.0,10.0,-21.0,-2.0,7.0,-56.0,0.0
20.0,45.0,122.0,-77.0,-27.0,-5.0,-28.0,-8.0,12.0,-27.0,0.0
4.0,17.0,81.0,-62.0,-33.0,-8.0,-32.0,4.0,6.0,12.0,0.0
1.0,-13.0,13.0,36.0,-22.0,-3.0,-43.0,-1.0,-9.0,93.0,0.0
15.0,0.0,-21.0,81.0,0.0,6.0,-25.0,-9.0,2.0,157.0,0.0
12.0,16.0,-26.0,104.0,49.0,19.0,-14.0,-21.0,11.0,81.0,0.0
-7.0,13.0,-26.0,132.0,123.0,21.0,-18.0,-17.0,5.0,4.0,0.0
-20.0,27.0,-45.0,179.0,168.0,20.0,-12.0,-22.0,12.0,-12.0,0.0
-34.0,36.0,-85.0,252.0,164.0,30.0,-6.0,-36.0,10.0,-36.0,0.0
-42.0,37.0,-138.0,292.0,125.0,29.0,-21.0,-45.0,0.0,-33.0,0.0
-51.0,23.0,-121.0,194.0,70.0,24.0,-20.0,-35.0,-4.0,-28.0,0.0
-66.0,17.0,-56.0,66.0,21.0,13.0,-4.0,0.0,0.0,-26.0,0.0
-63.0,20.0,-19.0,-32.0,-41.0,12.0,10.0,26.0,7.0,-18.0,0.0
-44.0,15.0,11.0,-145.0,-122.0,15.0,10.0,9.0,-5.0,-6.0,0.0
-21.0,11.0,76.0,-172.0,-118.0,20.0,5.0,1.0,10.0,9.0,0.0
-24.0,13.0,133.0,-59.0,-42.0,33.0,6.0,-2.0,19.0,-2.0,0.0
-38.0,17.0,158.0,22.0,5.0,38.0,0.0,-18.0,4.0,-16.0,0.0
-52.0,8.0,138.0,56.0,23.0,39.0,-2.0,-31.0,-20.0,-17.0,0.0
-59.0,-7.0,85.0,52.0,1.0,25.0,-12.0,-29.0,-46.0,-21.0,0.0
-46.0,12.0,22.0,14.0,-41.0,-13.0,-25.0,-48.0,-60.0,-29.0,0.0
-39.0,23.0,-31.0,-19.0,-63.0,-34.0,-38.0,-42.0,-48.0,-20.0,0.0
-20.0,11.0,-59.0,-84.0,-63.0,-43.0,-29.0,-18.0,-3.0,4.0,0.0
14.0,6.0,-39.0,-153.0,-63.0,-27.0,5.0,-1.0,30.0,32.0,0.0
26.0,19.0,-40.0,-162.0,-61.0,5.0,20.0,16.0,36.0,47.0,0.0
34.0,30.0,-71.0,-143.0,-73.0,25.0,21.0,19.0,27.0,49.0,0.0
45.0,54.0,-122.0,-149.0,-94.0,11.0,11.0,15.0,26.0,60.0,0.0
54.0,70.0,-98.0,-139.0,-84.0,8.0,16.0,2.0,32.0,64.0,0.0
40.0,55.0,-78.0,-111.0,-40.0,14.0,15.0,-19.0,8.0,45.0,0.0
14.0,38.0,-124.0,-59.0,-13.0,15.0,11.0,-32.0,0.0,18.0,0.0
-1.0,28.0,-94.0,-34.0,-19.0,1.0,-5.0,-26.0,3.0,16.0,0.0
4.0,27.0,-7.0,-39.0,-32.0,-7.0,18.0,-9.0,19.0,21.0,0.0
4.0,21.0,80.0,-50.0,-30.0,0.0,39.0,10.0,32.0,23.0,0.0
-20.0,8.0,122.0,-7.0,-2.0,9.0,22.0,-2.0,12.0,0.0,0.0
-27.0,-5.0,137.0,44.0,14.0,16.0,4.0,-5.0,-4.0,-21.0,0.0
-33.0,-15.0,154.0,30.0,17.0,21.0,-9.0,-13.0,-17.0,-22.0,0.0
-38.0,-27.0,130.0,11.0,25.0,34.0,-22.0,-12.0,-18.0,-17.0,0.0
-28.0,-29.0,75.0,-14.0,27.0,29.0,-5.0,8.0,3.0,0.0,0.0
-29.0,-46.0,8.0,-45.0,23.0,9.0,-20.0,-1.0,-5.0,7.0,0.0
-26.0,-49.0,-35.0,-19.0,20.0,4.0,-26.0,-18.0,-15.0,10.0,0.0
-21.0,-41.0,-61.0,15.0,-4.0,-6.0,-21.0,-26.0,-7.0,2.0,0.0
-20.0,-37.0,-81.0,32.0,-18.0,-19.0,-6.0,-28.0,2.0,-11.0,0.0
-30.0,-33.0,-112.0,30.0,-21.0,-8.0,-2.0,-15.0,15.0,-6.0,0.0
-22.0,-26.0,-122.0,33.0,-22.0,19.0,-18.0,-12.0,21.0,5.0,0.0
9.0,-1.0,-98.0,34.0,-1.0,39.0,6.0,10.0,25.0,19.0,0.0
13.0,11.0,-62.0,-7.0,22.0,58.0,29.0,20.0,30.0,38.0,0.0
-22.0,-25.0,-45.0,-48.0,35.0,53.0,34.0,4.0,17.0,20.0,0.0
-36.0,-42.0,-39.0,-36.0,31.0,49.0,21.0,-3.0,12.0,2.0,0.0
-5.0,-20.0,-39.0,-23.0,9.0,43.0,15.0,-24.0,17.0,-14.0,0.0
-13.0,0.0,6.0,-20.0,10.0,38.0,14.0,-23.0,15.0,-24.0,0.0
-30.0,9.0,71.0,-48.0,25.0,16.0,23.0,-20.0,3.0,-24.0,0.0
0.0,8.0,115.0,-78.0,30.0,0.0,9.0,-30.0,-10.0,-20.0,0.0
34.0,11.0,143.0,-43.0,41.0,4.0,-19.0,-42.0,-35.0,-15.0,0.0
29.0,4.0,136.0,24.0,48.0,14.0,-21.0,-36.0,-36.0,-15.0,0.0
24.0,3.0,65.0,17.0,-2.0,12.0,-21.0,-21.0,-30.0,-15.0,0.0
35.0,10.0,6.0,-34.0,-62.0,0.0,-9.0,5.0,-2.0,17.0,0.0
37.0,-4.0,-47.0,-35.0,-68.0,-18.0,-7.0,15.0,15.0,44.0,0.0
15.0,-37.0,-89.0,87.0,-9.0,1.0,-4.0,17.0,10.0,34.0,0.0
0.0,-62.0,-92.0,179.0,46.0,43.0,29.0,33.0,22.0,26.0,0.0
-8.0,-62.0,-76.0,131.0,47.0,19.0,22.0,14.0,2.0,14.0,0.0
-13.0,-51.0,-86.0,75.0,28.0,-3.0,-5.0,-18.0,-83.0,-5.0,0.0
1.0,-31.0,-90.0,18.0,10.0,-8.0,-15.0,-24.0,-105.0,-4.0,0.0
34.0,62.0,-43.0,-5.0,9.0,-10.0,1.0,-8.0,-9.0,16.0,0.0
43.0,87.0,-21.0,8.0,26.0,-8.0,11.0,-3.0,2.0,19.0,0.0
30.0,59.0,-8.0,8.0,30.0,2.0,21.0,4.0,13.0,22.0,0.0
32.0,24.0,19.0,-23.0,-5.0,6.0,23.0,24.0,21.0,36.0,0.0
40.0,30.0,50.0,-26.0,-35.0,12.0,15.0,30.0,21.0,48.0,0.0
51.0,37.0,81.0,-24.0,-46.0,13.0,-1.0,17.0,10.0,42.0,0.0
38.0,17.0,152.0,-7.0,-27.0,9.0,-9.0,8.0,0.0,31.0,0.0
24.0,18.0,166.0,-6.0,-27.0,18.0,-13.0,11.0,4.0,16.0,0.0
23.0,37.0,119.0,18.0,-24.0,6.0,-12.0,3.0,-5.0,-3.0,0.0
19.0,34.0,58.0,26.0,-2.0,8.0,-8.0,2.0,-24.0,6.0,0.0
24.0,5.0,0.0,35.0,28.0,15.0,-14.0,-13.0,-37.0,4.0,0.0
27.0,-8.0,-54.0,22.0,37.0,0.0,-33.0,-22.0,-43.0,-8.0,0.0
34.0,-9.0,-95.0,5.0,28.0,-29.0,-34.0,-24.0,-44.0,-12.0,0.0
27.0,-13.0,-108.0,-1.0,6.0,-32.0,-1.0,-9.0,-29.0,-3.0,0.0
14.0,-2.0,-89.0,4.0,-1.0,-11.0,9.0,-11.0,-31.0,6.0,0.0
-2.0,4.0,-84.0,16.0,5.0,4.0,18.0,-11.0,-25.0,-6.0,0.0
-6.0,0.0,-68.0,19.0,7.0,10.0,27.0,-5.0,-19.0,-2.0,0.0
-15.0,-33.0,-47.0,48.0,23.0,17.0,23.0,1.0,-26.0,2.0,0.0
-15.0,-45.0,-28.0,114.0,49.0,16.0,0.0,4.0,-32.0,0.0,0.0
0.0,-19.0,2.0,103.0,43.0,12.0,-9.0,0.0,-21.0,11.0,0.0
15.0,22.0,37.0,63.0,46.0,-2.0,-16.0,-17.0,-28.0,16.0,0.0
14.0,15.0,74.0,44.0,47.0,-33.0,-27.0,-28.0,-81.0,6.0,0.0
4.0,-9.0,157.0,43.0,54.0,-33.0,-15.0,-28.0,-89.0,-7.0,0.0
7.0,9.0,183.0,54.0,55.0,-8.0,20.0,-17.0,-33.0,-7.0,0.0
9.0,3.0,144.0,26.0,73.0,20.0,43.0,11.0,48.0,6.0,0.0
5.0,-26.0,73.0,-19.0,67.0,31.0,41.0,20.0,66.0,21.0,0.0
-4.0,-41.0,0.0,63.0,30.0,18.0,38.0,18.0,65.0,8.0,0.0
-33.0,-28.0,-73.0,132.0,-2.0,3.0,43.0,26.0,51.0,7.0,0.0
-2.0,-15.0,-123.0,43.0,-39.0,1.0,34.0,42.0,44.0,12.0,0.0
33.0,-2.0,-138.0,-30.0,-42.0,2.0,3.0,44.0,37.0,30.0,0.0
41.0,26.0,-139.0,-84.0,-58.0,1.0,-13.0,43.0,23.0,43.0,0.0
30.0,36.0,-101.0,-133.0,-93.0,-2.0,-17.0,45.0,16.0,46.0,0.0
15.0,11.0,-77.0,-163.0,-85.0,-5.0,-18.0,30.0,-40.0,37.0,0.0
-2.0,13.0,-68.0,-75.0,-26.0,1.0,-2.0,32.0,-4.0,6.0,0.0
-3.0,29.0,-40.0,-22.0,-11.0,-4.0,-5.0,35.0,24.0,-6.0,0.0
-6.0,15.0,0.0,-15.0,-5.0,-3.0,-12.0,21.0,17.0,-6.0,0.0
-27.0,-20.0,14.0,0.0,10.0,-2.0,0.0,13.0,15.0,-28.0,0.0
-23.0,-14.0,39.0,0.0,38.0,11.0,4.0,7.0,0.0,-40.0,0.0
-11.0,14.0,69.0,-10.0,46.0,19.0,3.0,0.0,2.0,-28.0,0.0
-17.0,7.0,115.0,-27.0,32.0,14.0,3.0,10.0,9.0,-28.0,0.0
-21.0,-3.0,152.0,-62.0,0.0,9.0,0.0,13.0,7.0,-34.0,0.0
-7.0,6.0,142.0,-108.0,-59.0,3.0,12.0,23.0,0.0,-13.0,0.0
7.0,13.0,87.0,-120.0,-73.0,-5.0,21.0,21.0,9.0,-1.0,0.0
-3.0,3.0,-37.0,-75.0,-62.0,-9.0,27.0,19.0,23.0,-7.0,0.0
-37.0,-28.0,-145.0,68.0,-3.0,-3.0,8.0,3.0,-11.0,-40.0,0.0
-46.0,-39.0,-150.0,156.0,45.0,-1.0,-36.0,-15.0,-56.0,-52.0,0.0
-13.0,-9.0,-98.0,107.0,38.0,-1.0,-43.0,-29.0,-59.0,-34.0,0.0
3.0,-4.0,-69.0,54.0,35.0,-7.0,-45.0,-28.0,-56.0,-20.0,0.0
-22.0,-12.0,-29.0,59.0,67.0,0.0,-45.0,-11.0,-31.0,-27.0,0.0
-24.0,8.0,-18.0,114.0,89.0,-1.0,-46.0,-26.0,-49.0,-36.0,0.0
0.0,4.0,-52.0,93.0,40.0,3.0,-66.0,-34.0,-150.0,-46.0,0.0
4.0,29.0,-24.0,32.0,-6.0,-6.0,-54.0,-20.0,-68.0,-46.0,0.0
10.0,49.0,54.0,-2.0,-23.0,-10.0,-28.0,-33.0,-49.0,-41.0,0.0
16.0,28.0,36.0,-11.0,-31.0,-5.0,-25.0,-41.0,-66.0,-38.0,0.0
14.0,3.0,21.0,-31.0,-15.0,14.0,4.0,-27.0,-40.0,-33.0,0.0
19.0,-12.0,105.0,-58.0,13.0,36.0,9.0,0.0,-1.0,-14.0,0.0
37.0,-39.0,149.0,-55.0,22.0,38.0,10.0,-4.0,-11.0,-6.0,0.0
42.0,-34.0,160.0,28.0,17.0,33.0,-1.0,-26.0,-6.0,-15.0,0.0
15.0,-30.0,121.0,130.0,14.0,13.0,-5.0,-46.0,-8.0,-26.0,0.0
5.0,-18.0,65.0,120.0,26.0,-1.0,-15.0,-56.0,-17.0,-31.0,0.0
-18.0,-21.0,8.0,76.0,21.0,2.0,0.0,-48.0,-24.0,-44.0,0.0
-31.0,-42.0,-43.0,31.0,7.0,3.0,14.0,-23.0,-19.0,-53.0,0.0
-31.0,-61.0,-75.0,-38.0,3.0,-6.0,18.0,-9.0,0.0,-45.0,0.0
-10.0,-72.0,-83.0,-87.0,-8.0,-8.0,25.0,1.0,4.0,-14.0,0.0
8.0,-49.0,-78.0,-54.0,7.0,8.0,43.0,2.0,16.0,-3.0,0.0
11.0,-26.0,-50.0,-53.0,26.0,13.0,45.0,3.0,11.0,-25.0,0.0
3.0,-10.0,-18.0,-95.0,-6.0,-1.0,27.0,-12.0,-15.0,-53.0,0.0
9.0,15.0,30.0,-114.0,-48.0,-24.0,15.0,-30.0,-30.0,-65.0,0.0
18.0,36.0,55.0,-117.0,-78.0,-36.0,0.0,-44.0,-28.0,-52.0,0.0
6.0,19.0,62.0,-142.0,-65.0,-28.0,-1.0,-45.0,-28.0,-45.0,0.0
4.0,1.0,87.0,-166.0,-48.0,-24.0,11.0,-27.0,-24.0,-34.0,0.0
27.0,-10.0,123.0,-131.0,-34.0,-28.0,24.0,-15.0,-16.0,-18.0,0.0
49.0,-6.0,137.0,0.0,13.0,-5.0,35.0,-6.0,-12.0,-13.0,0.0
47.0,7.0,117.0,152.0,50.0,16.0,37.0,3.0,-31.0,-10.0,0.0
34.0,13.0,127.0,171.0,59.0,22.0,31.0,12.0,-33.0,-6.0,0.0
19.0,24.0,83.0,147.0,74.0,15.0,10.0,-1.0,-45.0,-19.0,0.0
28.0,24.0,21.0,193.0,95.0,11.0,3.0,-8.0,-45.0,-17.0,0.0
23.0,-3.0,-69.0,163.0,98.0,24.0,8.0,-4.0,-43.0,5.0,0.0
16.0,-12.0,-128.0,41.0,43.0,24.0,3.0,13.0,-35.0,12.0,0.0
35.0,-2.0,-128.0,-116.0,-40.0,16.0,32.0,30.0,4.0,34.0,0.0
48.0,4.0,-157.0,-212.0,-97.0,-6.0,49.0,39.0,28.0,59.0,0.0
37.0,11.0,-117.0,-115.0,-49.0,10.0,49.0,35.0,5.0,36.0,0.0
0.0,-12.0,-64.0,-88.0,-23.0,32.0,24.0,24.0,4.0,14.0,0.0
-20.0,-41.0,-38.0,-64.0,-12.0,33.0,-14.0,1.0,-55.0,3.0,0.0
-29.0,-81.0,-38.0,-36.0,-5.0,12.0,-67.0,-45.0,-246.0,-5.0,0.0
-40.0,-67.0,-3.0,94.0,37.0,17.0,-54.0,-49.0,-130.0,-4.0,0.0
-43.0,-75.0,26.0,101.0,29.0,9.0,-47.0,-58.0,-109.0,-4.0,0.0
-27.0,-44.0,58.0,2.0,6.0,-4.0,-31.0,-50.0,-52.0,-2.0,0.0
-22.0,6.0,72.0,-62.0,-8.0,6.0,-29.0,-46.0,-24.0,-3.0,0.0
-14.0,60.0,62.0,-92.0,-3.0,23.0,-5.0,-37.0,-17.0,1.0,0.0
-6.0,68.0,78.0,-108.0,-1.0,20.0,22.0,-8.0,5.0,14.0,0.0
-11.0,18.0,64.0,-124.0,-15.0,13.0,32.0,28.0,-35.0,23.0,0.0
-50.0,-24.0,-2.0,-12.0,5.0,16.0,39.0,62.0,-40.0,-7.0,0.0
-65.0,-32.0,-59.0,203.0,49.0,19.0,31.0,84.0,25.0,-18.0,0.0
-31.0,-23.0,-83.0,216.0,52.0,13.0,12.0,56.0,35.0,4.0,0.0
-7.0,-9.0,-128.0,138.0,31.0,0.0,7.0,35.0,34.0,24.0,0.0
-6.0,3.0,-151.0,103.0,41.0,3.0,8.0,20.0,22.0,30.0,0.0
-6.0,15.0,-148.0,85.0,51.0,16.0,11.0,8.0,18.0,35.0,0.0
-8.0,2.0,-125.0,47.0,45.0,14.0,15.0,24.0,30.0,46.0,0.0
-5.0,-19.0,-54.0,10.0,31.0,28.0,35.0,41.0,56.0,57.0,0.0
0.0,-10.0,12.0,-12.0,-2.0,21.0,27.0,39.0,64.0,68.0,0.0
22.0,24.0,25.0,-8.0,-12.0,12.0,32.0,43.0,70.0,78.0,0.0
37.0,60.0,-3.0,6.0,-11.0,6.0,27.0,52.0,83.0,90.0,0.0
65.0,83.0,70.0,-6.0,-10.0,0.0,9.0,51.0,92.0,107.0,0.0
56.0,59.0,108.0,-13.0,-9.0,2.0,24.0,31.0,52.0,97.0,0.0
25.0,35.0,103.0,2.0,0.0,4.0,42.0,7.0,24.0,70.0,0.0
10.0,26.0,37.0,17.0,7.0,-11.0,22.0,-10.0,15.0,66.0,0.0
13.0,13.0,-54.0,16.0,23.0,-16.0,0.0,-8.0,13.0,52.0,0.0
11.0,3.0,-25.0,38.0,67.0,0.0,13.0,-9.0,20.0,31.0,0.0
16.0,9.0,-3.0,67.0,106.0,12.0,12.0,-18.0,15.0,31.0,0.0
0.0,24.0,-42.0,87.0,111.0,4.0,-23.0,-19.0,20.0,29.0,0.0
-14.0,2.0,-68.0,140.0,103.0,24.0,-19.0,-9.0,20.0,19.0,0.0
-12.0,-14.0,-83.0,146.0,107.0,49.0,8.0,6.0,28.0,7.0,0.0
-13.0,-2.0,-116.0,98.0,90.0,49.0,18.0,0.0,32.0,3.0,0.0
1.0,9.0,-131.0,73.0,55.0,37.0,5.0,-8.0,24.0,0.0,0.0
8.0,15.0,-121.0,50.0,11.0,14.0,-7.0,-13.0,9.0,-6.0,0.0
13.0,27.0,-46.0,-17.0,-25.0,3.0,5.0,0.0,8.0,0.0,0.0
38.0,46.0,68.0,-48.0,-34.0,0.0,15.0,15.0,13.0,12.0,0.0
59.0,51.0,128.0,-27.0,-12.0,4.0,7.0,10.0,15.0,18.0,0.0
53.0,50.0,119.0,0.0,17.0,0.0,1.0,-5.0,5.0,23.0,0.0
37.0,60.0,139.0,21.0,51.0,3.0,0.0,-4.0,4.0,38.0,0.0
-1.0,51.0,133.0,66.0,95.0,21.0,13.0,-11.0,-14.0,7.0,0.0
-8.0,21.0,37.0,145.0,131.0,34.0,30.0,-14.0,-26.0,-4.0,0.0
0.0,14.0,-9.0,203.0,128.0,28.0,18.0,-27.0,-23.0,6.0,0.0
-1.0,25.0,32.0,149.0,81.0,8.0,8.0,-29.0,-14.0,29.0,0.0
5.0,36.0,52.0,36.0,20.0,-6.0,0.0,-18.0,-10.0,29.0,0.0
17.0,24.0,16.0,-41.0,-35.0,-20.0,15.0,-5.0,12.0,46.0,0.0
44.0,41.0,-26.0,-135.0,-88.0,-10.0,53.0,28.0,71.0,84.0,0.0
69.0,64.0,-42.0,-179.0,-124.0,12.0,83.0,64.0,101.0,117.0,0.0
65.0,35.0,-53.0,-135.0,-99.0,20.0,100.0,70.0,79.0,109.0,0.0
51.0,29.0,-45.0,-78.0,-46.0,25.0,100.0,40.0,63.0,92.0,0.0
70.0,68.0,-24.0,-8.0,-19.0,23.0,76.0,22.0,43.0,93.0,0.0
62.0,85.0,-11.0,18.0,-14.0,14.0,62.0,13.0,30.0,84.0,0.0
32.0,67.0,28.0,2.0,-13.0,7.0,48.0,14.0,26.0,82.0,0.0
11.0,42.0,84.0,-16.0,-9.0,0.0,30.0,20.0,33.0,120.0,0.0
12.0,12.0,108.0,-36.0,0.0,9.0,36.0,32.0,53.0,87.0,0.0
17.0,-3.0,115.0,-55.0,-8.0,13.0,39.0,24.0,55.0,74.0,0.0
23.0,-15.0,121.0,-17.0,28.0,13.0,33.0,6.0,36.0,58.0,0.0
5.0,-18.0,107.0,19.0,61.0,20.0,27.0,1.0,12.0,43.0,0.0
-12.0,-24.0,102.0,0.0,40.0,10.0,7.0,-9.0,3.0,24.0,0.0
-22.0,-47.0,70.0,3.0,39.0,2.0,3.0,-9.0,-12.0,9.0,0.0
-32.0,-44.0,8.0,44.0,68.0,11.0,22.0,-10.0,-21.0,3.0,0.0
-26.0,-32.0,-16.0,84.0,85.0,12.0,8.0,-8.0,-14.0,6.0,0.0
6.0,-5.0,-23.0,143.0,94.0,27.0,23.0,17.0,11.0,40.0,0.0
26.0,18.0,-35.0,173.0,114.0,43.0,48.0,44.0,28.0,58.0,0.0
1.0,3.0,-44.0,165.0,126.0,45.0,40.0,42.0,27.0,44.0,0.0
-21.0,-23.0,-53.0,121.0,124.0,67.0,47.0,55.0,54.0,33.0,0.0
-34.0,-37.0,-86.0,39.0,37.0,55.0,40.0,41.0,13.0,18.0,0.0
-20.0,-40.0,-69.0,-16.0,-36.0,17.0,14.0,23.0,-76.0,38.0,0.0
-4.0,-27.0,-77.0,-25.0,-36.0,0.0,11.0,35.0,-28.0,65.0,0.0
8.0,-16.0,-22.0,-25.0,-15.0,-3.0,16.0,39.0,26.0,78.0,0.0
22.0,-3.0,64.0,-64.0,-12.0,3.0,31.0,40.0,25.0,93.0,0.0
28.0,-10.0,104.0,-112.0,-29.0,0.0,30.0,44.0,27.0,92.0,0.0
31.0,-18.0,154.0,-123.0,-33.0,-5.0,49.0,38.0,17.0,79.0,0.0
29.0,-18.0,175.0,-95.0,-19.0,-13.0,53.0,24.0,19.0,66.0,0.0
13.0,-20.0,171.0,-67.0,-1.0,-10.0,12.0,9.0,1.0,63.0,0.0
-6.0,0.0,142.0,-41.0,15.0,-12.0,-21.0,-11.0,-21.0,55.0,0.0
-4.0,22.0,96.0,-34.0,14.0,-21.0,-13.0,-13.0,-21.0,52.0,0.0
12.0,39.0,44.0,-33.0,16.0,-11.0,-13.0,7.0,7.0,71.0,0.0
24.0,47.0,36.0,28.0,10.0,-2.0,-11.0,9.0,-4.0,72.0,0.0
48.0,107.0,51.0,68.0,21.0,14.0,0.0,10.0,-7.0,69.0,0.0
33.0,103.0,5.0,89.0,46.0,13.0,-5.0,-8.0,-19.0,46.0,0.0
10.0,46.0,-53.0,165.0,73.0,0.0,9.0,-18.0,-24.0,28.0,0.0
13.0,42.0,-62.0,120.0,58.0,6.0,29.0,3.0,1.0,37.0,0.0
2.0,42.0,-72.0,118.0,64.0,33.0,41.0,0.0,2.0,44.0,0.0
1.0,34.0,-74.0,150.0,83.0,38.0,22.0,4.0,4.0,49.0,0.0
13.0,42.0,-33.0,122.0,70.0,29.0,31.0,10.0,4.0,43.0,0.0
19.0,45.0,9.0,76.0,43.0,15.0,43.0,4.0,-12.0,37.0,0.0
22.0,34.0,65.0,61.0,38.0,4.0,38.0,-7.0,-12.0,31.0,0.0
15.0,16.0,68.0,56.0,36.0,3.0,25.0,-4.0,-14.0,29.0,0.0
19.0,15.0,111.0,52.0,30.0,0.0,15.0,-12.0,-31.0,19.0,0.0
13.0,8.0,134.0,56.0,20.0,-13.0,23.0,-9.0,-33.0,7.0,0.0
-6.0,-9.0,107.0,92.0,28.0,-4.0,13.0,-6.0,-31.0,13.0,0.0
-19.0,-6.0,67.0,102.0,24.0,0.0,-28.0,-5.0,-27.0,15.0,0.0
-21.0,-3.0,13.0,98.0,5.0,-12.0,-28.0,-22.0,-38.0,-5.0,0.0
-6.0,21.0,-31.0,71.0,-8.0,-23.0,-15.0,-29.0,-53.0,-13.0,0.0
2.0,27.0,-35.0,26.0,9.0,-8.0,4.0,-18.0,-51.0,-13.0,0.0
13.0,37.0,-53.0,7.0,18.0,7.0,21.0,10.0,-27.0,10.0,0.0
13.0,38.0,-95.0,-21.0,3.0,3.0,16.0,23.0,-5.0,23.0,0.0
0.0,22.0,-86.0,-30.0,-12.0,-9.0,2.0,13.0,-12.0,1.0,0.0
3.0,12.0,-66.0,-62.0,-18.0,2.0,2.0,6.0,-52.0,-20.0,0.0
7.0,0.0,-56.0,-112.0,-30.0,6.0,-2.0,5.0,-79.0,-12.0,0.0
-2.0,29.0,-24.0,-119.0,-23.0,-2.0,-9.0,3.0,1.0,-2.0,0.0
0.0,30.0,6.0,-120.0,-28.0,-9.0,-42.0,-15.0,11.0,10.0,0.0
33.0,11.0,32.0,-130.0,-73.0,-37.0,-79.0,-32.0,-30.0,86.0,0.0
55.0,-4.0,98.0,-67.0,-62.0,-31.0,-80.0,-17.0,-103.0,184.0,0.0
39.0,13.0,139.0,83.0,11.0,17.0,-13.0,33.0,-29.0,132.0,0.0
13.0,7.0,144.0,90.0,9.0,26.0,5.0,52.0,-5.0,39.0,0.0
6.0,20.0,140.0,35.0,-25.0,6.0,-27.0,29.0,-26.0,12.0,0.0
9.0,59.0,109.0,14.0,-69.0,-19.0,-41.0,8.0,-45.0,9.0,0.0
2.0,59.0,52.0,-21.0,-81.0,-23.0,-37.0,0.0,-43.0,2.0,0.0
-6.0,15.0,-26.0,-58.0,-68.0,-1.0,-19.0,-2.0,-34.0,-7.0,0.0
-22.0,-17.0,-101.0,-55.0,-55.0,5.0,-2.0,-7.0,-43.0,-23.0,0.0
-19.0,-22.0,-118.0,-18.0,-46.0,-10.0,-30.0,-27.0,-113.0,-35.0,0.0
-17.0,-15.0,-109.0,31.0,-41.0,-5.0,-53.0,-40.0,-77.0,-34.0,0.0
-27.0,-19.0,-97.0,82.0,-17.0,4.0,-47.0,-46.0,-51.0,-50.0,0.0
-21.0,-22.0,-88.0,79.0,1.0,-1.0,-54.0,-51.0,-56.0,-60.0,0.0
-4.0,-10.0,-92.0,54.0,0.0,-9.0,-67.0,-56.0,-42.0,-56.0,0.0
-20.0,-13.0,-76.0,23.0,-14.0,-26.0,-87.0,-50.0,-32.0,-59.0,0.0
-33.0,-16.0,-55.0,-5.0,-15.0,-43.0,-87.0,-59.0,-36.0,-67.0,0.0
-42.0,-37.0,-77.0,-13.0,30.0,-46.0,-86.0,-78.0,-45.0,-71.0,0.0
-50.0,-54.0,-141.0,-1.0,50.0,-41.0,-82.0,-81.0,-39.0,-70.0,0.0
-40.0,-50.0,-107.0,0.0,28.0,-40.0,-64.0,-57.0,-21.0,-51.0,0.0
-15.0,-44.0,20.0,-3.0,3.0,-38.0,-41.0,-36.0,16.0,-37.0,0.0
-6.0,-34.0,111.0,-58.0,-18.0,-26.0,-35.0,-10.0,45.0,-19.0,0.0
3.0,-13.0,149.0,-129.0,-61.0,-10.0,-24.0,-1.0,35.0,-20.0,0.0
7.0,-7.0,112.0,-153.0,-86.0,-10.0,-28.0,-1.0,40.0,-26.0,0.0
10.0,6.0,12.0,-149.0,-101.0,-6.0,-33.0,7.0,49.0,-15.0,0.0
-10.0,-25.0,-59.0,-51.0,-77.0,-10.0,-37.0,-9.0,9.0,-41.0,0.0
-49.0,-54.0,-92.0,54.0,-23.0,-1.0,-35.0,-18.0,-12.0,-65.0,0.0
-42.0,-50.0,-112.0,27.0,-18.0,-5.0,-30.0,-7.0,-25.0,-76.0,0.0
-21.0,-36.0,-112.0,-25.0,-61.0,-23.0,-47.0,-8.0,-32.0,-62.0,0.0
-4.0,-35.0,-101.0,-24.0,-82.0,-35.0,-88.0,-13.0,-103.0,-63.0,0.0
-6.0,-33.0,-106.0,9.0,-51.0,-32.0,-87.0,-28.0,-88.0,-69.0,0.0
11.0,-50.0,-100.0,0.0,-47.0,-25.0,-86.0,-50.0,-106.0,-48.0,0.0
17.0,-37.0,-23.0,-13.0,-48.0,-18.0,-61.0,-52.0,-32.0,-34.0,0.0
1.0,-33.0,-3.0,-6.0,-37.0,-30.0,-55.0,-43.0,0.0,-27.0,0.0
-9.0,-24.0,11.0,-9.0,-29.0,-26.0,-49.0,-41.0,12.0,-30.0,0.0
0.0,-11.0,19.0,-24.0,-39.0,-35.0,-46.0,-29.0,12.0,-25.0,0.0
1.0,-35.0,140.0,-46.0,-78.0,-46.0,-48.0,30.0,17.0,-22.0,0.0
1.0,-7.0,173.0,-24.0,-69.0,-29.0,-49.0,68.0,-10.0,-51.0,0.0
-2.0,6.0,153.0,0.0,-38.0,-3.0,-46.0,73.0,-105.0,-50.0,0.0
11.0,-27.0,92.0,-6.0,-19.0,-8.0,-46.0,11.0,-267.0,-46.0,0.0
7.0,-21.0,29.0,36.0,-16.0,-9.0,-8.0,-18.0,-125.0,-46.0,0.0
-5.0,-24.0,-28.0,66.0,-27.0,10.0,20.0,-7.0,1.0,-43.0,0.0
-5.0,-37.0,-89.0,60.0,-20.0,8.0,10.0,-11.0,-6.0,-60.0,0.0
-10.0,-37.0,-131.0,43.0,-27.0,7.0,11.0,-15.0,-10.0,-63.0,0.0
-6.0,-27.0,-139.0,0.0,-40.0,-4.0,17.0,-10.0,4.0,-46.0,0.0
1.0,-13.0,-108.0,-34.0,-18.0,-5.0,2.0,2.0,19.0,-35.0,0.0
1.0,-8.0,-82.0,-23.0,-3.0,-2.0,8.0,0.0,26.0,-25.0,0.0
-4.0,-21.0,-60.0,34.0,15.0,-5.0,6.0,18.0,46.0,-21.0,0.0
-6.0,-17.0,-42.0,79.0,16.0,-8.0,5.0,19.0,42.0,-25.0,0.0
-13.0,-17.0,-35.0,71.0,20.0,-10.0,-4.0,-4.0,-4.0,-48.0,0.0
-18.0,-15.0,-26.0,38.0,18.0,-16.0,-20.0,-4.0,-15.0,-44.0,0.0
-18.0,-14.0,29.0,-43.0,-45.0,-20.0,-40.0,6.0,2.0,-31.0,0.0
-19.0,-13.0,52.0,-126.0,-118.0,-28.0,-23.0,18.0,27.0,-26.0,0.0
-18.0,3.0,100.0,-115.0,-113.0,-25.0,18.0,3.0,22.0,-46.0,0.0
-15.0,6.0,132.0,-60.0,-58.0,-6.0,17.0,-13.0,6.0,-66.0,0.0
-22.0,-5.0,126.0,-24.0,-13.0,-10.0,0.0,-18.0,5.0,-80.0,0.0
-37.0,-11.0,62.0,17.0,27.0,-24.0,-22.0,-33.0,2.0,-100.0,0.0
-53.0,0.0,-3.0,40.0,52.0,-23.0,-25.0,-41.0,-4.0,-89.0,0.0
-52.0,0.0,-39.0,31.0,56.0,-9.0,-34.0,-32.0,0.0,-70.0,0.0
-50.0,-12.0,-89.0,10.0,44.0,7.0,-28.0,-21.0,3.0,-63.0,0.0
-47.0,-24.0,-132.0,-32.0,-2.0,10.0,-22.0,-17.0,6.0,-55.0,0.0
-36.0,-14.0,-126.0,-48.0,-59.0,9.0,-9.0,4.0,22.0,-32.0,0.0
-13.0,-5.0,-84.0,-81.0,-79.0,9.0,8.0,15.0,36.0,-8.0,0.0
13.0,0.0,-56.0,-97.0,-104.0,-5.0,-8.0,24.0,27.0,-8.0,0.0
5.0,7.0,-37.0,-79.0,-110.0,0.0,-9.0,20.0,20.0,-17.0,0.0
-9.0,0.0,-1.0,-35.0,-41.0,12.0,-7.0,11.0,13.0,-25.0,0.0
-9.0,-7.0,13.0,-39.0,-32.0,19.0,-3.0,26.0,20.0,-22.0,0.0
-10.0,-2.0,41.0,-80.0,-21.0,25.0,-11.0,28.0,7.0,-14.0,0.0
-7.0,-28.0,87.0,-153.0,-20.0,6.0,-64.0,3.0,-210.0,3.0,0.0
6.0,-14.0,123.0,-160.0,-34.0,-18.0,-78.0,-1.0,-205.0,5.0,0.0
21.0,53.0,162.0,-85.0,-24.0,-31.0,-35.0,8.0,59.0,-20.0,0.0
3.0,66.0,136.0,27.0,-5.0,-39.0,-42.0,-14.0,52.0,-43.0,0.0
-22.0,40.0,57.0,142.0,-5.0,-36.0,-40.0,-46.0,-24.0,-61.0,0.0
-29.0,6.0,-21.0,116.0,-6.0,-25.0,-7.0,-48.0,-49.0,-65.0,0.0
-30.0,-29.0,-92.0,47.0,-15.0,-12.0,16.0,-34.0,-44.0,-69.0,0.0
-18.0,-39.0,-114.0,22.0,-5.0,9.0,43.0,-13.0,-20.0,-57.0,0.0
4.0,-40.0,-153.0,8.0,10.0,21.0,46.0,-4.0,0.0,-49.0,0.0
36.0,-5.0,-140.0,25.0,24.0,25.0,39.0,4.0,4.0,-43.0,0.0
54.0,12.0,-80.0,53.0,44.0,29.0,38.0,2.0,-10.0,-41.0,0.0
56.0,4.0,-19.0,61.0,61.0,26.0,22.0,-11.0,-17.0,-48.0,0.0
47.0,2.0,21.0,48.0,51.0,19.0,-20.0,-22.0,-8.0,-45.0,0.0
47.0,60.0,57.0,-19.0,10.0,1.0,-45.0,-31.0,-15.0,-42.0,0.0
52.0,114.0,87.0,-90.0,-13.0,-4.0,-50.0,-31.0,-5.0,-40.0,0.0
45.0,90.0,103.0,-132.0,3.0,-9.0,-24.0,-35.0,-11.0,-43.0,0.0
37.0,52.0,128.0,-136.0,14.0,0.0,-6.0,-36.0,-21.0,-44.0,0.0
27.0,39.0,126.0,-134.0,7.0,11.0,-6.0,-31.0,-11.0,-45.0,0.0
17.0,22.0,123.0,-150.0,-14.0,1.0,-28.0,-21.0,-5.0,-35.0,0.0
0.0,-14.0,140.0,-121.0,-39.0,-4.0,-42.0,-24.0,0.0,-42.0,0.0
-16.0,-52.0,119.0,58.0,-29.0,0.0,-30.0,-10.0,11.0,-52.0,0.0
-4.0,-54.0,66.0,240.0,23.0,47.0,8.0,46.0,40.0,-17.0,0.0
21.0,-22.0,13.0,216.0,39.0,57.0,24.0,81.0,61.0,9.0,0.0
10.0,-24.0,-40.0,79.0,5.0,38.0,14.0,84.0,54.0,-5.0,0.0
5.0,-23.0,-83.0,-7.0,-8.0,15.0,2.0,55.0,46.0,-8.0,0.0
10.0,22.0,-134.0,-30.0,-6.0,-13.0,-10.0,21.0,7.0,-24.0,0.0
14.0,36.0,-126.0,-36.0,-12.0,-35.0,-4.0,11.0,-4.0,-36.0,0.0
4.0,21.0,-80.0,-34.0,-8.0,-39.0,10.0,5.0,-7.0,-42.0,0.0
0.0,9.0,-20.0,-24.0,-3.0,-41.0,16.0,-1.0,-8.0,-46.0,0.0
-9.0,9.0,18.0,-43.0,-14.0,-37.0,16.0,0.0,-9.0,-44.0,0.0
-5.0,16.0,42.0,-41.0,-25.0,-35.0,14.0,6.0,-12.0,-20.0,0.0
1.0,21.0,37.0,56.0,-2.0,-10.0,20.0,15.0,-6.0,-12.0,0.0
6.0,9.0,68.0,104.0,43.0,39.0,35.0,29.0,-2.0,-5.0,0.0
-8.0,-16.0,102.0,30.0,47.0,37.0,14.0,33.0,-65.0,-5.0,0.0
-35.0,-12.0,124.0,10.0,45.0,24.0,15.0,34.0,-24.0,-15.0,0.0
-56.0,-14.0,123.0,5.0,30.0,22.0,10.0,17.0,-24.0,-30.0,0.0
-60.0,-3.0,115.0,15.0,29.0,38.0,12.0,14.0,-18.0,-37.0,0.0
-66.0,-17.0,64.0,29.0,19.0,39.0,19.0,5.0,-17.0,-34.0,0.0
-61.0,-30.0,-7.0,9.0,3.0,34.0,13.0,-5.0,-10.0,-34.0,0.0
-53.0,-28.0,-54.0,1.0,3.0,19.0,2.0,0.0,-12.0,-33.0,0.0
-59.0,-32.0,-108.0,60.0,21.0,18.0,-3.0,-6.0,-24.0,-32.0,0.0
-63.0,-21.0,-150.0,140.0,64.0,17.0,-12.0,-17.0,-36.0,-33.0,0.0
-54.0,-11.0,-128.0,146.0,81.0,4.0,-10.0,-29.0,-45.0,-47.0,0.0
-48.0,-20.0,-124.0,145.0,79.0,-18.0,-25.0,-42.0,-57.0,-59.0,0.0
-50.0,-62.0,-85.0,122.0,65.0,-14.0,-57.0,-39.0,-54.0,-60.0,0.0
-50.0,-93.0,-27.0,55.0,29.0,-23.0,-68.0,-23.0,-89.0,-41.0,0.0
-11.0,-66.0,6.0,-22.0,2.0,-14.0,-42.0,-3.0,0.0,-10.0,0.0
56.0,-28.0,36.0,-118.0,-39.0,5.0,-15.0,20.0,71.0,28.0,0.0
86.0,12.0,62.0,-175.0,-75.0,0.0,-6.0,23.0,64.0,31.0,0.0
79.0,15.0,63.0,-162.0,-74.0,-8.0,-16.0,4.0,33.0,11.0,0.0
37.0,-51.0,78.0,-104.0,-22.0,17.0,3.0,-5.0,19.0,-18.0,0.0
31.0,-47.0,72.0,-107.0,-29.0,18.0,18.0,-9.0,14.0,-24.0,0.0
28.0,-51.0,-20.0,-81.0,-30.0,0.0,-32.0,-17.0,-132.0,-24.0,0.0
0.0,-81.0,-52.0,-12.0,-4.0,-11.0,-75.0,-21.0,-266.0,-34.0,0.0
-3.0,-34.0,-12.0,31.0,16.0,11.0,-17.0,-21.0,-9.0,-22.0,0.0
11.0,-11.0,-6.0,13.0,21.0,19.0,-4.0,-39.0,33.0,-15.0,0.0
24.0,1.0,-32.0,-11.0,30.0,26.0,0.0,-50.0,52.0,-15.0,0.0
32.0,35.0,-59.0,-35.0,36.0,21.0,6.0,-47.0,75.0,-11.0,0.0
20.0,42.0,-96.0,-61.0,7.0,4.0,5.0,-52.0,57.0,-30.0,0.0
9.0,25.0,-152.0,-90.0,-32.0,-14.0,18.0,-31.0,34.0,-44.0,0.0
2.0,25.0,-118.0,-33.0,-49.0,-36.0,18.0,-6.0,43.0,-42.0,0.0
-18.0,29.0,-15.0,43.0,-43.0,-15.0,42.0,56.0,68.0,-28.0,0.0
-19.0,16.0,7.0,2.0,-50.0,-10.0,34.0,84.0,38.0,-34.0,0.0
-3.0,22.0,88.0,6.0,-27.0,-16.0,-14.0,47.0,-81.0,-34.0,0.0
1.0,1.0,121.0,-21.0,-21.0,-24.0,-55.0,-32.0,-248.0,-43.0,0.0
-1.0,27.0,128.0,10.0,-1.0,-12.0,-13.0,-31.0,-38.0,-59.0,0.0
-1.0,26.0,85.0,31.0,15.0,-8.0,-10.0,-13.0,-33.0,-70.0,0.0
-13.0,15.0,54.0,39.0,28.0,3.0,7.0,-13.0,0.0,-66.0,0.0
-30.0,17.0,39.0,26.0,25.0,13.0,17.0,-6.0,39.0,-60.0,0.0
-21.0,7.0,30.0,6.0,7.0,12.0,-9.0,0.0,48.0,-55.0,0.0
13.0,19.0,4.0,-2.0,-12.0,-9.0,-24.0,-6.0,55.0,-44.0,0.0
19.0,8.0,-33.0,8.0,-20.0,-17.0,-30.0,-7.0,56.0,-30.0,0.0
8.0,-12.0,-71.0,-15.0,-27.0,-10.0,-36.0,-1.0,-3.0,-13.0,0.0
9.0,0.0,-98.0,-41.0,-38.0,-4.0,-16.0,-10.0,24.0,11.0,0.0
13.0,1.0,-115.0,-41.0,-46.0,-14.0,14.0,-13.0,54.0,-5.0,0.0
11.0,-3.0,-115.0,-20.0,-26.0,-23.0,10.0,-9.0,50.0,-30.0,0.0
9.0,1.0,-161.0,6.0,4.0,-21.0,-3.0,-5.0,60.0,-28.0,0.0
-9.0,0.0,-152.0,14.0,21.0,0.0,1.0,2.0,64.0,-13.0,0.0
-20.0,-26.0,-85.0,34.0,41.0,13.0,6.0,6.0,30.0,-30.0,0.0
-28.0,-24.0,16.0,62.0,62.0,4.0,-10.0,-2.0,0.0,-59.0,0.0
-30.0,-8.0,108.0,94.0,103.0,2.0,-10.0,-14.0,-3.0,-57.0,0.0
-22.0,12.0,150.0,114.0,125.0,9.0,2.0,-9.0,6.0,-30.0,0.0
4.0,9.0,155.0,110.0,93.0,13.0,7.0,0.0,14.0,-2.0,0.0
24.0,9.0,167.0,74.0,61.0,11.0,7.0,12.0,23.0,2.0,0.0
18.0,14.0,145.0,30.0,44.0,1.0,10.0,-5.0,8.0,-8.0,0.0
1.0,9.0,90.0,4.0,27.0,-15.0,-5.0,-18.0,-17.0,-27.0,0.0
-18.0,9.0,28.0,-59.0,-18.0,-20.0,-32.0,-14.0,-16.0,-29.0,0.0
-30.0,-13.0,-65.0,-131.0,-48.0,-20.0,-40.0,-1.0,-1.0,-28.0,0.0
-27.0,-37.0,-81.0,-137.0,-30.0,-34.0,-45.0,5.0,-4.0,-28.0,0.0
-42.0,-48.0,-68.0,-35.0,34.0,-43.0,-36.0,-14.0,-14.0,-47.0,0.0
-53.0,-55.0,-82.0,48.0,63.0,-21.0,-2.0,-31.0,-23.0,-62.0,0.0
-27.0,-48.0,-107.0,-8.0,0.0,-5.0,18.0,-14.0,-3.0,-58.0,0.0
-14.0,-54.0,-102.0,-77.0,-69.0,-9.0,27.0,-10.0,14.0,-59.0,0.0
-1.0,-51.0,-88.0,-96.0,-100.0,-22.0,14.0,-5.0,28.0,-55.0,0.0
9.0,-60.0,-56.0,-113.0,-108.0,-16.0,19.0,-7.0,42.0,-45.0,0.0
9.0,-39.0,66.0,-100.0,-95.0,-9.0,8.0,-4.0,28.0,-66.0,0.0
16.0,1.0,118.0,-88.0,-61.0,-13.0,-8.0,-1.0,-34.0,-82.0,0.0
23.0,25.0,131.0,-88.0,-41.0,-17.0,-10.0,-4.0,21.0,-83.0,0.0
16.0,46.0,150.0,-90.0,-9.0,-27.0,-52.0,-40.0,5.0,-117.0,0.0
9.0,70.0,140.0,-61.0,13.0,-44.0,-85.0,-68.0,-42.0,-164.0,0.0
0.0,67.0,106.0,-54.0,-3.0,-69.0,-78.0,-74.0,-39.0,-182.0,0.0
-23.0,28.0,36.0,-81.0,-3.0,-73.0,-93.0,-88.0,-32.0,-181.0,0.0
0.0,-7.0,-95.0,-71.0,-140.0,-103.0,-114.0,-83.0,-39.0,33.0,0.0
12.0,-3.0,-83.0,75.0,-59.0,-50.0,-70.0,-58.0,-100.0,65.0,0.0
11.0,-6.0,-125.0,57.0,-44.0,-44.0,-48.0,-45.0,-92.0,-12.0,0.0
9.0,-28.0,-124.0,-7.0,-63.0,-59.0,-88.0,-53.0,-181.0,-33.0,0.0
5.0,-35.0,-86.0,54.0,-14.0,-46.0,-93.0,-50.0,-177.0,-44.0,0.0
2.0,-3.0,-93.0,79.0,38.0,-21.0,-36.0,-31.0,1.0,-49.0,0.0
0.0,6.0,-110.0,37.0,40.0,-17.0,-15.0,-22.0,14.0,-44.0,0.0
-9.0,2.0,-49.0,-7.0,27.0,-36.0,-10.0,-14.0,-16.0,-40.0,0.0
-28.0,-10.0,-29.0,-20.0,-2.0,-52.0,-30.0,-34.0,-46.0,-63.0,0.0
-47.0,4.0,26.0,17.0,-35.0,-68.0,-37.0,-46.0,-7.0,-79.0,0.0
-36.0,12.0,103.0,0.0,-86.0,-105.0,-57.0,-52.0,0.0,-77.0,0.0
-40.0,9.0,78.0,-11.0,-102.0,-105.0,-49.0,-60.0,-1.0,-74.0,0.0
-73.0,-31.0,49.0,64.0,-40.0,-66.0,-41.0,-79.0,-24.0,-95.0,0.0
-78.0,-52.0,72.0,131.0,7.0,-42.0,-14.0,-74.0,-17.0,-87.0,0.0
-24.0,-39.0,44.0,138.0,43.0,-7.0,31.0,-28.0,22.0,-28.0,0.0
6.0,-27.0,-12.0,86.0,57.0,36.0,53.0,0.0,58.0,-4.0,0.0
16.0,-36.0,-33.0,45.0,39.0,44.0,41.0,-1.0,59.0,-10.0,0.0
22.0,-32.0,-22.0,27.0,40.0,37.0,42.0,0.0,53.0,-17.0,0.0
12.0,-40.0,-87.0,-19.0,37.0,26.0,68.0,3.0,46.0,-2.0,0.0
-7.0,-69.0,-112.0,-97.0,4.0,17.0,90.0,30.0,60.0,4.0,0.0
-5.0,-77.0,-119.0,-173.0,-19.0,14.0,86.0,46.0,75.0,16.0,0.0
4.0,-71.0,-118.0,-171.0,-28.0,-5.0,55.0,45.0,69.0,27.0,0.0
-11.0,-70.0,-88.0,-40.0,1.0,1.0,31.0,29.0,49.0,15.0,0.0
-16.0,-77.0,-21.0,-25.0,28.0,14.0,37.0,16.0,-14.0,-4.0,0.0
7.0,-49.0,68.0,-41.0,24.0,10.0,42.0,6.0,19.0,5.0,0.0
13.0,-45.0,139.0,-74.0,18.0,0.0,35.0,-11.0,-63.0,5.0,0.0
-11.0,-64.0,165.0,-112.0,8.0,-20.0,-18.0,-26.0,-265.0,-7.0,0.0
-11.0,-13.0,184.0,-86.0,11.0,-31.0,-9.0,-23.0,-83.0,-25.0,0.0
-13.0,18.0,176.0,-63.0,38.0,-3.0,14.0,-27.0,9.0,-52.0,0.0
-13.0,9.0,111.0,-66.0,37.0,27.0,14.0,-28.0,-4.0,-49.0,0.0
-13.0,10.0,39.0,-42.0,16.0,18.0,7.0,-26.0,-7.0,-31.0,0.0
-9.0,11.0,0.0,60.0,-5.0,3.0,4.0,-26.0,-1.0,-23.0,0.0
-8.0,6.0,-27.0,139.0,3.0,0.0,19.0,-29.0,-14.0,-30.0,0.0
4.0,26.0,-25.0,128.0,11.0,4.0,47.0,-25.0,1.0,-14.0,0.0
11.0,35.0,-71.0,81.0,5.0,-1.0,29.0,-15.0,19.0,-5.0,0.0
23.0,31.0,-92.0,77.0,-4.0,-9.0,14.0,-12.0,30.0,4.0,0.0
14.0,25.0,-84.0,65.0,8.0,-8.0,15.0,-9.0,30.0,-3.0,0.0
15.0,15.0,-64.0,32.0,5.0,3.0,40.0,-11.0,32.0,-6.0,0.0
-5.0,-28.0,-55.0,28.0,15.0,0.0,18.0,-12.0,-47.0,-10.0,0.0
-15.0,-23.0,-8.0,54.0,70.0,23.0,35.0,7.0,15.0,-13.0,0.0
-25.0,-29.0,52.0,51.0,83.0,22.0,25.0,0.0,-61.0,-23.0,0.0
-31.0,-50.0,116.0,50.0,59.0,14.0,-11.0,-24.0,-232.0,-33.0,0.0
-29.0,-26.0,142.0,46.0,36.0,18.0,18.0,-19.0,-57.0,-33.0,0.0
-24.0,-27.0,139.0,29.0,8.0,15.0,36.0,-18.0,24.0,-32.0,0.0
-28.0,-27.0,103.0,-28.0,-53.0,0.0,46.0,-17.0,34.0,-30.0,0.0
-17.0,-16.0,37.0,-111.0,-126.0,-16.0,38.0,-10.0,57.0,-19.0,0.0
-2.0,5.0,-34.0,-132.0,-148.0,-31.0,15.0,-8.0,61.0,-2.0,0.0
-12.0,21.0,-86.0,-53.0,-98.0,-22.0,6.0,-14.0,45.0,-21.0,0.0
-23.0,30.0,-130.0,60.0,-40.0,-15.0,22.0,-33.0,46.0,-26.0,0.0
-46.0,28.0,-184.0,122.0,-5.0,-19.0,25.0,-42.0,48.0,-27.0,0.0
-52.0,26.0,-184.0,70.0,-13.0,-24.0,34.0,-28.0,44.0,-25.0,0.0
-47.0,17.0,-144.0,3.0,-19.0,-6.0,44.0,-21.0,60.0,-22.0,0.0
-23.0,12.0,-105.0,-32.0,-11.0,12.0,41.0,1.0,62.0,-11.0,0.0
0.0,-4.0,-76.0,-78.0,-14.0,18.0,44.0,20.0,10.0,10.0,0.0
32.0,26.0,-41.0,-84.0,-23.0,15.0,70.0,38.0,83.0,42.0,0.0
45.0,18.0,-2.0,-79.0,-19.0,16.0,67.0,32.0,100.0,53.0,0.0
26.0,-12.0,29.0,-45.0,-8.0,16.0,63.0,12.0,66.0,44.0,0.0
-4.0,-32.0,59.0,19.0,17.0,29.0,55.0,-9.0,33.0,5.0,0.0
-35.0,-48.0,106.0,30.0,29.0,45.0,61.0,-17.0,20.0,-10.0,0.0
-31.0,-53.0,127.0,32.0,32.0,41.0,55.0,-15.0,21.0,-7.0,0.0
-25.0,-61.0,137.0,23.0,23.0,28.0,52.0,-13.0,6.0,-13.0,0.0
-29.0,-52.0,80.0,51.0,57.0,27.0,41.0,-25.0,-16.0,-9.0,0.0
-12.0,-8.0,-16.0,111.0,91.0,22.0,21.0,-49.0,-39.0,-15.0,0.0
5.0,9.0,-27.0,157.0,92.0,6.0,7.0,-70.0,-59.0,-27.0,0.0
11.0,5.0,-87.0,157.0,69.0,-7.0,-7.0,-64.0,-60.0,-31.0,0.0
-2.0,-14.0,-121.0,67.0,33.0,-17.0,-20.0,-54.0,-45.0,-38.0,0.0
-6.0,-7.0,-98.0,-40.0,24.0,-16.0,-23.0,-50.0,-33.0,-31.0,0.0
18.0,9.0,-78.0,-103.0,-12.0,-13.0,-31.0,-49.0,-17.0,-6.0,0.0
42.0,35.0,-107.0,-163.0,-101.0,-17.0,-35.0,-44.0,-5.0,24.0,0.0
40.0,49.0,-103.0,-160.0,-125.0,-35.0,-55.0,-43.0,5.0,21.0,0.0
11.0,36.0,-102.0,-42.0,-65.0,-31.0,-78.0,-47.0,3.0,-6.0,0.0
0.0,36.0,-85.0,97.0,-5.0,-13.0,-76.0,-39.0,2.0,-14.0,0.0
11.0,19.0,-18.0,152.0,46.0,12.0,-53.0,-8.0,13.0,4.0,0.0
6.0,-42.0,-2.0,33.0,27.0,29.0,-14.0,49.0,33.0,13.0,0.0
4.0,-46.0,32.0,-56.0,-11.0,39.0,27.0,119.0,52.0,29.0,0.0
30.0,10.0,101.0,-61.0,-37.0,35.0,61.0,121.0,71.0,46.0,0.0
42.0,89.0,139.0,-36.0,-35.0,28.0,46.0,67.0,59.0,43.0,0.0
32.0,108.0,140.0,-30.0,-12.0,16.0,31.0,46.0,50.0,32.0,0.0
13.0,77.0,106.0,-27.0,-1.0,13.0,22.0,58.0,52.0,23.0,0.0
10.0,42.0,42.0,-16.0,0.0,12.0,4.0,67.0,48.0,17.0,0.0
3.0,30.0,-24.0,31.0,-4.0,5.0,-16.0,48.0,5.0,8.0,0.0
0.0,17.0,-101.0,96.0,5.0,9.0,-5.0,38.0,-17.0,10.0,0.0
-5.0,-6.0,-152.0,56.0,21.0,12.0,2.0,32.0,-15.0,10.0,0.0
-13.0,-21.0,-104.0,-22.0,0.0,9.0,-5.0,32.0,-26.0,16.0,0.0
4.0,12.0,-81.0,-64.0,-31.0,6.0,-28.0,37.0,-25.0,35.0,0.0
14.0,37.0,-138.0,-92.0,-38.0,2.0,-41.0,23.0,-91.0,29.0,0.0
1.0,10.0,-157.0,-89.0,-26.0,-3.0,-49.0,10.0,-236.0,12.0,0.0
-3.0,-26.0,-68.0,-67.0,-17.0,15.0,-28.0,38.0,-82.0,12.0,0.0
-7.0,-20.0,13.0,-46.0,-2.0,21.0,-28.0,62.0,29.0,26.0,0.0
-10.0,33.0,60.0,-20.0,47.0,34.0,-22.0,80.0,112.0,24.0,0.0
-11.0,17.0,103.0,-25.0,27.0,39.0,2.0,51.0,50.0,-8.0,0.0
-17.0,-7.0,148.0,-38.0,1.0,31.0,5.0,26.0,-12.0,-37.0,0.0
-33.0,-4.0,173.0,40.0,22.0,17.0,2.0,22.0,-3.0,-47.0,0.0
-45.0,-7.0,141.0,140.0,58.0,23.0,-4.0,11.0,-25.0,-64.0,0.0
-22.0,2.0,81.0,109.0,51.0,19.0,0.0,-18.0,-39.0,-56.0,0.0
2.0,17.0,47.0,62.0,35.0,2.0,-4.0,-33.0,-43.0,-50.0,0.0
18.0,32.0,0.0,54.0,25.0,-18.0,-13.0,-43.0,-59.0,-34.0,0.0
1.0,44.0,-44.0,66.0,15.0,-48.0,-36.0,-54.0,-53.0,-31.0,0.0
-9.0,31.0,-79.0,68.0,2.0,-65.0,-49.0,-63.0,-39.0,-42.0,0.0
-7.0,14.0,-105.0,22.0,-16.0,-66.0,-57.0,-54.0,-64.0,-35.0,0.0
25.0,22.0,-109.0,38.0,21.0,-32.0,-56.0,-40.0,-21.0,8.0,0.0
-1.0,-3.0,-151.0,97.0,83.0,38.0,-9.0,-17.0,-14.0,-4.0,0.0
-16.0,-28.0,-117.0,30.0,70.0,38.0,0.0,6.0,-148.0,-5.0,0.0
-7.0,-35.0,-51.0,-12.0,41.0,18.0,11.0,2.0,-153.0,16.0,0.0
-5.0,-32.0,47.0,-29.0,37.0,24.0,31.0,3.0,21.0,23.0,0.0
-32.0,-49.0,98.0,-42.0,9.0,7.0,0.0,-6.0,37.0,10.0,0.0
-37.0,-37.0,71.0,29.0,-23.0,-12.0,0.0,0.0,38.0,2.0,0.0
-14.0,18.0,114.0,69.0,-37.0,-21.0,-11.0,-5.0,49.0,-3.0,0.0
3.0,31.0,215.0,30.0,-58.0,-19.0,-12.0,-7.0,51.0,2.0,0.0
14.0,1.0,171.0,-9.0,-71.0,-7.0,7.0,-4.0,37.0,-1.0,0.0
3.0,-20.0,92.0,-18.0,-52.0,7.0,26.0,8.0,38.0,1.0,0.0
-3.0,-20.0,25.0,-14.0,-23.0,14.0,22.0,8.0,49.0,-8.0,0.0
0.0,22.0,-15.0,-12.0,26.0,13.0,4.0,17.0,98.0,6.0,0.0
17.0,24.0,-59.0,-27.0,9.0,5.0,-1.0,13.0,78.0,6.0,0.0
42.0,23.0,-108.0,59.0,-5.0,-21.0,7.0,31.0,14.0,31.0,0.0
25.0,71.0,-76.0,71.0,67.0,-11.0,13.0,54.0,121.0,48.0,0.0
-2.0,43.0,-96.0,69.0,103.0,20.0,6.0,38.0,95.0,22.0,0.0
5.0,19.0,-126.0,22.0,87.0,9.0,-50.0,5.0,-146.0,16.0,0.0
10.0,24.0,-85.0,-11.0,52.0,-12.0,-75.0,-4.0,-170.0,0.0,0.0
-5.0,13.0,-37.0,-23.0,-31.0,-24.0,-33.0,-28.0,-23.0,-57.0,0.0
15.0,-6.0,27.0,-33.0,-72.0,-41.0,-36.0,-40.0,-29.0,-59.0,0.0
27.0,1.0,-2.0,-8.0,-52.0,-32.0,-24.0,-36.0,-39.0,-51.0,0.0
45.0,-1.0,-16.0,-15.0,-41.0,-22.0,-9.0,-22.0,-32.0,-43.0,0.0
38.0,-19.0,57.0,-37.0,-58.0,-25.0,9.0,-22.0,-25.0,-48.0,0.0
17.0,-24.0,130.0,-49.0,-68.0,-33.0,8.0,-20.0,-23.0,-60.0,0.0
3.0,-27.0,107.0,-29.0,-52.0,-37.0,-16.0,-24.0,-36.0,-48.0,0.0
1.0,-17.0,48.0,-3.0,-23.0,-42.0,-45.0,-49.0,-51.0,9.0,0.0
28.0,-10.0,-5.0,43.0,8.0,-39.0,-36.0,-68.0,-58.0,95.0,0.0
48.0,7.0,-71.0,57.0,19.0,-24.0,-22.0,-47.0,-36.0,82.0,0.0
27.0,-2.0,-180.0,51.0,15.0,-17.0,-24.0,-29.0,-65.0,7.0,0.0
12.0,-12.0,-201.0,30.0,0.0,-4.0,-15.0,-22.0,-74.0,-16.0,0.0
8.0,6.0,-148.0,-1.0,0.0,0.0,0.0,13.0,16.0,-10.0,0.0
6.0,4.0,-95.0,-33.0,-23.0,0.0,22.0,6.0,-4.0,0.0,0.0
-6.0,-6.0,-45.0,-76.0,-69.0,2.0,36.0,-13.0,-30.0,5.0,0.0
-17.0,2.0,-47.0,-104.0,-92.0,-9.0,10.0,-5.0,-18.0,6.0,0.0
-30.0,-7.0,-73.0,-67.0,-70.0,0.0,-7.0,0.0,-16.0,-7.0,0.0
-47.0,-15.0,2.0,-14.0,-50.0,13.0,1.0,2.0,-22.0,-20.0,0.0
-39.0,-10.0,81.0,-33.0,-65.0,-4.0,7.0,6.0,-12.0,-17.0,0.0
-23.0,0.0,63.0,-94.0,-72.0,-21.0,0.0,-4.0,0.0,-11.0,0.0
-22.0,-7.0,71.0,-119.0,-54.0,-16.0,-5.0,-11.0,7.0,-12.0,0.0
-26.0,-8.0,80.0,-158.0,-38.0,-5.0,-16.0,-10.0,4.0,-16.0,0.0
-12.0,10.0,97.0,-221.0,-70.0,-16.0,-6.0,-15.0,4.0,-3.0,0.0
13.0,20.0,105.0,-249.0,-100.0,-34.0,0.0,-9.0,28.0,18.0,0.0
10.0,-7.0,42.0,-233.0,-96.0,-35.0,-12.0,0.0,47.0,19.0,0.0
-29.0,-51.0,-41.0,-111.0,-51.0,-36.0,-9.0,-4.0,11.0,-19.0,0.0
-70.0,-83.0,-153.0,144.0,18.0,-10.0,13.0,-8.0,-13.0,-58.0,0.0
-81.0,-71.0,-191.0,330.0,48.0,-10.0,22.0,-35.0,-55.0,-97.0,0.0
-94.0,-76.0,-165.0,228.0,-17.0,-60.0,-24.0,-103.0,-80.0,-134.0,0.0
-108.0,-82.0,-155.0,99.0,-50.0,-79.0,-38.0,-107.0,-71.0,-163.0,0.0
-102.0,-97.0,-79.0,3.0,-85.0,-95.0,-59.0,-116.0,-185.0,-177.0,0.0
-79.0,-122.0,-19.0,-71.0,-96.0,-104.0,-128.0,-128.0,-316.0,-187.0,0.0
-65.0,-98.0,16.0,-84.0,-85.0,-97.0,-94.0,-113.0,-88.0,-209.0,0.0
-73.0,-82.0,33.0,-67.0,-79.0,-102.0,-84.0,-117.0,-50.0,-229.0,0.0
-85.0,-86.0,36.0,-60.0,-83.0,-103.0,-91.0,-122.0,-68.0,-242.0,0.0
-99.0,-84.0,52.0,-43.0,-77.0,-101.0,-88.0,-125.0,-82.0,-259.0,0.0
-98.0,-85.0,52.0,-41.0,-84.0,-108.0,-98.0,-131.0,-88.0,-257.0,0.0
-101.0,-78.0,46.0,-24.0,-59.0,-114.0,-95.0,-134.0,-67.0,-258.0,0.0
-97.0,-67.0,42.0,-7.0,-37.0,-106.0,-97.0,-152.0,-96.0,-275.0,0.0
-78.0,-57.0,18.0,36.0,-37.0,-108.0,-103.0,-169.0,-116.0,-279.0,0.0
-95.0,-56.0,-26.0,55.0,-31.0,-114.0,-123.0,-179.0,-127.0,-280.0,0.0
-111.0,-50.0,-73.0,28.0,-42.0,-124.0,-134.0,-192.0,-133.0,-275.0,0.0
-117.0,-52.0,-139.0,-21.0,-66.0,-136.0,-119.0,-172.0,-112.0,-253.0,0.0
-86.0,-67.0,-153.0,-86.0,-61.0,-107.0,-72.0,-119.0,-64.0,-208.0,0.0
-37.0,-52.0,-155.0,-85.0,-28.0,-54.0,-12.0,-40.0,-40.0,-163.0,0.0
-30.0,-51.0,-137.0,1.0,41.0,-24.0,54.0,82.0,-1.0,-145.0,0.0
-20.0,-41.0,-50.0,-58.0,36.0,-36.0,58.0,51.0,21.0,-135.0,0.0
-32.0,-69.0,4.0,-98.0,20.0,-47.0,12.0,-17.0,-86.0,-136.0,0.0
-41.0,-106.0,7.0,-168.0,-43.0,-63.0,-42.0,-35.0,-275.0,-121.0,0.0
-33.0,-60.0,15.0,-196.0,-91.0,-57.0,-1.0,2.0,-25.0,-95.0,0.0
-37.0,-24.0,30.0,-169.0,-76.0,-54.0,-5.0,11.0,41.0,-82.0,0.0
-33.0,11.0,49.0,-111.0,-56.0,-60.0,-33.0,-1.0,43.0,-84.0,0.0
-16.0,13.0,65.0,-78.0,-49.0,-54.0,-27.0,12.0,56.0,-56.0,0.0
9.0,-3.0,26.0,-76.0,-35.0,-19.0,0.0,49.0,79.0,-22.0,0.0
24.0,-7.0,0.0,-192.0,-54.0,8.0,27.0,71.0,106.0,-1.0,0.0
25.0,-2.0,-21.0,-316.0,-98.0,1.0,16.0,63.0,113.0,-8.0,0.0
9.0,-5.0,-102.0,-309.0,-94.0,-21.0,0.0,34.0,93.0,-20.0,0.0
-15.0,-18.0,-132.0,-175.0,-56.0,-31.0,-11.0,26.0,83.0,-29.0,0.0
-41.0,-29.0,-133.0,116.0,3.0,-18.0,-20.0,9.0,47.0,-52.0,0.0
-49.0,-29.0,-123.0,267.0,53.0,9.0,2.0,22.0,35.0,-47.0,0.0
-1.0,-18.0,-107.0,81.0,18.0,32.0,90.0,65.0,82.0,-8.0,0.0
-5.0,-32.0,-93.0,54.0,-2.0,5.0,81.0,39.0,43.0,-17.0,0.0
-9.0,-32.0,-48.0,37.0,6.0,0.0,54.0,21.0,-6.0,-11.0,0.0
-6.0,-53.0,8.0,10.0,1.0,-13.0,-21.0,0.0,-226.0,-12.0,0.0
-6.0,-34.0,61.0,24.0,9.0,-17.0,-42.0,6.0,-157.0,-17.0,0.0
-1.0,-7.0,83.0,33.0,24.0,-5.0,-13.0,13.0,18.0,-9.0,0.0
3.0,-7.0,116.0,24.0,23.0,0.0,-1.0,9.0,36.0,4.0,0.0
13.0,-17.0,137.0,30.0,14.0,2.0,29.0,10.0,56.0,10.0,0.0
7.0,-31.0,113.0,18.0,4.0,5.0,50.0,21.0,66.0,16.0,0.0
-1.0,-29.0,69.0,-9.0,-3.0,12.0,42.0,34.0,73.0,20.0,0.0
0.0,-10.0,21.0,-22.0,-6.0,10.0,43.0,42.0,77.0,28.0,0.0
16.0,6.0,-2.0,-5.0,0.0,-6.0,42.0,25.0,58.0,43.0,0.0
24.0,21.0,-25.0,15.0,14.0,-15.0,26.0,3.0,33.0,42.0,0.0
21.0,33.0,-29.0,30.0,37.0,-5.0,5.0,-3.0,20.0,38.0,0.0
40.0,19.0,-48.0,17.0,47.0,-6.0,-30.0,-3.0,-6.0,49.0,0.0
27.0,-11.0,-76.0,16.0,53.0,-12.0,-43.0,0.0,-37.0,64.0,0.0
8.0,-4.0,-101.0,38.0,55.0,7.0,-8.0,0.0,24.0,65.0,0.0
9.0,25.0,-78.0,60.0,75.0,16.0,9.0,-16.0,23.0,56.0,0.0
7.0,55.0,-37.0,89.0,100.0,14.0,11.0,-32.0,-2.0,50.0,0.0
4.0,60.0,18.0,85.0,100.0,20.0,13.0,-32.0,-4.0,13.0,0.0
19.0,45.0,69.0,59.0,58.0,2.0,5.0,-19.0,13.0,28.0,0.0
24.0,60.0,107.0,39.0,20.0,-22.0,2.0,-10.0,34.0,45.0,0.0
16.0,62.0,126.0,7.0,9.0,-4.0,15.0,-1.0,45.0,46.0,0.0
24.0,50.0,154.0,-40.0,-32.0,3.0,11.0,12.0,51.0,56.0,0.0
17.0,34.0,156.0,-54.0,-32.0,7.0,22.0,22.0,49.0,60.0,0.0
22.0,24.0,133.0,-40.0,0.0,24.0,25.0,15.0,35.0,49.0,0.0
34.0,25.0,70.0,-22.0,-1.0,15.0,31.0,18.0,31.0,44.0,0.0
47.0,45.0,9.0,-18.0,-13.0,3.0,40.0,34.0,42.0,56.0,0.0
42.0,37.0,-20.0,-33.0,-31.0,-1.0,40.0,41.0,38.0,55.0,0.0
30.0,18.0,-41.0,-37.0,-38.0,12.0,39.0,43.0,40.0,58.0,0.0
39.0,7.0,-87.0,-34.0,-25.0,7.0,20.0,31.0,37.0,62.0,0.0
28.0,3.0,-112.0,-62.0,-31.0,8.0,-16.0,23.0,21.0,58.0,0.0
26.0,17.0,-128.0,-72.0,-36.0,8.0,-33.0,21.0,15.0,58.0,0.0
24.0,17.0,-120.0,-69.0,-22.0,1.0,-38.0,13.0,7.0,52.0,0.0
16.0,11.0,-89.0,-70.0,9.0,-2.0,-29.0,0.0,10.0,45.0,0.0
4.0,-5.0,-50.0,-52.0,25.0,1.0,-34.0,3.0,10.0,48.0,0.0
-3.0,-7.0,-23.0,-47.0,18.0,-4.0,-33.0,3.0,21.0,50.0,0.0
18.0,23.0,78.0,44.0,39.0,7.0,-19.0,11.0,24.0,59.0,0.0
32.0,41.0,109.0,185.0,64.0,37.0,17.0,25.0,34.0,62.0,0.0
20.0,27.0,142.0,171.0,59.0,42.0,40.0,28.0,48.0,62.0,0.0
0.0,11.0,152.0,159.0,61.0,25.0,18.0,1.0,24.0,41.0,0.0
-33.0,-3.0,76.0,207.0,62.0,11.0,0.0,-6.0,0.0,12.0,0.0
-35.0,0.0,38.0,131.0,4.0,6.0,3.0,21.0,8.0,7.0,0.0
-8.0,22.0,8.0,52.0,-41.0,-10.0,19.0,30.0,49.0,31.0,0.0
7.0,34.0,-58.0,48.0,-8.0,-16.0,17.0,10.0,57.0,48.0,0.0
0.0,34.0,-20.0,60.0,29.0,-10.0,13.0,4.0,38.0,48.0,0.0
3.0,16.0,23.0,62.0,34.0,-16.0,10.0,10.0,22.0,51.0,0.0
26.0,23.0,1.0,84.0,46.0,-24.0,-7.0,-3.0,-2.0,40.0,0.0
19.0,25.0,-27.0,86.0,51.0,-11.0,-3.0,-2.0,-9.0,23.0,0.0
0.0,22.0,-54.0,63.0,27.0,-4.0,0.0,14.0,9.0,28.0,0.0
-14.0,4.0,-60.0,37.0,-4.0,14.0,10.0,33.0,34.0,41.0,0.0
-8.0,-12.0,-29.0,-2.0,-33.0,27.0,50.0,48.0,42.0,52.0,0.0
21.0,-6.0,0.0,-15.0,-49.0,8.0,44.0,43.0,38.0,63.0,0.0
33.0,14.0,43.0,3.0,-10.0,-3.0,31.0,9.0,30.0,62.0,0.0
21.0,29.0,108.0,23.0,29.0,14.0,31.0,-1.0,12.0,56.0,0.0
1.0,24.0,154.0,8.0,29.0,11.0,9.0,-12.0,-4.0,43.0,0.0
-26.0,10.0,161.0,-21.0,13.0,-12.0,-31.0,-23.0,-26.0,24.0,0.0
-36.0,-9.0,154.0,-46.0,3.0,-19.0,-35.0,-25.0,-33.0,10.0,0.0
-17.0,-16.0,125.0,-56.0,-7.0,-10.0,-36.0,-2.0,-31.0,14.0,0.0
19.0,0.0,136.0,-103.0,-15.0,-5.0,-23.0,39.0,-16.0,33.0,0.0
40.0,27.0,70.0,-123.0,-31.0,2.0,1.0,102.0,0.0,56.0,0.0
32.0,40.0,-12.0,-66.0,-16.0,14.0,38.0,121.0,24.0,64.0,0.0
31.0,40.0,-40.0,84.0,39.0,16.0,65.0,51.0,21.0,58.0,0.0
22.0,43.0,-46.0,155.0,73.0,23.0,50.0,5.0,-1.0,40.0,0.0
12.0,41.0,-47.0,100.0,58.0,22.0,16.0,3.0,-16.0,26.0,0.0
-1.0,27.0,-92.0,52.0,33.0,-4.0,-6.0,-5.0,-34.0,13.0,0.0
-9.0,33.0,-137.0,37.0,24.0,-7.0,-3.0,-13.0,-46.0,3.0,0.0
-22.0,35.0,-181.0,22.0,27.0,-2.0,25.0,-23.0,-46.0,-6.0,0.0
-22.0,20.0,-136.0,18.0,36.0,0.0,37.0,-23.0,-36.0,-19.0,0.0
-34.0,15.0,-63.0,39.0,56.0,-8.0,24.0,-48.0,-62.0,-34.0,0.0
-46.0,28.0,-20.0,62.0,79.0,-1.0,0.0,-69.0,-78.0,-50.0,0.0
-34.0,24.0,50.0,29.0,68.0,-10.0,-28.0,-68.0,-60.0,-49.0,0.0
-23.0,7.0,128.0,-30.0,21.0,-17.0,-36.0,-47.0,-61.0,-46.0,0.0
-9.0,-6.0,160.0,-31.0,-8.0,-19.0,-24.0,-33.0,-50.0,-26.0,0.0
10.0,-22.0,148.0,-33.0,-42.0,-28.0,-12.0,-29.0,-35.0,-10.0,0.0
25.0,-18.0,116.0,-31.0,-75.0,-40.0,-26.0,-33.0,-32.0,-7.0,0.0
26.0,9.0,56.0,-44.0,-64.0,-50.0,-37.0,-32.0,-28.0,-13.0,0.0
27.0,33.0,17.0,-13.0,-53.0,-52.0,-46.0,-40.0,-25.0,-20.0,0.0
16.0,19.0,-8.0,76.0,-34.0,-50.0,-43.0,-53.0,-37.0,-12.0,0.0
15.0,-11.0,-27.0,45.0,-17.0,-57.0,-43.0,-43.0,-23.0,3.0,0.0
23.0,-18.0,-15.0,-49.0,-3.0,-45.0,-21.0,-9.0,39.0,30.0,0.0
39.0,-23.0,-7.0,-119.0,-7.0,-28.0,21.0,6.0,46.0,18.0,0.0
56.0,4.0,-2.0,-156.0,9.0,2.0,49.0,25.0,80.0,22.0,0.0
68.0,67.0,18.0,-192.0,3.0,31.0,46.0,59.0,147.0,58.0,0.0
54.0,137.0,49.0,-127.0,35.0,41.0,39.0,87.0,174.0,63.0,0.0
23.0,132.0,27.0,63.0,80.0,28.0,64.0,73.0,158.0,33.0,0.0
29.0,77.0,19.0,110.0,43.0,31.0,72.0,77.0,144.0,26.0,0.0
41.0,74.0,47.0,3.0,24.0,46.0,81.0,107.0,198.0,67.0,0.0
36.0,78.0,91.0,-45.0,26.0,21.0,69.0,100.0,219.0,101.0,0.0
31.0,53.0,154.0,-22.0,37.0,28.0,29.0,66.0,183.0,153.0,0.0
25.0,36.0,195.0,4.0,41.0,47.0,4.0,42.0,119.0,197.0,0.0
46.0,72.0,188.0,33.0,86.0,60.0,39.0,70.0,166.0,156.0,0.0
41.0,70.0,142.0,16.0,77.0,40.0,62.0,72.0,164.0,80.0,0.0
12.0,39.0,72.0,11.0,34.0,14.0,47.0,46.0,109.0,55.0,0.0
6.0,30.0,-16.0,-12.0,10.0,14.0,39.0,28.0,67.0,42.0,0.0
19.0,92.0,-48.0,-74.0,25.0,10.0,35.0,63.0,125.0,60.0,0.0
19.0,109.0,-68.0,-150.0,-6.0,-7.0,30.0,70.0,123.0,65.0,0.0
12.0,66.0,-102.0,-118.0,-17.0,-15.0,11.0,41.0,52.0,35.0,0.0
-15.0,14.0,-119.0,38.0,0.0,-23.0,-23.0,-28.0,-96.0,-13.0,0.0
4.0,85.0,-104.0,126.0,49.0,-9.0,-13.0,-13.0,24.0,19.0,0.0
24.0,124.0,-104.0,73.0,56.0,-3.0,-11.0,1.0,87.0,51.0,0.0
5.0,118.0,-86.0,34.0,52.0,-3.0,-5.0,-2.0,50.0,45.0,0.0
-18.0,65.0,-67.0,8.0,7.0,-15.0,-4.0,-36.0,-36.0,16.0,0.0
10.0,87.0,-27.0,-9.0,7.0,-26.0,-22.0,-31.0,-6.0,31.0,0.0
32.0,105.0,-20.0,-4.0,27.0,-16.0,-7.0,-10.0,39.0,40.0,0.0
22.0,86.0,1.0,-6.0,47.0,0.0,-12.0,-10.0,28.0,29.0,0.0
15.0,41.0,73.0,-28.0,21.0,9.0,-32.0,-32.0,-32.0,10.0,0.0
36.0,50.0,66.0,-60.0,6.0,7.0,-45.0,-29.0,-25.0,18.0,0.0
40.0,63.0,-6.0,-36.0,19.0,3.0,-65.0,-9.0,33.0,45.0,0.0
31.0,43.0,-43.0,90.0,17.0,13.0,-70.0,3.0,34.0,56.0,0.0
12.0,-1.0,-33.0,190.0,3.0,23.0,-54.0,-15.0,-43.0,29.0,0.0
-1.0,-14.0,-66.0,166.0,31.0,18.0,-46.0,-39.0,-75.0,3.0,0.0
-10.0,27.0,-109.0,119.0,97.0,18.0,-13.0,-31.0,0.0,12.0,0.0
-31.0,13.0,-136.0,88.0,93.0,21.0,5.0,-28.0,8.0,0.0,0.0
-30.0,-13.0,-151.0,70.0,19.0,12.0,12.0,-36.0,-49.0,-11.0,0.0
-23.0,-53.0,-138.0,27.0,-76.0,6.0,20.0,-71.0,-128.0,-37.0,0.0
-22.0,-61.0,-129.0,-2.0,-94.0,11.0,45.0,-64.0,-127.0,-25.0,0.0
-25.0,-62.0,-177.0,-43.0,-122.0,24.0,69.0,-47.0,-116.0,-4.0,0.0
-19.0,-49.0,-169.0,-35.0,-116.0,26.0,77.0,-26.0,-98.0,22.0,0.0
-18.0,-49.0,-88.0,-16.0,-82.0,31.0,70.0,-23.0,-73.0,46.0,0.0
-24.0,-56.0,-37.0,-11.0,-70.0,28.0,60.0,-21.0,-58.0,36.0,0.0
-33.0,-69.0,-9.0,11.0,-37.0,22.0,44.0,-22.0,-56.0,22.0,0.0
-55.0,-79.0,26.0,57.0,18.0,17.0,39.0,-23.0,-60.0,-6.0,0.0
-46.0,-63.0,96.0,80.0,23.0,24.0,39.0,-16.0,-59.0,-3.0,0.0
-9.0,-41.0,152.0,89.0,-1.0,18.0,42.0,-4.0,-27.0,26.0,0.0
21.0,-29.0,146.0,78.0,-11.0,1.0,31.0,-6.0,-27.0,45.0,0.0
7.0,-40.0,74.0,58.0,-3.0,1.0,4.0,-28.0,-56.0,17.0,0.0
-19.0,-69.0,-19.0,40.0,-7.0,3.0,-20.0,-53.0,-74.0,-29.0,0.0
-19.0,-62.0,-68.0,-25.0,-67.0,-18.0,-22.0,-46.0,-76.0,-35.0,0.0
-6.0,-35.0,-105.0,-90.0,-121.0,-27.0,-8.0,-31.0,-50.0,-16.0,0.0
-2.0,-29.0,-157.0,-72.0,-107.0,-24.0,-38.0,-26.0,-38.0,-12.0,0.0
-4.0,-18.0,-213.0,-41.0,-56.0,-13.0,-50.0,-27.0,-46.0,-23.0,0.0
-3.0,-6.0,-151.0,-20.0,-11.0,-6.0,-45.0,-18.0,-27.0,-18.0,0.0
2.0,-14.0,-117.0,-26.0,-5.0,-14.0,-53.0,-13.0,-19.0,-4.0,0.0
-15.0,-18.0,-99.0,-66.0,-35.0,-9.0,-19.0,-8.0,-27.0,-12.0,0.0
-7.0,-22.0,-12.0,-89.0,-58.0,0.0,24.0,-8.0,-21.0,-7.0,0.0
-16.0,-42.0,24.0,-97.0,-57.0,-3.0,28.0,-4.0,-19.0,-17.0,0.0
-17.0,-35.0,54.0,-96.0,-62.0,2.0,29.0,0.0,-19.0,-32.0,0.0
-2.0,-18.0,88.0,-81.0,-61.0,6.0,12.0,5.0,-17.0,-18.0,0.0
2.0,-12.0,79.0,-65.0,-41.0,16.0,0.0,1.0,-22.0,-12.0,0.0
-5.0,-13.0,120.0,-36.0,-14.0,24.0,-13.0,-3.0,-47.0,-23.0,0.0
-17.0,-9.0,157.0,4.0,-9.0,7.0,-19.0,-17.0,-70.0,-39.0,0.0
-28.0,-12.0,127.0,6.0,-21.0,-12.0,-35.0,-18.0,-57.0,-52.0,0.0
-32.0,-28.0,57.0,-6.0,-15.0,-9.0,-29.0,-1.0,-53.0,-60.0,0.0
-50.0,-55.0,0.0,-6.0,-20.0,6.0,-19.0,5.0,-53.0,-55.0,0.0
-53.0,-49.0,-41.0,-29.0,-44.0,0.0,-32.0,20.0,-45.0,-40.0,0.0
-38.0,-44.0,-83.0,-19.0,-46.0,-13.0,-28.0,20.0,-28.0,-33.0,0.0
-32.0,-23.0,-119.0,36.0,-17.0,-4.0,-25.0,18.0,-16.0,-34.0,0.0
-33.0,-15.0,-128.0,117.0,23.0,4.0,-16.0,11.0,-10.0,-34.0,0.0
-27.0,-15.0,-74.0,125.0,49.0,15.0,11.0,20.0,8.0,-30.0,0.0
-23.0,-37.0,-14.0,57.0,42.0,16.0,29.0,28.0,31.0,-25.0,0.0
-29.0,-63.0,0.0,6.0,50.0,27.0,29.0,29.0,39.0,-28.0,0.0
-21.0,-55.0,21.0,-16.0,55.0,28.0,27.0,25.0,50.0,-11.0,0.0
7.0,-50.0,52.0,-52.0,34.0,26.0,21.0,36.0,70.0,16.0,0.0
0.0,-53.0,54.0,-116.0,-9.0,21.0,30.0,68.0,96.0,31.0,0.0
-6.0,-57.0,65.0,-103.0,-11.0,7.0,42.0,71.0,82.0,24.0,0.0
-5.0,-64.0,122.0,35.0,32.0,12.0,34.0,43.0,65.0,7.0,0.0
-16.0,-45.0,136.0,129.0,87.0,17.0,31.0,43.0,72.0,18.0,0.0
6.0,-3.0,156.0,78.0,81.0,15.0,29.0,39.0,42.0,27.0,0.0
22.0,11.0,127.0,11.0,48.0,11.0,12.0,31.0,30.0,31.0,0.0
21.0,4.0,72.0,-2.0,35.0,1.0,12.0,14.0,29.0,18.0,0.0
29.0,-1.0,32.0,16.0,27.0,-7.0,2.0,3.0,21.0,15.0,0.0
24.0,-6.0,-1.0,17.0,38.0,11.0,-12.0,20.0,25.0,23.0,0.0
27.0,-9.0,-24.0,33.0,52.0,23.0,-28.0,25.0,27.0,30.0,0.0
25.0,-18.0,-47.0,60.0,82.0,25.0,-39.0,3.0,20.0,31.0,0.0
-4.0,-51.0,-72.0,98.0,92.0,19.0,-49.0,-7.0,3.0,18.0,0.0
-32.0,-58.0,-61.0,121.0,69.0,0.0,-45.0,-10.0,-2.0,2.0,0.0
-24.0,-13.0,-21.0,78.0,14.0,-24.0,-40.0,-18.0,-2.0,5.0,0.0
9.0,83.0,6.0,40.0,-22.0,-39.0,-52.0,-16.0,-3.0,22.0,0.0
17.0,89.0,32.0,-13.0,-13.0,-15.0,-48.0,-17.0,2.0,22.0,0.0
23.0,20.0,53.0,-91.0,-15.0,16.0,-20.0,0.0,14.0,36.0,0.0
47.0,13.0,82.0,-118.0,-9.0,26.0,-9.0,24.0,45.0,63.0,0.0
67.0,49.0,138.0,-116.0,13.0,30.0,24.0,24.0,57.0,57.0,0.0
60.0,54.0,162.0,-122.0,9.0,30.0,64.0,30.0,70.0,43.0,0.0
68.0,58.0,111.0,-132.0,-8.0,29.0,67.0,28.0,84.0,41.0,0.0
81.0,73.0,103.0,-125.0,-9.0,9.0,44.0,16.0,77.0,28.0,0.0
80.0,60.0,137.0,-139.0,-27.0,-5.0,21.0,0.0,75.0,27.0,0.0
67.0,39.0,85.0,-110.0,-35.0,-18.0,0.0,-6.0,65.0,26.0,0.0
34.0,11.0,20.0,56.0,10.0,-19.0,8.0,-16.0,34.0,13.0,0.0
14.0,-8.0,-41.0,184.0,66.0,3.0,37.0,-23.0,34.0,6.0,0.0
4.0,-11.0,-126.0,108.0,64.0,16.0,22.0,-27.0,51.0,15.0,0.0
8.0,-8.0,-154.0,75.0,63.0,17.0,3.0,-32.0,38.0,14.0,0.0
5.0,-4.0,-108.0,74.0,88.0,13.0,0.0,-25.0,54.0,19.0,0.0
6.0,-2.0,-74.0,31.0,52.0,-3.0,-18.0,-16.0,56.0,18.0,0.0
19.0,0.0,-37.0,17.0,14.0,-2.0,-6.0,4.0,35.0,15.0,0.0
21.0,-8.0,4.0,38.0,42.0,20.0,27.0,44.0,20.0,11.0,0.0
27.0,-13.0,65.0,59.0,84.0,35.0,27.0,91.0,13.0,9.0,0.0
28.0,-7.0,68.0,67.0,102.0,39.0,5.0,88.0,13.0,23.0,0.0
23.0,-8.0,56.0,74.0,110.0,32.0,-11.0,33.0,16.0,17.0,0.0
36.0,7.0,74.0,82.0,88.0,8.0,-21.0,-7.0,-5.0,14.0,0.0
12.0,11.0,81.0,41.0,55.0,-3.0,-4.0,-17.0,-24.0,-6.0,0.0
-7.0,-4.0,60.0,9.0,17.0,-7.0,13.0,8.0,-34.0,-27.0,0.0
0.0,3.0,51.0,-16.0,-34.0,-24.0,-9.0,17.0,-25.0,-23.0,0.0
7.0,19.0,45.0,-68.0,-71.0,-24.0,-32.0,4.0,-22.0,-15.0,0.0
14.0,28.0,13.0,-80.0,-72.0,-20.0,-47.0,5.0,8.0,-2.0,0.0
9.0,3.0,-70.0,-43.0,-42.0,-8.0,-26.0,12.0,16.0,1.0,0.0
12.0,-20.0,-91.0,0.0,-7.0,29.0,7.0,43.0,34.0,16.0,0.0
30.0,-11.0,-101.0,-28.0,9.0,39.0,33.0,55.0,53.0,27.0,0.0
31.0,-6.0,-105.0,-82.0,-1.0,10.0,21.0,32.0,49.0,21.0,0.0
32.0,-11.0,-122.0,-94.0,-19.0,-2.0,3.0,13.0,45.0,16.0,0.0
22.0,-21.0,-107.0,-91.0,-10.0,9.0,0.0,-3.0,37.0,-5.0,0.0
10.0,-27.0,-80.0,-93.0,-1.0,27.0,19.0,-6.0,54.0,-8.0,0.0
22.0,-14.0,-1.0,-108.0,-23.0,28.0,22.0,9.0,62.0,24.0,0.0
4.0,-22.0,61.0,-91.0,-42.0,9.0,-5.0,7.0,54.0,28.0,0.0
-21.0,-34.0,68.0,86.0,-11.0,8.0,-16.0,-12.0,30.0,0.0,0.0
-28.0,-35.0,75.0,262.0,50.0,33.0,-13.0,-16.0,11.0,0.0,0.0
-21.0,-14.0,108.0,200.0,61.0,46.0,3.0,4.0,26.0,15.0,0.0
-23.0,-24.0,101.0,112.0,47.0,51.0,20.0,3.0,6.0,13.0,0.0
-11.0,-15.0,83.0,128.0,37.0,45.0,35.0,11.0,5.0,8.0,0.0
16.0,2.0,59.0,103.0,22.0,44.0,18.0,11.0,8.0,13.0,0.0
32.0,1.0,62.0,43.0,0.0,38.0,-9.0,12.0,3.0,22.0,0.0
59.0,9.0,44.0,34.0,-9.0,34.0,-18.0,14.0,5.0,37.0,0.0
69.0,18.0,6.0,33.0,9.0,27.0,-17.0,13.0,-2.0,34.0,0.0
65.0,28.0,-41.0,60.0,21.0,13.0,-11.0,6.0,-14.0,25.0,0.0
51.0,21.0,-142.0,61.0,13.0,8.0,-17.0,4.0,-34.0,22.0,0.0
24.0,5.0,-143.0,20.0,11.0,4.0,11.0,11.0,-25.0,13.0,0.0
7.0,13.0,-80.0,-15.0,9.0,16.0,7.0,16.0,-6.0,12.0,0.0
11.0,24.0,-54.0,-56.0,-22.0,2.0,2.0,23.0,7.0,31.0,0.0
19.0,15.0,-22.0,-64.0,-37.0,-10.0,9.0,31.0,17.0,26.0,0.0
-6.0,-5.0,-14.0,-52.0,-11.0,14.0,24.0,34.0,18.0,10.0,0.0
-25.0,-13.0,70.0,-30.0,9.0,41.0,22.0,13.0,18.0,-7.0,0.0
-7.0,-5.0,155.0,37.0,24.0,38.0,24.0,2.0,13.0,2.0,0.0
11.0,14.0,190.0,124.0,44.0,33.0,54.0,-2.0,8.0,21.0,0.0
1.0,40.0,187.0,131.0,39.0,23.0,51.0,-4.0,7.0,12.0,0.0
-5.0,53.0,142.0,118.0,21.0,1.0,28.0,-12.0,-10.0,-16.0,0.0
-14.0,54.0,96.0,128.0,24.0,-10.0,-25.0,-37.0,-31.0,-39.0,0.0
-27.0,54.0,38.0,132.0,42.0,-4.0,-59.0,-33.0,-26.0,-55.0,0.0
-20.0,21.0,26.0,105.0,59.0,10.0,-55.0,-15.0,-10.0,-31.0,0.0
14.0,8.0,15.0,30.0,35.0,13.0,-25.0,-10.0,13.0,12.0,0.0
34.0,14.0,-16.0,-28.0,11.0,8.0,2.0,-5.0,21.0,37.0,0.0
11.0,13.0,-80.0,-18.0,16.0,0.0,-13.0,-19.0,-15.0,26.0,0.0
0.0,-4.0,-128.0,-4.0,22.0,-4.0,-20.0,-19.0,-25.0,27.0,0.0
7.0,-27.0,-129.0,-59.0,3.0,-14.0,-13.0,10.0,-5.0,29.0,0.0
14.0,-50.0,-123.0,-154.0,-38.0,-11.0,-12.0,28.0,12.0,32.0,0.0
17.0,-45.0,-99.0,-189.0,-71.0,-9.0,-19.0,26.0,16.0,47.0,0.0
31.0,-10.0,-42.0,-158.0,-78.0,-19.0,-26.0,20.0,20.0,50.0,0.0
20.0,7.0,49.0,-108.0,-51.0,-32.0,-51.0,9.0,23.0,27.0,0.0
-4.0,-4.0,62.0,-69.0,-42.0,-29.0,-64.0,-3.0,10.0,5.0,0.0
-24.0,-20.0,59.0,-39.0,-25.0,-21.0,-57.0,-12.0,-27.0,-14.0,0.0
-37.0,-39.0,33.0,29.0,37.0,-7.0,-62.0,-29.0,-40.0,-44.0,0.0
-43.0,-50.0,-9.0,81.0,54.0,0.0,-63.0,-39.0,-38.0,-40.0,0.0
-18.0,-42.0,32.0,36.0,36.0,20.0,-44.0,-15.0,-25.0,-10.0,0.0
-9.0,-33.0,39.0,-2.0,33.0,18.0,-26.0,0.0,-8.0,6.0,0.0
-4.0,-24.0,-17.0,-49.0,23.0,21.0,-9.0,14.0,3.0,11.0,0.0
5.0,-3.0,-38.0,-79.0,-19.0,4.0,1.0,26.0,23.0,22.0,0.0
-5.0,-2.0,-32.0,-58.0,-44.0,-14.0,-10.0,20.0,40.0,20.0,0.0
-18.0,-18.0,-62.0,-53.0,-32.0,-22.0,-4.0,8.0,26.0,14.0,0.0
-30.0,-34.0,-91.0,-48.0,-7.0,-21.0,18.0,-3.0,9.0,5.0,0.0
-51.0,-48.0,-111.0,56.0,14.0,-29.0,18.0,-22.0,-11.0,-26.0,0.0
-53.0,-72.0,-120.0,92.0,-4.0,-32.0,34.0,-8.0,-11.0,-33.0,0.0
-31.0,-65.0,-106.0,9.0,-37.0,-37.0,39.0,21.0,4.0,-10.0,0.0
-28.0,-53.0,-100.0,-69.0,-73.0,-31.0,28.0,30.0,11.0,3.0,0.0
-11.0,-38.0,-55.0,-120.0,-108.0,-34.0,18.0,26.0,17.0,19.0,0.0
3.0,-27.0,54.0,-129.0,-108.0,-26.0,20.0,25.0,18.0,23.0,0.0
-4.0,-42.0,116.0,-105.0,-93.0,-10.0,22.0,32.0,33.0,17.0,0.0
-22.0,-71.0,126.0,-95.0,-80.0,-6.0,8.0,48.0,51.0,2.0,0.0
-31.0,-72.0,145.0,-79.0,-59.0,-8.0,17.0,43.0,31.0,-12.0,0.0
-15.0,-36.0,141.0,-59.0,-37.0,-6.0,40.0,18.0,0.0,-24.0,0.0
-7.0,14.0,97.0,12.0,-2.0,0.0,25.0,1.0,-12.0,-33.0,0.0
-17.0,42.0,18.0,104.0,22.0,-4.0,-34.0,3.0,-9.0,-35.0,0.0
3.0,36.0,-66.0,66.0,10.0,-18.0,-55.0,16.0,7.0,-23.0,0.0
39.0,47.0,-84.0,0.0,-14.0,-21.0,-70.0,12.0,23.0,2.0,0.0
29.0,37.0,-53.0,-44.0,-55.0,-42.0,-73.0,2.0,14.0,-8.0,0.0
20.0,29.0,-84.0,-76.0,-81.0,-54.0,-60.0,-9.0,-44.0,-19.0,0.0
14.0,25.0,-113.0,-67.0,-76.0,-41.0,-39.0,-9.0,12.0,-17.0,0.0
0.0,27.0,-110.0,-36.0,-63.0,-40.0,-38.0,4.0,56.0,-10.0,0.0
3.0,22.0,-64.0,-34.0,-51.0,-38.0,-37.0,1.0,50.0,-4.0,0.0
-3.0,3.0,-55.0,-16.0,-45.0,-39.0,-18.0,12.0,38.0,-3.0,0.0
-15.0,-14.0,-46.0,88.0,-7.0,-16.0,-21.0,16.0,39.0,-1.0,0.0
-23.0,-24.0,-13.0,186.0,62.0,27.0,-4.0,23.0,52.0,3.0,0.0
-27.0,-18.0,66.0,128.0,49.0,37.0,8.0,25.0,45.0,-5.0,0.0
-22.0,2.0,139.0,79.0,30.0,21.0,-4.0,16.0,43.0,-11.0,0.0
-13.0,12.0,144.0,67.0,33.0,23.0,11.0,15.0,47.0,-21.0,0.0
-15.0,-2.0,134.0,38.0,12.0,23.0,27.0,14.0,41.0,-21.0,0.0
-29.0,-8.0,114.0,30.0,0.0,2.0,16.0,11.0,36.0,-21.0,0.0
-51.0,-23.0,66.0,72.0,23.0,-7.0,-29.0,-6.0,15.0,-50.0,0.0
-64.0,-39.0,-20.0,107.0,61.0,-8.0,-58.0,-26.0,-26.0,-71.0,0.0
-62.0,-34.0,-97.0,95.0,49.0,-15.0,-58.0,-22.0,-28.0,-53.0,0.0
-60.0,-35.0,-126.0,119.0,31.0,-25.0,-37.0,-17.0,-21.0,-46.0,0.0
-70.0,-45.0,-125.0,154.0,26.0,-31.0,-16.0,-26.0,-22.0,-54.0,0.0
-86.0,-47.0,-142.0,103.0,25.0,-30.0,-40.0,-38.0,-30.0,-75.0,0.0
-112.0,-27.0,-191.0,35.0,3.0,-30.0,-71.0,-55.0,-67.0,-98.0,0.0
-106.0,-21.0,-212.0,-78.0,-62.0,-44.0,-103.0,-78.0,-94.0,-119.0,0.0
-77.0,-43.0,-148.0,-228.0,-141.0,-67.0,-112.0,-85.0,-74.0,-122.0,0.0
-52.0,-54.0,-102.0,-244.0,-140.0,-75.0,-102.0,-82.0,-56.0,-108.0,0.0
-38.0,-43.0,-79.0,-159.0,-96.0,-71.0,-97.0,-70.0,-99.0,-109.0,0.0
-36.0,-15.0,-41.0,-80.0,-92.0,-68.0,-90.0,-37.0,-84.0,-132.0,0.0
-47.0,6.0,6.0,-38.0,-70.0,-60.0,-47.0,1.0,-59.0,-161.0,0.0
-74.0,-5.0,37.0,23.0,-28.0,-41.0,-35.0,37.0,-64.0,-171.0,0.0
-88.0,-16.0,63.0,157.0,30.0,0.0,-34.0,-1.0,-91.0,-152.0,0.0
-78.0,-18.0,93.0,122.0,51.0,20.0,-53.0,-75.0,-131.0,-66.0,0.0
-35.0,-5.0,83.0,-3.0,-11.0,-2.0,-62.0,-86.0,-108.0,38.0,0.0
5.0,11.0,61.0,-64.0,-83.0,-26.0,-46.0,-54.0,-50.0,39.0,0.0
13.0,1.0,6.0,-83.0,-104.0,-40.0,-45.0,-24.0,-35.0,-3.0,0.0
13.0,-9.0,-99.0,-58.0,-76.0,-46.0,-38.0,-14.0,-37.0,-23.0,0.0
0.0,-10.0,-126.0,-40.0,-58.0,-58.0,-16.0,-23.0,-39.0,-31.0,0.0
-3.0,-17.0,-82.0,-59.0,-42.0,-51.0,-18.0,-17.0,-21.0,-30.0,0.0
-11.0,-28.0,-73.0,-64.0,-32.0,-39.0,-36.0,-12.0,-5.0,-22.0,0.0
-17.0,-30.0,-67.0,-90.0,-38.0,-27.0,-39.0,-23.0,-2.0,-36.0,0.0
-48.0,-41.0,-65.0,-123.0,-21.0,-18.0,-23.0,-30.0,0.0,-44.0,0.0
-68.0,-59.0,-114.0,-117.0,0.0,-27.0,-13.0,-19.0,-6.0,-41.0,0.0
-69.0,-59.0,-102.0,-96.0,-5.0,-39.0,-30.0,-11.0,-11.0,-35.0,0.0
-63.0,-44.0,-43.0,-95.0,-8.0,-38.0,-62.0,-8.0,-8.0,-30.0,0.0
-65.0,-29.0,-50.0,-78.0,-5.0,-39.0,-44.0,-27.0,-12.0,-32.0,0.0
-68.0,-14.0,27.0,-61.0,-12.0,-40.0,-19.0,-37.0,-15.0,-38.0,0.0
-64.0,-30.0,103.0,-81.0,-25.0,-28.0,-8.0,-25.0,-28.0,-30.0,0.0
-55.0,-49.0,81.0,-91.0,-52.0,-39.0,-22.0,-27.0,-91.0,-29.0,0.0
-60.0,-42.0,74.0,-10.0,-53.0,-49.0,-51.0,-20.0,-19.0,-36.0,0.0
-53.0,-28.0,106.0,57.0,-17.0,-36.0,-54.0,-23.0,-4.0,-34.0,0.0
-40.0,-25.0,73.0,16.0,24.0,-19.0,-41.0,-16.0,-6.0,-21.0,0.0
-29.0,-31.0,23.0,-41.0,36.0,-12.0,-31.0,3.0,40.0,13.0,0.0
-14.0,-47.0,-40.0,-111.0,8.0,3.0,-19.0,16.0,40.0,19.0,0.0
4.0,-55.0,-75.0,-123.0,3.0,24.0,-18.0,17.0,36.0,15.0,0.0
15.0,-54.0,-80.0,-102.0,-4.0,25.0,-3.0,36.0,42.0,26.0,0.0
1.0,-51.0,-66.0,-38.0,0.0,25.0,12.0,48.0,39.0,41.0,0.0
-9.0,-50.0,-55.0,3.0,-10.0,6.0,17.0,46.0,21.0,31.0,0.0
-26.0,-48.0,-63.0,93.0,-18.0,-3.0,28.0,1.0,-21.0,-3.0,0.0
-25.0,-43.0,-83.0,83.0,-31.0,-13.0,26.0,-23.0,-38.0,-18.0,0.0
-11.0,-39.0,-114.0,21.0,-43.0,-20.0,12.0,-20.0,-25.0,5.0,0.0
-15.0,-31.0,-27.0,-2.0,-33.0,-22.0,-10.0,-14.0,-19.0,13.0,0.0
-37.0,-44.0,23.0,29.0,2.0,-7.0,-24.0,6.0,-38.0,-9.0,0.0
-50.0,-59.0,41.0,62.0,33.0,12.0,-13.0,18.0,-48.0,-46.0,0.0
-51.0,-51.0,129.0,70.0,44.0,14.0,-13.0,8.0,-38.0,-49.0,0.0
-45.0,-39.0,170.0,68.0,40.0,15.0,-15.0,-9.0,-28.0,-44.0,0.0
-35.0,-42.0,156.0,50.0,33.0,14.0,-9.0,-16.0,-9.0,-38.0,0.0
-36.0,-45.0,95.0,28.0,8.0,-4.0,-15.0,6.0,3.0,-18.0,0.0
-11.0,-27.0,28.0,37.0,0.0,-17.0,-20.0,11.0,0.0,-8.0,0.0
-14.0,-21.0,-22.0,53.0,6.0,-19.0,-8.0,8.0,0.0,-13.0,0.0
-15.0,-30.0,-73.0,46.0,28.0,-11.0,12.0,0.0,9.0,-16.0,0.0
-13.0,-31.0,-137.0,19.0,27.0,-4.0,17.0,-8.0,5.0,-10.0,0.0
-27.0,-21.0,-148.0,8.0,32.0,-9.0,2.0,-6.0,6.0,-2.0,0.0
-49.0,-29.0,-96.0,27.0,56.0,1.0,0.0,-8.0,17.0,-4.0,0.0
-53.0,-26.0,-78.0,49.0,77.0,16.0,5.0,-17.0,9.0,-31.0,0.0
-47.0,7.0,-64.0,52.0,55.0,18.0,-1.0,-33.0,5.0,-48.0,0.0
-51.0,13.0,-42.0,-1.0,11.0,-1.0,6.0,-34.0,8.0,-51.0,0.0
-71.0,2.0,-11.0,-14.0,-23.0,-35.0,21.0,-36.0,9.0,-51.0,0.0
-70.0,-13.0,30.0,4.0,-44.0,-58.0,13.0,-58.0,-10.0,-61.0,0.0
-55.0,-12.0,55.0,-48.0,-62.0,-87.0,-22.0,-70.0,-32.0,-63.0,0.0
-19.0,17.0,68.0,-161.0,-104.0,-104.0,-37.0,-63.0,-26.0,-47.0,0.0
44.0,63.0,127.0,-239.0,-127.0,-106.0,-35.0,-48.0,3.0,-19.0,0.0
47.0,36.0,163.0,-238.0,-123.0,-97.0,-30.0,-28.0,42.0,4.0,0.0
22.0,-25.0,159.0,-108.0,-57.0,-69.0,-1.0,-13.0,85.0,6.0,0.0
34.0,-37.0,112.0,124.0,22.0,-16.0,10.0,-2.0,84.0,14.0,0.0
67.0,-9.0,68.0,274.0,89.0,41.0,48.0,29.0,100.0,45.0,0.0
94.0,9.0,21.0,205.0,65.0,44.0,40.0,56.0,95.0,64.0,0.0
76.0,-12.0,-28.0,73.0,35.0,33.0,26.0,55.0,77.0,59.0,0.0
46.0,-18.0,-82.0,41.0,29.0,33.0,27.0,42.0,67.0,44.0,0.0
54.0,2.0,-116.0,-26.0,0.0,26.0,36.0,30.0,62.0,41.0,0.0
75.0,6.0,-72.0,-86.0,-25.0,25.0,66.0,40.0,72.0,63.0,0.0
79.0,-7.0,-17.0,-81.0,-5.0,26.0,77.0,54.0,82.0,77.0,0.0
67.0,-8.0,-23.0,-59.0,13.0,31.0,62.0,61.0,82.0,76.0,0.0
46.0,-15.0,-9.0,-50.0,6.0,22.0,38.0,67.0,72.0,65.0,0.0
46.0,-4.0,-13.0,-50.0,-15.0,15.0,32.0,68.0,69.0,53.0,0.0
44.0,9.0,20.0,-36.0,-51.0,7.0,26.0,65.0,71.0,53.0,0.0
19.0,-3.0,65.0,-13.0,-49.0,6.0,26.0,55.0,66.0,43.0,0.0
-15.0,-7.0,83.0,-10.0,-15.0,20.0,33.0,51.0,61.0,29.0,0.0
-16.0,2.0,97.0,-27.0,-6.0,15.0,48.0,42.0,42.0,17.0,0.0
20.0,36.0,124.0,-14.0,-16.0,-1.0,50.0,43.0,37.0,15.0,0.0
40.0,72.0,129.0,7.0,-6.0,-10.0,12.0,24.0,14.0,16.0,0.0
51.0,74.0,85.0,19.0,10.0,-22.0,-6.0,9.0,10.0,8.0,0.0
41.0,75.0,40.0,29.0,27.0,-14.0,-8.0,0.0,3.0,7.0,0.0
39.0,72.0,-21.0,47.0,39.0,2.0,13.0,-11.0,-4.0,0.0,0.0
27.0,67.0,-83.0,57.0,53.0,-3.0,24.0,-4.0,-8.0,-3.0,0.0
39.0,62.0,-118.0,62.0,56.0,0.0,38.0,4.0,-1.0,10.0,0.0
37.0,68.0,-145.0,62.0,61.0,3.0,27.0,6.0,15.0,18.0,0.0
47.0,73.0,-114.0,35.0,48.0,12.0,29.0,29.0,47.0,22.0,0.0
57.0,39.0,-52.0,0.0,6.0,21.0,43.0,48.0,41.0,27.0,0.0
58.0,28.0,-13.0,-6.0,-8.0,44.0,55.0,55.0,32.0,45.0,0.0
52.0,39.0,10.0,0.0,-13.0,41.0,53.0,54.0,28.0,38.0,0.0
47.0,31.0,21.0,22.0,0.0,36.0,49.0,39.0,26.0,36.0,0.0
42.0,11.0,30.0,36.0,27.0,38.0,47.0,37.0,30.0,38.0,0.0
46.0,8.0,68.0,28.0,38.0,43.0,40.0,31.0,42.0,36.0,0.0
62.0,18.0,87.0,-7.0,14.0,51.0,30.0,24.0,46.0,63.0,0.0
60.0,14.0,66.0,-53.0,3.0,40.0,21.0,8.0,38.0,73.0,0.0
47.0,9.0,88.0,-65.0,11.0,28.0,1.0,-3.0,27.0,67.0,0.0
36.0,26.0,51.0,-78.0,10.0,18.0,-7.0,-8.0,8.0,60.0,0.0
40.0,40.0,-17.0,-90.0,-18.0,4.0,-31.0,-6.0,-16.0,63.0,0.0
53.0,30.0,-96.0,-96.0,-24.0,-3.0,-47.0,24.0,-59.0,79.0,0.0
47.0,11.0,-97.0,-64.0,6.0,21.0,-5.0,78.0,3.0,71.0,0.0
20.0,-5.0,-113.0,34.0,55.0,57.0,21.0,130.0,26.0,58.0,0.0
1.0,-23.0,-124.0,137.0,107.0,75.0,37.0,124.0,32.0,51.0,0.0
-12.0,-17.0,-116.0,176.0,130.0,75.0,60.0,67.0,14.0,48.0,0.0
0.0,-3.0,-77.0,178.0,120.0,68.0,67.0,34.0,2.0,58.0,0.0
23.0,16.0,5.0,169.0,104.0,56.0,60.0,36.0,2.0,59.0,0.0
41.0,36.0,41.0,141.0,87.0,44.0,40.0,37.0,10.0,81.0,0.0
48.0,37.0,61.0,102.0,62.0,53.0,36.0,47.0,23.0,91.0,0.0
33.0,52.0,101.0,98.0,38.0,57.0,50.0,32.0,25.0,67.0,0.0
47.0,115.0,125.0,109.0,51.0,55.0,48.0,13.0,6.0,57.0,0.0
61.0,160.0,118.0,101.0,76.0,54.0,48.0,5.0,-6.0,58.0,0.0
43.0,134.0,128.0,93.0,70.0,47.0,44.0,15.0,-1.0,64.0,0.0
30.0,84.0,142.0,66.0,41.0,14.0,40.0,16.0,18.0,74.0,0.0
37.0,67.0,146.0,56.0,16.0,-4.0,41.0,-4.0,17.0,70.0,0.0
49.0,87.0,65.0,24.0,18.0,3.0,54.0,8.0,37.0,75.0,0.0
66.0,84.0,-16.0,-32.0,0.0,22.0,58.0,48.0,65.0,96.0,0.0
70.0,69.0,16.0,-65.0,-15.0,37.0,43.0,61.0,78.0,114.0,0.0
58.0,71.0,14.0,-49.0,-6.0,27.0,28.0,45.0,75.0,107.0,0.0
53.0,86.0,-21.0,-29.0,-2.0,13.0,16.0,31.0,69.0,107.0,0.0
50.0,104.0,-69.0,-22.0,-6.0,8.0,8.0,27.0,50.0,112.0,0.0
42.0,97.0,-139.0,9.0,16.0,26.0,-1.0,22.0,21.0,90.0,0.0
25.0,65.0,-130.0,52.0,36.0,30.0,2.0,13.0,13.0,59.0,0.0
9.0,53.0,-38.0,48.0,43.0,23.0,9.0,16.0,27.0,68.0,0.0
-15.0,37.0,47.0,41.0,43.0,12.0,-8.0,9.0,32.0,54.0,0.0
-29.0,32.0,85.0,45.0,40.0,7.0,-14.0,-3.0,12.0,44.0,0.0
-31.0,42.0,97.0,48.0,15.0,4.0,-16.0,-2.0,15.0,45.0,0.0
-20.0,47.0,127.0,53.0,-2.0,0.0,-14.0,12.0,33.0,49.0,0.0
-15.0,50.0,140.0,41.0,-3.0,6.0,-5.0,20.0,24.0,54.0,0.0
2.0,47.0,119.0,65.0,25.0,11.0,-8.0,15.0,19.0,63.0,0.0
11.0,50.0,114.0,102.0,68.0,12.0,19.0,16.0,15.0,61.0,0.0
6.0,67.0,114.0,135.0,98.0,18.0,51.0,8.0,3.0,50.0,0.0
4.0,50.0,46.0,172.0,114.0,31.0,58.0,11.0,15.0,35.0,0.0
-1.0,32.0,-29.0,158.0,125.0,39.0,62.0,18.0,20.0,34.0,0.0
-5.0,24.0,-9.0,74.0,126.0,46.0,66.0,17.0,9.0,27.0,0.0
12.0,15.0,-15.0,-50.0,73.0,30.0,43.0,14.0,0.0,29.0,0.0
7.0,16.0,-66.0,-178.0,-11.0,-10.0,21.0,10.0,-4.0,27.0,0.0
8.0,34.0,-88.0,-204.0,-83.0,-28.0,38.0,7.0,9.0,32.0,0.0
-4.0,31.0,-95.0,-10.0,-62.0,-29.0,33.0,-2.0,-9.0,26.0,0.0
-9.0,10.0,-70.0,67.0,-51.0,-23.0,21.0,-10.0,-41.0,17.0,0.0
10.0,-3.0,-7.0,-43.0,-94.0,-17.0,10.0,7.0,-25.0,29.0,0.0
14.0,-2.0,64.0,-122.0,-114.0,-18.0,-8.0,14.0,13.0,44.0,0.0
10.0,-14.0,96.0,-40.0,-68.0,-9.0,17.0,6.0,-1.0,20.0,0.0
2.0,-4.0,125.0,141.0,11.0,23.0,26.0,4.0,-20.0,-11.0,0.0
4.0,0.0,133.0,191.0,44.0,48.0,29.0,20.0,-16.0,-6.0,0.0
15.0,7.0,140.0,106.0,19.0,21.0,13.0,25.0,-10.0,21.0,0.0
14.0,3.0,141.0,34.0,-18.0,5.0,-14.0,7.0,-20.0,22.0,0.0
1.0,-13.0,117.0,15.0,-21.0,-9.0,-34.0,-2.0,-30.0,1.0,0.0
0.0,-25.0,72.0,13.0,-23.0,-38.0,-50.0,-11.0,-45.0,-7.0,0.0
-14.0,-52.0,25.0,15.0,0.0,-30.0,-56.0,-17.0,-50.0,-22.0,0.0
-39.0,-61.0,-14.0,41.0,32.0,-11.0,-49.0,-36.0,-62.0,-42.0,0.0
-52.0,-61.0,-58.0,79.0,36.0,-9.0,-55.0,-51.0,-66.0,-47.0,0.0
-65.0,-64.0,-78.0,97.0,40.0,-20.0,-55.0,-57.0,-67.0,-49.0,0.0
-54.0,-37.0,-114.0,87.0,47.0,-15.0,-44.0,-58.0,-55.0,-54.0,0.0
-16.0,-2.0,-133.0,11.0,-11.0,-18.0,-23.0,-28.0,-27.0,-27.0,0.0
23.0,27.0,-114.0,-41.0,-73.0,-26.0,-7.0,6.0,6.0,20.0,0.0
47.0,23.0,-78.0,15.0,-9.0,5.0,4.0,19.0,17.0,38.0,0.0
29.0,2.0,-14.0,7.0,29.0,34.0,57.0,22.0,16.0,28.0,0.0
6.0,-15.0,62.0,-26.0,11.0,14.0,73.0,15.0,25.0,18.0,0.0
17.0,-19.0,95.0,-47.0,-9.0,2.0,71.0,20.0,35.0,9.0,0.0
28.0,-1.0,121.0,-69.0,-28.0,0.0,46.0,16.0,37.0,14.0,0.0
1.0,0.0,135.0,-84.0,-61.0,-1.0,43.0,37.0,27.0,0.0,0.0
-28.0,2.0,133.0,-90.0,-79.0,4.0,49.0,55.0,23.0,-28.0,0.0
-26.0,13.0,120.0,-68.0,-76.0,-2.0,20.0,40.0,23.0,-23.0,0.0
-22.0,3.0,81.0,-55.0,-59.0,-1.0,-8.0,29.0,22.0,-21.0,0.0
-18.0,-3.0,31.0,-50.0,-48.0,-3.0,-7.0,20.0,31.0,-21.0,0.0
-1.0,-2.0,13.0,-44.0,-44.0,-18.0,-12.0,3.0,31.0,-25.0,0.0
-8.0,2.0,-16.0,-23.0,-33.0,-27.0,-14.0,-3.0,2.0,-21.0,0.0
1.0,9.0,-60.0,-17.0,-18.0,-26.0,-5.0,7.0,-42.0,-10.0,0.0
17.0,26.0,-85.0,4.0,-7.0,-19.0,3.0,4.0,5.0,-6.0,0.0
9.0,18.0,-102.0,4.0,13.0,-8.0,5.0,-10.0,5.0,-19.0,0.0
-16.0,-4.0,-185.0,-7.0,26.0,5.0,-3.0,-21.0,-15.0,-37.0,0.0
-12.0,-7.0,-177.0,-30.0,14.0,6.0,-12.0,-27.0,-9.0,-23.0,0.0
-11.0,-12.0,-86.0,-48.0,-8.0,-6.0,-18.0,-18.0,-5.0,-14.0,0.0
-19.0,-6.0,-48.0,-60.0,-32.0,-25.0,-12.0,-11.0,-2.0,-26.0,0.0
-30.0,-15.0,1.0,13.0,-38.0,-40.0,-25.0,-21.0,-11.0,-20.0,0.0
-19.0,-36.0,45.0,93.0,-21.0,-41.0,-27.0,-24.0,-22.0,-38.0,0.0
-9.0,-42.0,71.0,71.0,-9.0,-29.0,-25.0,-24.0,-21.0,-47.0,0.0
-29.0,-42.0,71.0,64.0,-1.0,-26.0,-44.0,-27.0,-25.0,-52.0,0.0
-31.0,-34.0,64.0,28.0,-8.0,-14.0,-36.0,-15.0,-19.0,-44.0,0.0
-14.0,-20.0,67.0,13.0,-6.0,-20.0,-17.0,-3.0,-2.0,-31.0,0.0
-8.0,-19.0,39.0,40.0,-6.0,-27.0,-21.0,-22.0,3.0,-41.0,0.0
-13.0,-35.0,-36.0,39.0,-8.0,-36.0,-20.0,-42.0,-14.0,-62.0,0.0
-18.0,-47.0,-77.0,29.0,-20.0,-53.0,-23.0,-51.0,-28.0,-73.0,0.0
-24.0,-61.0,-113.0,6.0,-16.0,-40.0,-18.0,-35.0,-30.0,-58.0,0.0
-25.0,-55.0,-118.0,-29.0,5.0,-13.0,-5.0,-16.0,1.0,-31.0,0.0
-3.0,16.0,-143.0,-39.0,21.0,-2.0,-5.0,-13.0,11.0,-22.0,0.0
6.0,79.0,-131.0,-4.0,39.0,3.0,-3.0,-18.0,8.0,-20.0,0.0
11.0,99.0,-92.0,6.0,81.0,12.0,16.0,10.0,63.0,-1.0,0.0
22.0,66.0,-86.0,-13.0,53.0,7.0,33.0,22.0,58.0,0.0,0.0
41.0,36.0,-59.0,-50.0,-6.0,-12.0,34.0,7.0,30.0,10.0,0.0
54.0,48.0,-13.0,-63.0,-10.0,-16.0,44.0,12.0,43.0,28.0,0.0
38.0,45.0,95.0,-24.0,14.0,1.0,48.0,23.0,39.0,26.0,0.0
53.0,54.0,178.0,20.0,41.0,7.0,49.0,20.0,22.0,17.0,0.0
51.0,46.0,193.0,0.0,39.0,21.0,26.0,17.0,1.0,-4.0,0.0
21.0,17.0,173.0,-43.0,15.0,18.0,1.0,9.0,-14.0,-20.0,0.0
22.0,-15.0,133.0,-72.0,-30.0,8.0,-10.0,6.0,0.0,-13.0,0.0
20.0,-33.0,95.0,-71.0,-55.0,17.0,-2.0,24.0,20.0,-5.0,0.0
16.0,-30.0,48.0,17.0,-19.0,26.0,12.0,23.0,-6.0,-34.0,0.0
5.0,-29.0,-18.0,91.0,28.0,38.0,31.0,19.0,-18.0,-56.0,0.0
14.0,-22.0,-79.0,140.0,47.0,35.0,39.0,20.0,4.0,-41.0,0.0
5.0,-20.0,-103.0,143.0,65.0,36.0,26.0,19.0,14.0,-18.0,0.0
-16.0,-34.0,-99.0,89.0,43.0,32.0,13.0,13.0,12.0,-18.0,0.0
-28.0,-53.0,-98.0,56.0,-5.0,17.0,-2.0,17.0,-8.0,-22.0,0.0
-15.0,-48.0,-98.0,25.0,-29.0,-2.0,-3.0,24.0,-8.0,-12.0,0.0
2.0,-27.0,-85.0,-17.0,-21.0,-5.0,2.0,20.0,-11.0,8.0,0.0
-12.0,0.0,-65.0,-37.0,-25.0,1.0,14.0,5.0,-20.0,7.0,0.0
0.0,38.0,-20.0,-55.0,-55.0,-20.0,-8.0,7.0,-19.0,7.0,0.0
0.0,53.0,-11.0,-46.0,-75.0,-47.0,-36.0,-3.0,-18.0,-10.0,0.0
12.0,58.0,-6.0,2.0,-52.0,-57.0,-43.0,-34.0,-28.0,-31.0,0.0
22.0,69.0,57.0,4.0,-43.0,-46.0,-38.0,-43.0,-29.0,-27.0,0.0
20.0,62.0,126.0,-61.0,-31.0,3.0,-10.0,-13.0,-7.0,-11.0,0.0
18.0,55.0,137.0,-78.0,-14.0,31.0,5.0,-8.0,11.0,-1.0,0.0
25.0,40.0,129.0,-77.0,-12.0,29.0,8.0,-17.0,9.0,3.0,0.0
34.0,31.0,95.0,-99.0,-22.0,11.0,6.0,-10.0,17.0,8.0,0.0
26.0,23.0,32.0,-144.0,-39.0,-7.0,-2.0,-11.0,26.0,10.0,0.0
17.0,11.0,-35.0,-193.0,-54.0,-12.0,8.0,-1.0,20.0,17.0,0.0
7.0,1.0,-82.0,-189.0,-51.0,-11.0,26.0,3.0,33.0,12.0,0.0
-7.0,-4.0,-90.0,-99.0,-27.0,-2.0,1.0,-31.0,-6.0,-20.0,0.0
-2.0,2.0,-91.0,4.0,-1.0,18.0,-24.0,-52.0,-22.0,-33.0,0.0
-3.0,3.0,-112.0,1.0,5.0,24.0,-20.0,-56.0,-24.0,-15.0,0.0
3.0,14.0,-110.0,49.0,5.0,21.0,-15.0,-53.0,-13.0,-5.0,0.0
20.0,11.0,-76.0,144.0,19.0,31.0,-8.0,-30.0,6.0,7.0,0.0
28.0,5.0,-46.0,124.0,36.0,39.0,8.0,-9.0,15.0,28.0,0.0
17.0,-17.0,-18.0,50.0,42.0,37.0,12.0,-16.0,8.0,24.0,0.0
1.0,-21.0,15.0,6.0,49.0,27.0,15.0,-33.0,-9.0,-2.0,0.0
8.0,-33.0,58.0,-7.0,35.0,18.0,2.0,-37.0,-21.0,-14.0,0.0
1.0,-56.0,104.0,-17.0,27.0,27.0,0.0,-34.0,-23.0,-6.0,0.0
-12.0,-69.0,132.0,-14.0,35.0,25.0,19.0,-32.0,-30.0,-10.0,0.0
-30.0,-74.0,120.0,-3.0,34.0,25.0,38.0,-35.0,-24.0,-22.0,0.0
-27.0,-56.0,88.0,-11.0,-6.0,26.0,37.0,-17.0,-16.0,-7.0,0.0
1.0,-8.0,50.0,-24.0,-33.0,13.0,36.0,2.0,-3.0,11.0,0.0
8.0,11.0,0.0,-18.0,-22.0,4.0,37.0,17.0,12.0,12.0,0.0
1.0,22.0,-51.0,-17.0,-6.0,22.0,53.0,36.0,21.0,20.0,0.0
11.0,30.0,-144.0,-7.0,2.0,42.0,66.0,44.0,25.0,44.0,0.0
21.0,27.0,-138.0,-20.0,6.0,38.0,55.0,47.0,42.0,47.0,0.0
-6.0,7.0,-73.0,-5.0,19.0,20.0,15.0,40.0,41.0,40.0,0.0
-53.0,-27.0,-107.0,98.0,41.0,11.0,-25.0,3.0,-16.0,-24.0,0.0
-74.0,-30.0,-136.0,150.0,29.0,-9.0,-56.0,-32.0,-52.0,-61.0,0.0
-37.0,-11.0,-122.0,17.0,-61.0,-36.0,-50.0,-20.0,-16.0,-26.0,0.0
-10.0,17.0,-82.0,-87.0,-113.0,-52.0,-57.0,-8.0,2.0,4.0,0.0
-16.0,48.0,-36.0,-65.0,-50.0,-41.0,-61.0,2.0,30.0,11.0,0.0
-20.0,52.0,6.0,11.0,-2.0,-29.0,-51.0,0.0,26.0,3.0,0.0
2.0,39.0,67.0,74.0,10.0,5.0,-18.0,17.0,35.0,10.0,0.0
16.0,11.0,145.0,48.0,34.0,41.0,20.0,27.0,49.0,12.0,0.0
4.0,-7.0,169.0,-3.0,5.0,41.0,40.0,13.0,44.0,8.0,0.0
15.0,-18.0,132.0,-37.0,-26.0,11.0,30.0,-23.0,32.0,2.0,0.0
0.0,-29.0,44.0,-34.0,-30.0,-7.0,15.0,-43.0,11.0,-4.0,0.0
-21.0,-43.0,9.0,-1.0,-10.0,-6.0,3.0,-47.0,-2.0,-18.0,0.0
-5.0,-33.0,-35.0,0.0,-9.0,-6.0,-7.0,-44.0,-11.0,-10.0,0.0
23.0,-14.0,-74.0,0.0,-9.0,-12.0,-28.0,-11.0,-7.0,4.0,0.0
18.0,-9.0,-105.0,7.0,-7.0,-24.0,-40.0,43.0,-10.0,12.0,0.0
15.0,-8.0,-96.0,-19.0,-6.0,-19.0,-11.0,84.0,-17.0,7.0,0.0
24.0,1.0,-50.0,-22.0,2.0,-10.0,12.0,71.0,-9.0,10.0,0.0
24.0,6.0,-32.0,-9.0,-2.0,-15.0,8.0,16.0,-7.0,18.0,0.0
18.0,3.0,-39.0,7.0,-12.0,-24.0,2.0,-3.0,-8.0,30.0,0.0
12.0,-16.0,-27.0,-4.0,-8.0,-19.0,24.0,-7.0,-10.0,18.0,0.0
3.0,-24.0,0.0,-14.0,14.0,0.0,32.0,-6.0,-13.0,18.0,0.0
-13.0,-8.0,17.0,-3.0,22.0,5.0,32.0,-4.0,-15.0,20.0,0.0
-43.0,-6.0,40.0,-5.0,21.0,3.0,33.0,-7.0,-7.0,8.0,0.0
-33.0,-17.0,62.0,-19.0,11.0,3.0,27.0,-5.0,-3.0,14.0,0.0
-24.0,-5.0,113.0,-18.0,20.0,-9.0,11.0,-1.0,-15.0,15.0,0.0
-23.0,-1.0,143.0,-4.0,28.0,-22.0,-3.0,-13.0,-32.0,3.0,0.0
-18.0,-2.0,105.0,23.0,34.0,-9.0,-15.0,-25.0,-28.0,-4.0,0.0
-11.0,0.0,58.0,58.0,35.0,0.0,-33.0,-41.0,-33.0,-6.0,0.0
2.0,0.0,43.0,70.0,36.0,1.0,-61.0,-48.0,-41.0,-6.0,0.0
6.0,-8.0,0.0,67.0,46.0,5.0,-73.0,-43.0,-46.0,-4.0,0.0
-18.0,-32.0,-59.0,25.0,36.0,-2.0,-60.0,-27.0,-36.0,0.0,0.0
-6.0,-43.0,-114.0,-45.0,-13.0,-24.0,-37.0,-9.0,-13.0,3.0,0.0
12.0,-12.0,-144.0,-85.0,-43.0,-31.0,-31.0,16.0,-2.0,11.0,0.0
37.0,17.0,-106.0,-89.0,-23.0,-23.0,-26.0,28.0,23.0,23.0,0.0
44.0,4.0,-86.0,-92.0,-33.0,-22.0,6.0,24.0,44.0,39.0,0.0
51.0,7.0,-88.0,-95.0,-47.0,-35.0,26.0,32.0,62.0,58.0,0.0
47.0,0.0,0.0,-87.0,-60.0,-60.0,23.0,31.0,40.0,64.0,0.0
47.0,-24.0,-14.0,-81.0,-58.0,-57.0,-1.0,22.0,23.0,63.0,0.0
41.0,-26.0,5.0,-62.0,-49.0,-56.0,-39.0,12.0,6.0,47.0,0.0
24.0,-30.0,99.0,-26.0,-21.0,-44.0,-62.0,-5.0,-12.0,29.0,0.0
4.0,-56.0,152.0,-30.0,21.0,-24.0,-63.0,-11.0,-15.0,4.0,0.0
-20.0,-75.0,171.0,-55.0,21.0,-28.0,-47.0,-4.0,-8.0,-11.0,0.0
-20.0,-65.0,182.0,23.0,31.0,-20.0,-49.0,-21.0,-17.0,-22.0,0.0
-10.0,-56.0,161.0,93.0,40.0,-7.0,-57.0,-30.0,-26.0,-23.0,0.0
1.0,-19.0,121.0,33.0,-4.0,-30.0,-58.0,-32.0,-17.0,-18.0,0.0
21.0,45.0,51.0,-20.0,-57.0,-48.0,-28.0,-23.0,-5.0,-6.0,0.0
35.0,54.0,16.0,7.0,-59.0,-38.0,-5.0,-16.0,8.0,20.0,0.0
33.0,10.0,-12.0,83.0,-20.0,-15.0,6.0,-11.0,11.0,25.0,0.0
27.0,-9.0,-34.0,76.0,-15.0,0.0,9.0,12.0,17.0,25.0,0.0
26.0,-6.0,36.0,19.0,-23.0,-23.0,16.0,14.0,2.0,28.0,0.0
19.0,-8.0,47.0,15.0,-27.0,-14.0,15.0,15.0,10.0,25.0,0.0
12.0,-18.0,57.0,7.0,-28.0,-15.0,11.0,17.0,18.0,25.0,0.0
22.0,-15.0,93.0,-6.0,-14.0,-13.0,5.0,20.0,22.0,31.0,0.0
31.0,-3.0,124.0,4.0,-6.0,-20.0,-11.0,19.0,21.0,37.0,0.0
28.0,4.0,147.0,12.0,-13.0,-16.0,-24.0,16.0,16.0,34.0,0.0
8.0,4.0,173.0,4.0,-6.0,-8.0,-12.0,14.0,27.0,30.0,0.0
-7.0,6.0,160.0,4.0,2.0,-13.0,14.0,12.0,25.0,30.0,0.0
-23.0,-8.0,110.0,7.0,5.0,-6.0,14.0,5.0,0.0,22.0,0.0
-35.0,-21.0,50.0,3.0,-5.0,-6.0,20.0,6.0,-14.0,20.0,0.0
-49.0,-31.0,-9.0,-4.0,-2.0,0.0,4.0,9.0,-18.0,10.0,0.0
-64.0,-51.0,-51.0,0.0,5.0,12.0,2.0,4.0,-12.0,7.0,0.0
-69.0,-72.0,-82.0,-6.0,2.0,12.0,5.0,17.0,-4.0,2.0,0.0
-68.0,-64.0,-117.0,-34.0,-5.0,11.0,-2.0,23.0,1.0,16.0,0.0
-60.0,-62.0,-103.0,-42.0,-6.0,15.0,-7.0,20.0,28.0,25.0,0.0
-49.0,-64.0,-76.0,-21.0,6.0,18.0,-11.0,13.0,27.0,27.0,0.0
-68.0,-56.0,-34.0,11.0,3.0,20.0,2.0,-6.0,16.0,1.0,0.0
-84.0,-60.0,-5.0,75.0,23.0,19.0,17.0,-3.0,10.0,-5.0,0.0
-107.0,-46.0,4.0,164.0,83.0,12.0,16.0,-24.0,-26.0,-29.0,0.0
-111.0,-2.0,21.0,215.0,124.0,9.0,8.0,-75.0,-72.0,-64.0,0.0
-127.0,5.0,37.0,213.0,145.0,18.0,-15.0,-108.0,-104.0,-100.0,0.0
-134.0,-27.0,37.0,180.0,158.0,26.0,-36.0,-121.0,-123.0,-105.0,0.0
-121.0,-54.0,17.0,90.0,146.0,21.0,-28.0,-103.0,-99.0,-87.0,0.0
-76.0,-22.0,38.0,-53.0,84.0,12.0,-35.0,-58.0,-56.0,-49.0,0.0
-19.0,41.0,66.0,-145.0,3.0,-4.0,-34.0,-9.0,-5.0,1.0,0.0
40.0,75.0,38.0,-200.0,-60.0,-11.0,-20.0,13.0,31.0,44.0,0.0
63.0,58.0,-1.0,-252.0,-116.0,-26.0,-20.0,23.0,36.0,69.0,0.0
66.0,67.0,-31.0,-259.0,-147.0,-44.0,-39.0,13.0,24.0,64.0,0.0
66.0,79.0,-75.0,-253.0,-143.0,-61.0,-56.0,-3.0,1.0,50.0,0.0
75.0,82.0,-105.0,-196.0,-126.0,-58.0,-61.0,-6.0,-7.0,44.0,0.0
73.0,60.0,-97.0,-115.0,-130.0,-30.0,-20.0,36.0,33.0,64.0,0.0
56.0,13.0,-81.0,-33.0,-103.0,-21.0,4.0,64.0,67.0,76.0,0.0
5.0,-22.0,-56.0,197.0,-24.0,-23.0,-7.0,4.0,10.0,21.0,0.0
-2.0,-26.0,12.0,292.0,40.0,7.0,10.0,8.0,0.0,9.0,0.0
10.0,-42.0,42.0,192.0,12.0,29.0,37.0,27.0,11.0,25.0,0.0
33.0,-68.0,32.0,69.0,-29.0,38.0,70.0,30.0,20.0,37.0,0.0
48.0,-37.0,46.0,-28.0,-65.0,39.0,64.0,28.0,27.0,45.0,0.0
46.0,-25.0,25.0,-63.0,-64.0,15.0,68.0,28.0,31.0,42.0,0.0
42.0,-17.0,30.0,-60.0,-50.0,-2.0,52.0,15.0,39.0,34.0,0.0
39.0,-5.0,88.0,-68.0,-48.0,-13.0,40.0,3.0,34.0,30.0,0.0
36.0,-3.0,129.0,-101.0,-52.0,-18.0,54.0,11.0,46.0,39.0,0.0
17.0,-12.0,102.0,-113.0,-54.0,-13.0,52.0,18.0,42.0,40.0,0.0
-6.0,-32.0,50.0,-15.0,8.0,1.0,47.0,2.0,18.0,5.0,0.0
-25.0,-52.0,-11.0,40.0,51.0,3.0,37.0,-16.0,10.0,-14.0,0.0
-9.0,-51.0,-50.0,58.0,31.0,-6.0,43.0,-12.0,16.0,0.0,0.0
6.0,-62.0,-62.0,138.0,38.0,4.0,55.0,-1.0,31.0,12.0,0.0
-8.0,-66.0,-100.0,107.0,51.0,13.0,52.0,-2.0,23.0,-7.0,0.0
-19.0,-63.0,-124.0,12.0,27.0,-16.0,5.0,-8.0,3.0,-29.0,0.0
-19.0,-67.0,-107.0,-45.0,-26.0,-25.0,-39.0,-19.0,-4.0,-30.0,0.0
-4.0,-38.0,-52.0,-111.0,-84.0,-32.0,-39.0,-23.0,-9.0,-41.0,0.0
-1.0,-35.0,-2.0,-131.0,-91.0,-34.0,-34.0,-25.0,-9.0,-54.0,0.0
-10.0,-36.0,29.0,-63.0,-54.0,-30.0,-34.0,-35.0,-5.0,-56.0,0.0
-16.0,-39.0,72.0,-36.0,-33.0,-34.0,-15.0,-39.0,-11.0,-49.0,0.0
-19.0,-51.0,91.0,-34.0,-22.0,-29.0,-21.0,-29.0,-21.0,-48.0,0.0
-30.0,-50.0,95.0,-33.0,-16.0,-21.0,-31.0,-31.0,-27.0,-50.0,0.0
-54.0,-45.0,97.0,-22.0,-6.0,-20.0,-16.0,-31.0,-11.0,-42.0,0.0
-64.0,-38.0,73.0,-19.0,-14.0,-38.0,-16.0,-34.0,-14.0,-45.0,0.0
-65.0,-55.0,19.0,-29.0,-32.0,-54.0,-59.0,-34.0,-46.0,-69.0,0.0
-70.0,-62.0,-16.0,-44.0,-32.0,-53.0,-97.0,-34.0,-37.0,-82.0,0.0
-73.0,-80.0,-42.0,-61.0,-20.0,-56.0,-112.0,-33.0,-36.0,-78.0,0.0
-59.0,-88.0,-62.0,-45.0,-19.0,-58.0,-108.0,-35.0,-40.0,-78.0,0.0
-54.0,-90.0,-91.0,-47.0,-21.0,-52.0,-86.0,-19.0,-26.0,-59.0,0.0
-54.0,-93.0,-114.0,-35.0,-17.0,-36.0,-68.0,-6.0,-14.0,-74.0,0.0
-53.0,-86.0,-127.0,-29.0,-1.0,-28.0,-41.0,-5.0,0.0,-75.0,0.0
-50.0,-39.0,-130.0,-27.0,4.0,-18.0,-26.0,-12.0,19.0,-72.0,0.0
-17.0,23.0,-92.0,-23.0,0.0,-22.0,-20.0,-13.0,19.0,-49.0,0.0
-4.0,26.0,-46.0,-25.0,-4.0,-23.0,-32.0,-10.0,32.0,-40.0,0.0
-17.0,25.0,15.0,-15.0,-4.0,-25.0,-13.0,-10.0,26.0,-50.0,0.0
-25.0,51.0,33.0,0.0,2.0,-25.0,-6.0,-14.0,6.0,-62.0,0.0
-27.0,58.0,58.0,12.0,2.0,-23.0,-9.0,-20.0,-5.0,-57.0,0.0
-11.0,59.0,94.0,13.0,0.0,-18.0,4.0,-22.0,-4.0,-34.0,0.0
10.0,54.0,107.0,20.0,12.0,-20.0,9.0,-21.0,-11.0,-17.0,0.0
10.0,43.0,118.0,31.0,32.0,-15.0,12.0,-12.0,-8.0,-6.0,0.0
-17.0,38.0,91.0,42.0,59.0,-10.0,-16.0,-21.0,-8.0,-21.0,0.0
-24.0,56.0,34.0,82.0,97.0,-8.0,-41.0,-41.0,-27.0,-43.0,0.0
-33.0,49.0,4.0,102.0,123.0,0.0,-38.0,-46.0,-40.0,-48.0,0.0
-53.0,20.0,-44.0,108.0,136.0,14.0,-22.0,-36.0,-40.0,-60.0,0.0
-74.0,2.0,-93.0,123.0,133.0,23.0,-37.0,-27.0,-53.0,-70.0,0.0
-97.0,-23.0,-132.0,96.0,78.0,13.0,-35.0,-14.0,-56.0,-69.0,0.0
-75.0,-6.0,-156.0,79.0,5.0,-14.0,-46.0,-11.0,-40.0,-44.0,0.0
-61.0,2.0,-175.0,110.0,3.0,-29.0,-61.0,-25.0,-36.0,-54.0,0.0
-66.0,12.0,-142.0,129.0,30.0,-10.0,-57.0,-26.0,-51.0,-61.0,0.0
-53.0,17.0,-116.0,124.0,45.0,10.0,-29.0,-14.0,-46.0,-38.0,0.0
-29.0,3.0,-84.0,51.0,19.0,17.0,1.0,9.0,-12.0,-5.0,0.0
-14.0,-10.0,-68.0,-35.0,-21.0,13.0,5.0,13.0,7.0,2.0,0.0
7.0,26.0,26.0,-77.0,-78.0,-21.0,-3.0,13.0,19.0,17.0,0.0
34.0,56.0,132.0,-167.0,-146.0,-28.0,17.0,35.0,66.0,62.0,0.0
47.0,55.0,147.0,-279.0,-222.0,-34.0,24.0,55.0,79.0,100.0,0.0
76.0,67.0,174.0,-329.0,-244.0,-53.0,10.0,61.0,68.0,106.0,0.0
91.0,59.0,161.0,-303.0,-199.0,-53.0,24.0,58.0,73.0,102.0,0.0
78.0,42.0,102.0,-260.0,-123.0,-33.0,53.0,57.0,74.0,85.0,0.0
73.0,38.0,55.0,-245.0,-76.0,6.0,63.0,63.0,78.0,76.0,0.0
95.0,46.0,28.0,-253.0,-88.0,18.0,46.0,91.0,88.0,95.0,0.0
105.0,36.0,-8.0,-223.0,-89.0,10.0,45.0,97.0,96.0,92.0,0.0
76.0,22.0,-12.0,-64.0,-40.0,-3.0,32.0,59.0,62.0,54.0,0.0
27.0,-13.0,-55.0,228.0,50.0,19.0,24.0,21.0,14.0,1.0,0.0
5.0,-30.0,-93.0,241.0,60.0,31.0,7.0,27.0,22.0,3.0,0.0
14.0,-17.0,-95.0,118.0,4.0,10.0,7.0,27.0,36.0,14.0,0.0
14.0,-2.0,-86.0,144.0,6.0,14.0,3.0,14.0,-6.0,8.0,0.0
0.0,-2.0,-91.0,233.0,37.0,23.0,-9.0,0.0,-30.0,-15.0,0.0
-5.0,-5.0,-59.0,221.0,47.0,18.0,-14.0,-1.0,-26.0,-3.0,0.0
5.0,-9.0,-24.0,154.0,62.0,19.0,-10.0,5.0,-13.0,22.0,0.0
-13.0,-20.0,-50.0,110.0,91.0,24.0,0.0,4.0,-26.0,26.0,0.0
-23.0,-24.0,19.0,94.0,111.0,19.0,6.0,-15.0,-37.0,20.0,0.0
-8.0,-32.0,89.0,89.0,109.0,17.0,7.0,-15.0,-28.0,12.0,0.0
-20.0,-45.0,106.0,118.0,91.0,38.0,6.0,4.0,-5.0,4.0,0.0
-23.0,-35.0,81.0,117.0,72.0,49.0,16.0,14.0,3.0,2.0,0.0
-7.0,-27.0,-6.0,72.0,49.0,47.0,31.0,19.0,8.0,19.0,0.0
-5.0,-18.0,-71.0,22.0,8.0,40.0,41.0,30.0,11.0,31.0,0.0
11.0,-1.0,-40.0,-26.0,-32.0,40.0,45.0,39.0,17.0,49.0,0.0
29.0,14.0,-41.0,-66.0,-32.0,45.0,40.0,40.0,33.0,68.0,0.0
30.0,14.0,-67.0,-39.0,1.0,57.0,63.0,46.0,52.0,61.0,0.0
23.0,6.0,-99.0,-5.0,20.0,54.0,78.0,31.0,32.0,47.0,0.0
23.0,5.0,-85.0,1.0,15.0,41.0,78.0,28.0,31.0,57.0,0.0
37.0,5.0,-76.0,-2.0,27.0,47.0,53.0,32.0,30.0,68.0,0.0
44.0,11.0,-55.0,11.0,42.0,49.0,70.0,39.0,22.0,79.0,0.0
45.0,11.0,-30.0,23.0,37.0,42.0,59.0,41.0,23.0,83.0,0.0
45.0,19.0,10.0,13.0,18.0,27.0,42.0,27.0,21.0,90.0,0.0
52.0,32.0,95.0,5.0,14.0,26.0,46.0,22.0,12.0,105.0,0.0
77.0,47.0,168.0,8.0,0.0,25.0,63.0,21.0,18.0,110.0,0.0
92.0,72.0,204.0,18.0,15.0,26.0,67.0,2.0,14.0,91.0,0.0
99.0,96.0,232.0,30.0,25.0,25.0,50.0,0.0,12.0,87.0,0.0
78.0,94.0,232.0,39.0,22.0,16.0,26.0,4.0,13.0,94.0,0.0
55.0,72.0,176.0,41.0,19.0,23.0,25.0,0.0,19.0,88.0,0.0
58.0,51.0,64.0,26.0,28.0,21.0,27.0,11.0,6.0,92.0,0.0
50.0,39.0,-47.0,27.0,34.0,14.0,37.0,14.0,9.0,84.0,0.0
37.0,35.0,-43.0,32.0,32.0,15.0,38.0,12.0,17.0,90.0,0.0
41.0,39.0,-25.0,22.0,33.0,22.0,19.0,8.0,18.0,81.0,0.0
43.0,46.0,-32.0,29.0,29.0,27.0,10.0,7.0,20.0,68.0,0.0
47.0,41.0,-57.0,25.0,28.0,29.0,23.0,13.0,30.0,72.0,0.0
43.0,39.0,-55.0,30.0,20.0,35.0,27.0,12.0,28.0,73.0,0.0
47.0,42.0,-61.0,40.0,10.0,42.0,49.0,14.0,40.0,78.0,0.0
39.0,38.0,-61.0,44.0,12.0,38.0,49.0,18.0,33.0,78.0,0.0
38.0,29.0,-47.0,37.0,21.0,40.0,55.0,14.0,26.0,67.0,0.0
34.0,7.0,-14.0,26.0,26.0,34.0,52.0,19.0,0.0,59.0,0.0
41.0,8.0,42.0,20.0,43.0,31.0,33.0,27.0,-20.0,56.0,0.0
37.0,0.0,91.0,26.0,25.0,45.0,23.0,41.0,18.0,44.0,0.0
12.0,-18.0,114.0,15.0,3.0,42.0,22.0,38.0,24.0,44.0,0.0
1.0,-22.0,116.0,10.0,2.0,46.0,21.0,29.0,33.0,43.0,0.0
0.0,-5.0,81.0,16.0,14.0,41.0,9.0,15.0,28.0,44.0,0.0
17.0,59.0,62.0,53.0,30.0,24.0,-6.0,7.0,17.0,47.0,0.0
37.0,131.0,19.0,97.0,54.0,30.0,-1.0,17.0,-2.0,38.0,0.0
30.0,126.0,-45.0,118.0,64.0,46.0,17.0,20.0,5.0,43.0,0.0
1.0,80.0,-69.0,133.0,66.0,33.0,18.0,20.0,9.0,37.0,0.0
0.0,57.0,-41.0,115.0,64.0,13.0,4.0,19.0,10.0,30.0,0.0
-2.0,42.0,-44.0,78.0,46.0,15.0,0.0,14.0,17.0,28.0,0.0
1.0,47.0,-84.0,6.0,22.0,16.0,-5.0,4.0,6.0,27.0,0.0
-4.0,46.0,-132.0,0.0,73.0,11.0,-16.0,-31.0,-14.0,-9.0,0.0
-40.0,21.0,-133.0,19.0,108.0,17.0,-23.0,-42.0,-25.0,-29.0,0.0
-44.0,13.0,-109.0,40.0,86.0,14.0,-19.0,-27.0,-22.0,-20.0,0.0
-24.0,35.0,-78.0,75.0,76.0,4.0,-19.0,-12.0,-33.0,-21.0,0.0
-29.0,18.0,-56.0,75.0,87.0,8.0,-14.0,0.0,-38.0,-15.0,0.0
-58.0,-13.0,7.0,16.0,54.0,6.0,1.0,22.0,-10.0,-3.0,0.0
-42.0,-6.0,85.0,-52.0,13.0,3.0,21.0,48.0,4.0,22.0,0.0
5.0,1.0,131.0,-106.0,0.0,18.0,62.0,53.0,22.0,44.0,0.0
25.0,-16.0,146.0,-121.0,2.0,28.0,78.0,46.0,28.0,54.0,0.0
11.0,-20.0,119.0,-148.0,9.0,16.0,42.0,42.0,35.0,55.0,0.0
-3.0,-31.0,58.0,-172.0,-24.0,-2.0,27.0,46.0,55.0,49.0,0.0
-12.0,-34.0,-13.0,-131.0,-97.0,-34.0,38.0,55.0,58.0,54.0,0.0
5.0,-4.0,-108.0,-22.0,-103.0,-35.0,58.0,66.0,77.0,63.0,0.0
29.0,0.0,-100.0,-4.0,-81.0,-20.0,73.0,86.0,105.0,91.0,0.0
44.0,-12.0,-90.0,-57.0,-82.0,-17.0,75.0,81.0,87.0,93.0,0.0
47.0,-6.0,-81.0,-85.0,-65.0,-14.0,54.0,53.0,69.0,63.0,0.0
75.0,36.0,-65.0,-74.0,-43.0,-21.0,28.0,18.0,33.0,48.0,0.0
74.0,56.0,-52.0,-80.0,-31.0,-9.0,15.0,0.0,-11.0,23.0,0.0
32.0,37.0,-32.0,-48.0,-6.0,19.0,0.0,-27.0,-27.0,-19.0,0.0
28.0,13.0,-5.0,14.0,7.0,18.0,-25.0,-19.0,-23.0,-26.0,0.0
77.0,49.0,21.0,13.0,35.0,31.0,-16.0,12.0,-3.0,5.0,0.0
110.0,76.0,84.0,42.0,58.0,63.0,-3.0,35.0,26.0,32.0,0.0
105.0,73.0,142.0,61.0,48.0,77.0,12.0,48.0,59.0,55.0,0.0
98.0,60.0,154.0,21.0,46.0,69.0,28.0,54.0,89.0,64.0,0.0
85.0,75.0,127.0,11.0,48.0,46.0,25.0,46.0,89.0,85.0,0.0
82.0,69.0,160.0,31.0,58.0,52.0,23.0,41.0,80.0,47.0,0.0
72.0,57.0,170.0,54.0,53.0,57.0,27.0,37.0,67.0,32.0,0.0
59.0,46.0,113.0,59.0,59.0,38.0,20.0,32.0,21.0,39.0,0.0
58.0,41.0,46.0,62.0,67.0,42.0,7.0,38.0,-10.0,43.0,0.0
66.0,49.0,-6.0,69.0,81.0,67.0,33.0,47.0,51.0,54.0,0.0
71.0,64.0,-68.0,75.0,96.0,85.0,56.0,53.0,93.0,69.0,0.0
101.0,90.0,-31.0,104.0,118.0,98.0,97.0,83.0,138.0,82.0,0.0
148.0,119.0,26.0,126.0,146.0,125.0,142.0,131.0,171.0,107.0,0.0
169.0,134.0,67.0,149.0,165.0,141.0,188.0,156.0,186.0,125.0,0.0
167.0,139.0,91.0,143.0,168.0,137.0,190.0,163.0,177.0,144.0,0.0
169.0,137.0,78.0,146.0,164.0,135.0,172.0,151.0,180.0,140.0,0.0
167.0,145.0,79.0,161.0,158.0,130.0,158.0,136.0,177.0,138.0,0.0
159.0,132.0,115.0,174.0,157.0,137.0,150.0,131.0,177.0,141.0,0.0
145.0,132.0,141.0,188.0,160.0,149.0,137.0,125.0,158.0,126.0,0.0
112.0,114.0,174.0,192.0,157.0,142.0,137.0,116.0,140.0,113.0,0.0
104.0,101.0,212.0,175.0,141.0,131.0,125.0,107.0,125.0,102.0,0.0
106.0,113.0,224.0,164.0,136.0,117.0,117.0,97.0,115.0,82.0,0.0
70.0,105.0,222.0,149.0,135.0,109.0,111.0,85.0,110.0,75.0,0.0
60.0,96.0,190.0,110.0,127.0,90.0,93.0,76.0,115.0,84.0,0.0
64.0,74.0,117.0,66.0,93.0,59.0,72.0,63.0,105.0,71.0,0.0
46.0,49.0,36.0,51.0,57.0,50.0,72.0,66.0,101.0,58.0,0.0
39.0,32.0,-56.0,43.0,33.0,51.0,68.0,57.0,95.0,44.0,0.0
45.0,30.0,-84.0,35.0,8.0,37.0,54.0,56.0,64.0,36.0,0.0
53.0,18.0,-69.0,35.0,0.0,16.0,43.0,59.0,63.0,37.0,0.0
40.0,-6.0,-32.0,19.0,5.0,12.0,19.0,59.0,68.0,46.0,0.0
20.0,-33.0,11.0,38.0,31.0,41.0,29.0,80.0,88.0,60.0,0.0
20.0,-38.0,20.0,30.0,44.0,57.0,38.0,78.0,99.0,53.0,0.0
7.0,15.0,7.0,12.0,46.0,46.0,13.0,52.0,72.0,21.0,0.0
-8.0,71.0,35.0,27.0,63.0,46.0,14.0,24.0,50.0,-2.0,0.0
-32.0,62.0,39.0,30.0,73.0,40.0,6.0,2.0,41.0,-30.0,0.0
-47.0,20.0,43.0,19.0,48.0,8.0,-22.0,-10.0,17.0,-38.0,0.0
-34.0,2.0,76.0,19.0,16.0,-17.0,-39.0,-14.0,16.0,-22.0,0.0
-31.0,5.0,120.0,44.0,25.0,-28.0,-54.0,-35.0,11.0,-27.0,0.0
-38.0,5.0,180.0,72.0,60.0,-28.0,-67.0,-49.0,-19.0,-46.0,0.0
-33.0,9.0,157.0,86.0,88.0,-13.0,-64.0,-55.0,-49.0,-70.0,0.0
-36.0,13.0,51.0,50.0,65.0,-14.0,-77.0,-71.0,-76.0,-91.0,0.0
-23.0,15.0,24.0,-25.0,4.0,-8.0,-61.0,-47.0,-62.0,-73.0,0.0
-4.0,27.0,-30.0,-52.0,-34.0,-18.0,-61.0,-46.0,-61.0,-68.0,0.0
13.0,31.0,-94.0,-101.0,-88.0,-32.0,-48.0,-60.0,-72.0,-51.0,0.0
29.0,20.0,-125.0,-172.0,-142.0,-62.0,-22.0,-47.0,-42.0,-26.0,0.0
0.0,-7.0,-163.0,-192.0,-144.0,-75.0,-25.0,-44.0,-40.0,-24.0,0.0
1.0,-11.0,-146.0,-148.0,-177.0,-90.0,-58.0,-36.0,-52.0,-28.0,0.0
22.0,27.0,-78.0,-194.0,-221.0,-123.0,-89.0,-17.0,-27.0,-3.0,0.0
36.0,58.0,-33.0,-253.0,-219.0,-118.0,-86.0,-13.0,-19.0,5.0,0.0
18.0,20.0,-9.0,-242.0,-176.0,-88.0,-66.0,-39.0,-38.0,-6.0,0.0
-22.0,-60.0,-47.0,-174.0,-144.0,-62.0,-63.0,-46.0,-50.0,-18.0,0.0
-47.0,-81.0,-7.0,-57.0,-109.0,-44.0,-56.0,-36.0,-69.0,-42.0,0.0
-62.0,-71.0,32.0,-38.0,-108.0,-51.0,-64.0,-49.0,-87.0,-68.0,0.0
-81.0,-74.0,26.0,-54.0,-97.0,-80.0,-57.0,-73.0,-104.0,-88.0,0.0
-91.0,-85.0,28.0,-21.0,-75.0,-68.0,-47.0,-75.0,-98.0,-86.0,0.0
-102.0,-97.0,92.0,25.0,-48.0,-35.0,-24.0,-56.0,-68.0,-70.0,0.0
-110.0,-99.0,102.0,64.0,-15.0,-19.0,-17.0,-47.0,-56.0,-64.0,0.0
-112.0,-101.0,36.0,10.0,-32.0,-34.0,-41.0,-57.0,-65.0,-64.0,0.0
-107.0,-113.0,-43.0,-46.0,-64.0,-62.0,-84.0,-74.0,-83.0,-64.0,0.0
-110.0,-113.0,-79.0,-74.0,-80.0,-78.0,-117.0,-76.0,-83.0,-66.0,0.0
-127.0,-123.0,-136.0,-59.0,-85.0,-100.0,-123.0,-86.0,-97.0,-91.0,0.0
-147.0,-144.0,-202.0,-46.0,-81.0,-124.0,-124.0,-104.0,-117.0,-108.0,0.0
-148.0,-147.0,-239.0,-79.0,-88.0,-135.0,-135.0,-114.0,-138.0,-104.0,0.0
-162.0,-160.0,-236.0,-124.0,-97.0,-151.0,-142.0,-117.0,-145.0,-106.0,0.0
-176.0,-177.0,-206.0,-152.0,-106.0,-156.0,-149.0,-137.0,-162.0,-134.0,0.0
-193.0,-181.0,-186.0,-111.0,-109.0,-151.0,-170.0,-162.0,-210.0,-163.0,0.0
-198.0,-187.0,-168.0,1.0,-90.0,-139.0,-162.0,-151.0,-219.0,-165.0,0.0
-168.0,-172.0,-135.0,14.0,-88.0,-136.0,-137.0,-128.0,-190.0,-149.0,0.0
-151.0,-159.0,-101.0,-25.0,-104.0,-137.0,-129.0,-126.0,-187.0,-131.0,0.0
-144.0,-154.0,-66.0,-52.0,-111.0,-129.0,-126.0,-138.0,-194.0,-130.0,0.0
-137.0,-129.0,-39.0,-52.0,-110.0,-122.0,-123.0,-142.0,-190.0,-132.0,0.0
-140.0,-115.0,-36.0,-60.0,-106.0,-119.0,-134.0,-137.0,-180.0,-119.0,0.0
-140.0,-120.0,-40.0,-77.0,-87.0,-101.0,-128.0,-129.0,-160.0,-107.0,0.0
-134.0,-122.0,-106.0,-67.0,-83.0,-91.0,-114.0,-127.0,-169.0,-117.0,0.0
-103.0,-115.0,-106.0,-62.0,-91.0,-116.0,-116.0,-141.0,-184.0,-124.0,0.0
-83.0,-97.0,-118.0,-82.0,-99.0,-123.0,-122.0,-151.0,-190.0,-111.0,0.0
-100.0,-113.0,-140.0,-100.0,-105.0,-123.0,-126.0,-140.0,-190.0,-109.0,0.0
-108.0,-109.0,-187.0,-103.0,-113.0,-132.0,-135.0,-121.0,-190.0,-113.0,0.0
-101.0,-81.0,-209.0,-113.0,-115.0,-136.0,-142.0,-115.0,-175.0,-91.0,0.0
-85.0,-68.0,-225.0,-122.0,-118.0,-129.0,-123.0,-99.0,-143.0,-84.0,0.0
-75.0,-63.0,-230.0,-136.0,-134.0,-125.0,-117.0,-83.0,-130.0,-87.0,0.0
-77.0,-59.0,-138.0,-143.0,-124.0,-122.0,-104.0,-87.0,-137.0,-80.0,0.0
-79.0,-77.0,-70.0,-177.0,-123.0,-110.0,-88.0,-82.0,-124.0,-64.0,0.0
-60.0,-99.0,-55.0,-229.0,-126.0,-109.0,-80.0,-61.0,-104.0,-51.0,0.0
-45.0,-100.0,-29.0,-216.0,-106.0,-119.0,-51.0,-38.0,-97.0,-67.0,0.0
-47.0,-66.0,-15.0,-142.0,-80.0,-115.0,-40.0,-38.0,-110.0,-77.0,0.0
-42.0,-43.0,-4.0,-125.0,-72.0,-121.0,-66.0,-36.0,-105.0,-65.0,0.0
-61.0,-56.0,17.0,-128.0,-68.0,-107.0,-69.0,-34.0,-103.0,-61.0,0.0
-91.0,-70.0,7.0,-83.0,-52.0,-86.0,-51.0,-39.0,-108.0,-77.0,0.0
-89.0,-60.0,16.0,-50.0,-63.0,-72.0,-35.0,-45.0,-102.0,-72.0,0.0
-100.0,-75.0,-1.0,-13.0,-58.0,-83.0,-19.0,-48.0,-98.0,-75.0,0.0
-116.0,-106.0,-48.0,-44.0,-55.0,-102.0,-28.0,-66.0,-114.0,-103.0,0.0
-114.0,-114.0,-85.0,-79.0,-49.0,-100.0,-32.0,-84.0,-115.0,-135.0,0.0
-109.0,-97.0,-113.0,-90.0,-32.0,-96.0,-42.0,-86.0,-111.0,-151.0,0.0
-105.0,-93.0,-150.0,-81.0,-44.0,-84.0,-41.0,-83.0,-107.0,-152.0,0.0
-94.0,-100.0,-178.0,-65.0,-42.0,-77.0,-73.0,-74.0,-113.0,-157.0,0.0
-73.0,-95.0,-170.0,-42.0,-38.0,-72.0,-79.0,-54.0,-101.0,-136.0,0.0
-88.0,-78.0,-178.0,-15.0,-28.0,-66.0,-74.0,-49.0,-77.0,-130.0,0.0
-104.0,-84.0,-184.0,-11.0,-42.0,-64.0,-80.0,-55.0,-92.0,-148.0,0.0
-84.0,-79.0,-82.0,-37.0,-60.0,-66.0,-89.0,-59.0,-84.0,-144.0,0.0
-81.0,-71.0,-14.0,-75.0,-75.0,-65.0,-87.0,-68.0,-77.0,-139.0,0.0
-85.0,-65.0,20.0,-92.0,-78.0,-70.0,-88.0,-67.0,-81.0,-147.0,0.0
-89.0,-74.0,51.0,-107.0,-66.0,-67.0,-69.0,-69.0,-84.0,-148.0,0.0
-85.0,-62.0,81.0,-108.0,-68.0,-57.0,-31.0,-72.0,-72.0,-149.0,0.0
-54.0,-38.0,95.0,-95.0,-73.0,-50.0,-25.0,-79.0,-73.0,-140.0,0.0
-41.0,-54.0,70.0,-88.0,-69.0,-55.0,-20.0,-80.0,-67.0,-131.0,0.0
-37.0,-67.0,16.0,-78.0,-69.0,-58.0,-43.0,-64.0,-56.0,-111.0,0.0
-2.0,-68.0,-15.0,-62.0,-38.0,-18.0,-47.0,-23.0,-22.0,-81.0,0.0
3.0,-79.0,-33.0,-14.0,-20.0,-10.0,-33.0,-11.0,-11.0,-86.0,0.0
-14.0,-95.0,-92.0,129.0,-4.0,-10.0,-29.0,-21.0,-12.0,-95.0,0.0
-25.0,-102.0,-74.0,144.0,-9.0,-5.0,-41.0,-28.0,-7.0,-94.0,0.0
-23.0,-94.0,-76.0,82.0,-23.0,-5.0,-44.0,-24.0,8.0,-83.0,0.0
-13.0,-82.0,-85.0,77.0,-11.0,-9.0,-29.0,-22.0,11.0,-64.0,0.0
1.0,-67.0,-82.0,99.0,5.0,-8.0,-30.0,-19.0,5.0,-47.0,0.0
16.0,-49.0,-83.0,90.0,7.0,-7.0,-14.0,-16.0,3.0,-31.0,0.0
10.0,-54.0,-27.0,56.0,39.0,20.0,-4.0,-16.0,5.0,-39.0,0.0
17.0,-3.0,55.0,29.0,59.0,35.0,-5.0,-28.0,-6.0,-38.0,0.0
62.0,110.0,103.0,-7.0,21.0,27.0,19.0,-19.0,-1.0,-4.0,0.0
104.0,150.0,140.0,-62.0,-19.0,28.0,30.0,-3.0,18.0,26.0,0.0
86.0,98.0,187.0,-84.0,-18.0,25.0,27.0,9.0,28.0,36.0,0.0
75.0,69.0,202.0,-76.0,-19.0,26.0,25.0,44.0,42.0,42.0,0.0
62.0,48.0,197.0,-40.0,-25.0,26.0,31.0,41.0,45.0,47.0,0.0
33.0,12.0,138.0,-3.0,-36.0,20.0,21.0,20.0,31.0,24.0,0.0
26.0,30.0,84.0,-15.0,-30.0,6.0,10.0,10.0,20.0,2.0,0.0
12.0,38.0,28.0,-11.0,-29.0,1.0,18.0,3.0,12.0,-1.0,0.0
29.0,42.0,5.0,-20.0,-44.0,7.0,23.0,23.0,33.0,21.0,0.0
33.0,30.0,-31.0,-58.0,-28.0,20.0,21.0,37.0,60.0,43.0,0.0
52.0,35.0,-108.0,-116.0,-10.0,7.0,13.0,52.0,103.0,56.0,0.0
37.0,34.0,-111.0,-66.0,10.0,-1.0,14.0,24.0,94.0,27.0,0.0
-18.0,-2.0,-132.0,70.0,26.0,-14.0,-36.0,-34.0,-11.0,-48.0,0.0
-44.0,-14.0,-125.0,95.0,44.0,-27.0,-65.0,-50.0,-51.0,-77.0,0.0
-30.0,-15.0,-102.0,47.0,45.0,-23.0,-59.0,-41.0,-34.0,-75.0,0.0
-31.0,-26.0,-57.0,39.0,39.0,-8.0,-42.0,-36.0,-23.0,-69.0,0.0
-35.0,-43.0,7.0,110.0,41.0,0.0,-31.0,-34.0,-30.0,-61.0,0.0
-28.0,-51.0,48.0,186.0,37.0,16.0,-14.0,-15.0,1.0,-32.0,0.0
-7.0,-39.0,68.0,127.0,13.0,17.0,0.0,8.0,36.0,-11.0,0.0
-4.0,-33.0,32.0,28.0,-23.0,1.0,4.0,17.0,40.0,-4.0,0.0
-10.0,-31.0,44.0,-1.0,-36.0,-7.0,0.0,6.0,28.0,0.0,0.0
-14.0,-34.0,87.0,-17.0,-33.0,-12.0,0.0,-6.0,18.0,-2.0,0.0
-17.0,-30.0,57.0,-4.0,-10.0,-1.0,-9.0,-19.0,0.0,-16.0,0.0
-32.0,-15.0,0.0,27.0,1.0,-2.0,-21.0,-26.0,-28.0,-25.0,0.0
-27.0,-21.0,-17.0,41.0,8.0,0.0,-23.0,-31.0,-40.0,-31.0,0.0
-20.0,-27.0,-41.0,20.0,15.0,0.0,-26.0,-40.0,-51.0,-45.0,0.0
-43.0,-34.0,-87.0,2.0,33.0,-5.0,-43.0,-46.0,-71.0,-59.0,0.0
-33.0,-29.0,-59.0,-32.0,24.0,-6.0,-45.0,-39.0,-51.0,-46.0,0.0
7.0,-13.0,-47.0,-69.0,-4.0,-14.0,-23.0,-18.0,-6.0,-25.0,0.0
43.0,5.0,-41.0,-82.0,-35.0,-17.0,24.0,-2.0,20.0,5.0,0.0
62.0,18.0,-34.0,-83.0,-38.0,-14.0,32.0,10.0,29.0,23.0,0.0
74.0,23.0,-44.0,-85.0,-42.0,-5.0,20.0,17.0,28.0,34.0,0.0
63.0,3.0,-31.0,-40.0,-9.0,-1.0,-5.0,19.0,22.0,37.0,0.0
49.0,-24.0,0.0,-11.0,23.0,5.0,-2.0,20.0,1.0,25.0,0.0
31.0,-28.0,23.0,13.0,33.0,0.0,1.0,20.0,14.0,22.0,0.0
7.0,-16.0,119.0,56.0,51.0,-11.0,20.0,6.0,18.0,2.0,0.0
13.0,-6.0,170.0,61.0,35.0,-9.0,50.0,0.0,3.0,-8.0,0.0
24.0,-3.0,185.0,47.0,19.0,-1.0,63.0,15.0,22.0,9.0,0.0
9.0,-6.0,155.0,16.0,-4.0,11.0,61.0,22.0,38.0,38.0,0.0
-14.0,-7.0,101.0,-18.0,-21.0,20.0,57.0,24.0,38.0,56.0,0.0
-26.0,-5.0,17.0,-53.0,-57.0,8.0,51.0,19.0,44.0,52.0,0.0
-3.0,13.0,-28.0,-61.0,-58.0,4.0,56.0,19.0,62.0,57.0,0.0
5.0,8.0,-40.0,-63.0,-27.0,43.0,54.0,41.0,73.0,66.0,0.0
-4.0,1.0,-59.0,-66.0,-18.0,58.0,24.0,54.0,78.0,68.0,0.0
0.0,0.0,-74.0,-84.0,-29.0,50.0,2.0,57.0,73.0,71.0,0.0
-28.0,-17.0,-86.0,-88.0,-40.0,41.0,-9.0,43.0,66.0,43.0,0.0
-45.0,-22.0,-90.0,-75.0,-28.0,37.0,5.0,28.0,64.0,29.0,0.0
-53.0,-18.0,-79.0,-52.0,-9.0,33.0,14.0,21.0,51.0,33.0,0.0
-49.0,-4.0,-72.0,-35.0,7.0,29.0,30.0,18.0,40.0,47.0,0.0
-52.0,0.0,-53.0,41.0,23.0,26.0,38.0,2.0,17.0,42.0,0.0
-44.0,-11.0,0.0,134.0,44.0,31.0,38.0,-14.0,0.0,34.0,0.0
-25.0,-8.0,57.0,122.0,41.0,33.0,32.0,-3.0,15.0,43.0,0.0
-20.0,-5.0,91.0,75.0,19.0,18.0,2.0,0.0,17.0,59.0,0.0
-10.0,10.0,69.0,50.0,13.0,17.0,-11.0,0.0,16.0,57.0,0.0
-6.0,9.0,21.0,40.0,14.0,19.0,-8.0,18.0,8.0,49.0,0.0
7.0,17.0,67.0,14.0,8.0,14.0,15.0,18.0,21.0,60.0,0.0
32.0,41.0,10.0,12.0,11.0,17.0,-4.0,-13.0,-9.0,40.0,0.0
21.0,42.0,-30.0,20.0,2.0,1.0,16.0,-14.0,-22.0,33.0,0.0
5.0,20.0,-31.0,0.0,1.0,-7.0,1.0,2.0,-129.0,44.0,0.0
-15.0,-18.0,-32.0,9.0,20.0,4.0,-25.0,6.0,-208.0,47.0,0.0
0.0,16.0,-57.0,71.0,57.0,29.0,-1.0,5.0,-34.0,48.0,0.0
17.0,37.0,-66.0,132.0,63.0,30.0,6.0,3.0,26.0,55.0,0.0
19.0,21.0,-63.0,137.0,52.0,26.0,12.0,9.0,36.0,57.0,0.0
19.0,14.0,-95.0,85.0,48.0,25.0,24.0,14.0,47.0,55.0,0.0
18.0,22.0,-58.0,62.0,41.0,29.0,19.0,0.0,16.0,57.0,0.0
38.0,31.0,3.0,57.0,49.0,36.0,10.0,-5.0,-50.0,62.0,0.0
80.0,66.0,79.0,64.0,61.0,43.0,28.0,2.0,22.0,53.0,0.0
82.0,74.0,157.0,46.0,49.0,41.0,44.0,18.0,53.0,65.0,0.0
85.0,79.0,181.0,26.0,27.0,35.0,47.0,28.0,59.0,86.0,0.0
78.0,74.0,174.0,48.0,31.0,27.0,36.0,23.0,36.0,70.0,0.0
61.0,67.0,129.0,74.0,31.0,18.0,10.0,22.0,25.0,39.0,0.0
52.0,61.0,68.0,75.0,32.0,23.0,14.0,32.0,28.0,32.0,0.0
51.0,52.0,54.0,27.0,24.0,56.0,42.0,51.0,44.0,60.0,0.0
68.0,39.0,6.0,-43.0,0.0,62.0,60.0,62.0,57.0,91.0,0.0
67.0,38.0,-40.0,-68.0,-15.0,43.0,42.0,55.0,48.0,98.0,0.0
62.0,36.0,-96.0,-79.0,-11.0,38.0,35.0,47.0,44.0,88.0,0.0
61.0,31.0,-59.0,-83.0,-18.0,33.0,38.0,56.0,52.0,77.0,0.0
67.0,33.0,-38.0,-69.0,-2.0,29.0,44.0,55.0,51.0,72.0,0.0
60.0,41.0,-50.0,-80.0,8.0,19.0,36.0,43.0,41.0,73.0,0.0
43.0,24.0,-66.0,-80.0,7.0,7.0,33.0,40.0,43.0,68.0,0.0
34.0,-7.0,-117.0,1.0,20.0,14.0,21.0,28.0,44.0,68.0,0.0
34.0,-19.0,-103.0,53.0,21.0,8.0,31.0,30.0,49.0,72.0,0.0
33.0,-21.0,-1.0,51.0,24.0,5.0,45.0,44.0,61.0,70.0,0.0
9.0,-12.0,92.0,84.0,47.0,8.0,47.0,50.0,72.0,66.0,0.0
0.0,6.0,156.0,134.0,67.0,24.0,58.0,51.0,72.0,71.0,0.0
13.0,79.0,198.0,145.0,107.0,44.0,93.0,70.0,76.0,86.0,0.0
13.0,98.0,194.0,158.0,122.0,52.0,116.0,69.0,67.0,74.0,0.0
8.0,46.0,152.0,201.0,109.0,51.0,112.0,62.0,51.0,52.0,0.0
-20.0,0.0,87.0,162.0,87.0,41.0,83.0,41.0,46.0,32.0,0.0
-23.0,-5.0,11.0,61.0,41.0,18.0,64.0,30.0,40.0,24.0,0.0
