channel0,channel1,channel2,channel3,channel4,channel5,channel6,channel7,channel8,channel9,true_locs
-42.0,-42.0,37.0,52.0,23.0,15.0,-10.0,5.0,41.0,5.0,0.0
-55.0,-39.0,52.0,65.0,38.0,8.0,-37.0,-16.0,0.0,-10.0,0.0
-87.0,-26.0,60.0,71.0,30.0,-11.0,-41.0,-31.0,-10.0,-25.0,0.0
-84.0,-18.0,68.0,65.0,22.0,-4.0,-35.0,-29.0,-9.0,-37.0,0.0
-81.0,-19.0,76.0,58.0,29.0,-2.0,-17.0,-24.0,-16.0,-50.0,0.0
-60.0,-41.0,66.0,51.0,23.0,2.0,10.0,0.0,10.0,-11.0,0.0
-35.0,-69.0,35.0,30.0,15.0,11.0,44.0,28.0,31.0,15.0,0.0
-8.0,-62.0,5.0,13.0,23.0,9.0,29.0,32.0,20.0,20.0,0.0
0.0,-47.0,-83.0,-2.0,33.0,10.0,19.0,23.0,11.0,21.0,0.0
-8.0,-30.0,-74.0,-7.0,39.0,6.0,19.0,12.0,-1.0,22.0,0.0
-9.0,-24.0,12.0,0.0,45.0,7.0,35.0,13.0,-7.0,14.0,0.0
0.0,-17.0,22.0,-4.0,42.0,12.0,47.0,9.0,-21.0,7.0,0.0
-10.0,-9.0,22.0,-13.0,30.0,13.0,24.0,3.0,-21.0,2.0,0.0
-11.0,-7.0,14.0,-9.0,18.0,10.0,23.0,-2.0,-21.0,-2.0,0.0
-1.0,-20.0,15.0,-14.0,12.0,8.0,21.0,3.0,-20.0,-7.0,0.0
6.0,-5.0,10.0,-13.0,3.0,1.0,16.0,5.0,-7.0,11.0,0.0
3.0,7.0,-9.0,-10.0,2.0,6.0,9.0,2.0,8.0,10.0,0.0
11.0,-1.0,-33.0,-8.0,3.0,22.0,-13.0,10.0,29.0,9.0,0.0
16.0,5.0,17.0,-17.0,-2.0,12.0,-33.0,1.0,30.0,9.0,0.0
20.0,39.0,27.0,-15.0,-2.0,6.0,-28.0,-5.0,33.0,15.0,0.0
33.0,52.0,25.0,-1.0,0.0,12.0,-7.0,-1.0,46.0,17.0,0.0
39.0,61.0,29.0,3.0,1.0,11.0,20.0,-5.0,55.0,12.0,0.0
63.0,67.0,35.0,-5.0,-2.0,7.0,21.0,-16.0,49.0,11.0,0.0
105.0,69.0,30.0,-17.0,-19.0,-1.0,-22.0,-12.0,25.0,31.0,0.0
133.0,55.0,10.0,-10.0,-17.0,1.0,-31.0,-7.0,11.0,43.0,0.0
174.0,34.0,1.0,6.0,-7.0,7.0,-31.0,-14.0,9.0,23.0,0.0
214.0,60.0,-2.0,-2.0,-17.0,6.0,-46.0,-12.0,-3.0,3.0,0.0
219.0,91.0,-3.0,-21.0,-32.0,4.0,-45.0,-20.0,-12.0,-13.0,0.0
200.0,124.0,-4.0,-26.0,-38.0,-1.0,-36.0,-20.0,-9.0,-18.0,0.0
154.0,115.0,-74.0,-24.0,-36.0,15.0,-18.0,11.0,30.0,28.0,0.0
63.0,47.0,-73.0,1.0,-18.0,37.0,10.0,35.0,46.0,34.0,0.0
-5.0,23.0,-44.0,23.0,-10.0,33.0,18.0,21.0,25.0,-4.0,0.0
-68.0,20.0,30.0,4.0,-6.0,5.0,-9.0,1.0,-16.0,-43.0,0.0
-107.0,13.0,31.0,4.0,5.0,1.0,-19.0,-1.0,-38.0,-56.0,0.0
-59.0,62.0,30.0,16.0,6.0,7.0,-28.0,-1.0,-35.0,-52.0,0.0
22.0,132.0,74.0,19.0,0.0,-5.0,-23.0,-10.0,-56.0,-58.0,0.0
85.0,178.0,85.0,15.0,-5.0,-10.0,-23.0,-26.0,-67.0,-79.0,0.0
148.0,217.0,56.0,-7.0,-13.0,-14.0,-35.0,-40.0,-106.0,-88.0,0.0
184.0,184.0,20.0,-38.0,-24.0,-10.0,-57.0,-46.0,-110.0,-64.0,0.0
138.0,90.0,-5.0,-55.0,-49.0,-22.0,-76.0,-30.0,-66.0,-2.0,0.0
-39.0,-84.0,-51.0,-54.0,-60.0,-35.0,-51.0,-1.0,2.0,86.0,0.0
-209.0,-209.0,-60.0,-45.0,-49.0,-17.0,-13.0,35.0,49.0,92.0,0.0
-332.0,-200.0,6.0,6.0,-8.0,18.0,37.0,44.0,24.0,-18.0,0.0
-328.0,-195.0,3.0,28.0,7.0,56.0,59.0,57.0,32.0,-43.0,0.0
-240.0,-191.0,-27.0,19.0,1.0,46.0,56.0,70.0,65.0,8.0,0.0
-166.0,-185.0,-40.0,8.0,0.0,34.0,56.0,82.0,90.0,48.0,0.0
-178.0,-161.0,-32.0,14.0,-10.0,32.0,31.0,59.0,60.0,5.0,0.0
-158.0,-101.0,3.0,34.0,5.0,16.0,15.0,30.0,28.0,-38.0,0.0
-87.0,-17.0,31.0,41.0,26.0,19.0,13.0,23.0,35.0,-50.0,0.0
-37.0,-14.0,-55.0,43.0,32.0,37.0,25.0,30.0,48.0,-14.0,0.0
-14.0,-3.0,-59.0,34.0,23.0,37.0,37.0,40.0,52.0,19.0,0.0
-35.0,-2.0,41.0,33.0,12.0,18.0,16.0,32.0,45.0,49.0,0.0
-70.0,-46.0,54.0,38.0,-6.0,-6.0,0.0,16.0,45.0,61.0,0.0
-138.0,-102.0,48.0,42.0,-11.0,-20.0,-15.0,21.0,24.0,29.0,0.0
-146.0,-159.0,6.0,30.0,-1.0,-18.0,-14.0,38.0,22.0,10.0,0.0
-124.0,-174.0,-12.0,14.0,0.0,-4.0,17.0,35.0,11.0,4.0,0.0
-88.0,-123.0,6.0,13.0,1.0,4.0,38.0,31.0,0.0,-3.0,0.0
-54.0,-78.0,25.0,21.0,-6.0,7.0,4.0,28.0,-1.0,-12.0,0.0
-26.0,-50.0,-2.0,17.0,-8.0,-2.0,-15.0,12.0,-15.0,-7.0,0.0
-16.0,-15.0,-70.0,12.0,-8.0,-9.0,-21.0,11.0,-22.0,2.0,0.0
-19.0,2.0,-6.0,7.0,-13.0,-9.0,-20.0,12.0,-24.0,8.0,0.0
-6.0,6.0,-19.0,6.0,-18.0,-6.0,-29.0,9.0,-28.0,9.0,0.0
1.0,7.0,20.0,-6.0,-18.0,0.0,-36.0,-3.0,-46.0,9.0,0.0
11.0,2.0,43.0,-9.0,-11.0,-6.0,-35.0,-9.0,-46.0,-1.0,0.0
8.0,14.0,50.0,-11.0,-7.0,-20.0,-25.0,-8.0,-45.0,1.0,0.0
7.0,21.0,40.0,-19.0,-3.0,-23.0,-28.0,-3.0,-46.0,-6.0,0.0
17.0,30.0,32.0,-19.0,-9.0,-14.0,-23.0,0.0,-47.0,4.0,0.0
27.0,22.0,31.0,-9.0,-14.0,-9.0,-22.0,6.0,-48.0,11.0,0.0
44.0,27.0,9.0,-7.0,-9.0,-9.0,-22.0,5.0,-35.0,-3.0,0.0
46.0,27.0,-27.0,1.0,-8.0,-5.0,-1.0,-2.0,-16.0,3.0,0.0
44.0,47.0,-91.0,0.0,-14.0,-1.0,15.0,10.0,-4.0,24.0,0.0
57.0,68.0,-41.0,-12.0,-6.0,-11.0,36.0,13.0,13.0,28.0,0.0
63.0,50.0,23.0,-13.0,-2.0,-2.0,62.0,9.0,29.0,23.0,0.0
70.0,29.0,16.0,-5.0,-8.0,-3.0,74.0,12.0,37.0,22.0,0.0
65.0,36.0,11.0,-14.0,-7.0,0.0,76.0,12.0,40.0,24.0,0.0
57.0,30.0,11.0,-21.0,-3.0,2.0,59.0,18.0,41.0,21.0,0.0
41.0,27.0,0.0,-30.0,-6.0,-2.0,45.0,18.0,33.0,14.0,0.0
36.0,26.0,-2.0,-48.0,-10.0,2.0,41.0,20.0,32.0,30.0,0.0
31.0,16.0,-6.0,-47.0,0.0,5.0,33.0,20.0,23.0,42.0,0.0
17.0,22.0,-7.0,-38.0,0.0,0.0,19.0,15.0,13.0,20.0,0.0
10.0,14.0,7.0,-26.0,-4.0,0.0,10.0,10.0,-2.0,8.0,0.0
2.0,8.0,29.0,-21.0,-9.0,-4.0,-10.0,0.0,-20.0,8.0,0.0
-9.0,30.0,35.0,-1.0,-3.0,-8.0,-24.0,-9.0,-38.0,5.0,0.0
-10.0,25.0,0.0,14.0,22.0,-1.0,10.0,-20.0,-53.0,-10.0,0.0
-3.0,18.0,-10.0,2.0,22.0,1.0,23.0,-14.0,-58.0,-16.0,0.0
-4.0,20.0,19.0,-9.0,10.0,-7.0,22.0,-8.0,-49.0,-3.0,0.0
7.0,3.0,40.0,2.0,5.0,-13.0,8.0,-10.0,-44.0,5.0,0.0
14.0,12.0,60.0,27.0,12.0,-9.0,-25.0,-15.0,-31.0,9.0,0.0
15.0,23.0,52.0,38.0,17.0,-12.0,-41.0,-16.0,-35.0,11.0,0.0
20.0,14.0,35.0,25.0,13.0,-23.0,-46.0,-8.0,-47.0,10.0,0.0
17.0,26.0,41.0,10.0,7.0,-24.0,-47.0,-8.0,-54.0,10.0,0.0
18.0,31.0,41.0,0.0,4.0,-28.0,-16.0,-10.0,-45.0,11.0,0.0
16.0,10.0,34.0,-1.0,5.0,-35.0,-6.0,3.0,-37.0,5.0,0.0
21.0,0.0,38.0,3.0,2.0,-26.0,-10.0,9.0,-23.0,2.0,0.0
19.0,11.0,34.0,0.0,6.0,-15.0,-3.0,-1.0,-9.0,4.0,0.0
26.0,12.0,30.0,-7.0,0.0,-12.0,2.0,5.0,3.0,3.0,0.0
14.0,28.0,34.0,5.0,4.0,-6.0,-5.0,10.0,16.0,0.0,0.0
7.0,44.0,44.0,16.0,3.0,-1.0,-21.0,3.0,33.0,-9.0,0.0
17.0,18.0,36.0,17.0,1.0,0.0,-18.0,-4.0,35.0,-26.0,0.0
26.0,7.0,33.0,12.0,3.0,-4.0,-7.0,-9.0,30.0,-36.0,0.0
27.0,22.0,29.0,-3.0,4.0,-12.0,-6.0,-12.0,21.0,-39.0,1.0
31.0,19.0,24.0,-6.0,1.0,-23.0,3.0,-8.0,24.0,-32.0,1.0
25.0,8.0,19.0,-11.0,-12.0,-23.0,-3.0,-9.0,25.0,-18.0,1.0
26.0,9.0,12.0,-7.0,-9.0,-23.0,-15.0,-13.0,26.0,-23.0,1.0
32.0,19.0,8.0,-1.0,-4.0,-19.0,-13.0,1.0,18.0,-22.0,1.0
42.0,11.0,13.0,2.0,1.0,-13.0,-29.0,10.0,11.0,-16.0,1.0
48.0,13.0,11.0,2.0,13.0,-20.0,-14.0,-1.0,4.0,-11.0,1.0
40.0,33.0,3.0,18.0,24.0,-23.0,0.0,-10.0,-12.0,-15.0,1.0
35.0,50.0,-1.0,12.0,21.0,-23.0,-8.0,0.0,-25.0,3.0,1.0
30.0,35.0,-1.0,12.0,18.0,-24.0,-12.0,0.0,-27.0,9.0,1.0
27.0,8.0,1.0,11.0,21.0,-12.0,-33.0,4.0,-26.0,-1.0,1.0
27.0,14.0,7.0,18.0,4.0,-14.0,-38.0,11.0,-22.0,-3.0,1.0
22.0,23.0,-17.0,6.0,-4.0,-18.0,-51.0,6.0,-21.0,5.0,1.0
3.0,0.0,-28.0,-1.0,4.0,-19.0,-57.0,-8.0,-21.0,5.0,1.0
-2.0,-11.0,-9.0,3.0,1.0,-13.0,-37.0,-5.0,-22.0,-5.0,1.0
0.0,-5.0,-6.0,-3.0,0.0,-2.0,-17.0,-2.0,-14.0,-16.0,1.0
2.0,2.0,-59.0,-2.0,4.0,14.0,-1.0,11.0,14.0,-17.0,1.0
14.0,4.0,-55.0,6.0,14.0,12.0,-6.0,15.0,33.0,-7.0,1.0
18.0,15.0,-4.0,14.0,11.0,13.0,0.0,7.0,46.0,2.0,0.0
30.0,39.0,-1.0,16.0,2.0,8.0,36.0,13.0,61.0,1.0,0.0
62.0,63.0,6.0,11.0,-2.0,-1.0,50.0,11.0,54.0,10.0,0.0
88.0,81.0,-11.0,-5.0,-14.0,-2.0,38.0,-2.0,44.0,17.0,0.0
134.0,95.0,3.0,-30.0,-29.0,-19.0,20.0,-27.0,18.0,16.0,0.0
147.0,82.0,15.0,-34.0,-27.0,-25.0,16.0,-31.0,2.0,18.0,0.0
115.0,52.0,-25.0,-36.0,-9.0,-7.0,1.0,-25.0,6.0,20.0,0.0
90.0,32.0,-110.0,-28.0,3.0,15.0,-6.0,-5.0,14.0,13.0,0.0
47.0,31.0,-95.0,-18.0,8.0,0.0,-15.0,-21.0,-14.0,-25.0,0.0
-20.0,30.0,15.0,-12.0,6.0,-11.0,-27.0,-20.0,-28.0,-15.0,0.0
-64.0,28.0,51.0,4.0,1.0,-9.0,0.0,-8.0,-15.0,-11.0,0.0
-74.0,9.0,45.0,6.0,-6.0,-3.0,19.0,0.0,-11.0,-1.0,0.0
-64.0,13.0,34.0,-3.0,-35.0,-21.0,-5.0,-15.0,-23.0,18.0,0.0
-30.0,59.0,40.0,2.0,-62.0,-37.0,-47.0,-54.0,-75.0,-40.0,0.0
40.0,75.0,33.0,0.0,-61.0,-16.0,-78.0,-56.0,-96.0,-58.0,0.0
94.0,32.0,-70.0,-6.0,-33.0,16.0,-44.0,-12.0,-59.0,-27.0,0.0
58.0,-32.0,-107.0,14.0,0.0,60.0,3.0,32.0,-16.0,13.0,0.0
-37.0,-47.0,-77.0,26.0,21.0,56.0,7.0,34.0,-3.0,31.0,0.0
-148.0,-46.0,19.0,25.0,11.0,29.0,-7.0,19.0,4.0,26.0,0.0
-189.0,-19.0,40.0,21.0,9.0,15.0,-17.0,9.0,0.0,-3.0,0.0
-216.0,-37.0,17.0,24.0,21.0,28.0,-14.0,17.0,10.0,-28.0,0.0
-183.0,-70.0,33.0,14.0,24.0,35.0,12.0,35.0,49.0,-2.0,0.0
-142.0,-88.0,11.0,2.0,15.0,21.0,13.0,49.0,68.0,14.0,0.0
-144.0,-125.0,1.0,6.0,21.0,25.0,29.0,48.0,79.0,-3.0,0.0
-124.0,-140.0,-8.0,10.0,29.0,28.0,45.0,44.0,80.0,-41.0,0.0
-94.0,-117.0,-22.0,4.0,11.0,22.0,26.0,23.0,53.0,-36.0,0.0
-83.0,-83.0,-25.0,0.0,0.0,8.0,9.0,9.0,42.0,-14.0,0.0
-56.0,-27.0,-3.0,-15.0,-16.0,-7.0,-8.0,-5.0,26.0,-10.0,0.0
-14.0,36.0,15.0,-16.0,-33.0,-13.0,-22.0,-9.0,15.0,0.0,0.0
20.0,46.0,11.0,-7.0,-24.0,2.0,-8.0,1.0,15.0,10.0,0.0
29.0,10.0,-41.0,-22.0,-18.0,8.0,18.0,5.0,32.0,11.0,0.0
32.0,-48.0,-151.0,-29.0,-3.0,6.0,26.0,12.0,39.0,26.0,0.0
1.0,-89.0,-87.0,-19.0,7.0,-2.0,13.0,11.0,18.0,16.0,0.0
-59.0,-119.0,5.0,11.0,27.0,0.0,11.0,5.0,7.0,-6.0,0.0
-74.0,-93.0,-24.0,32.0,34.0,-7.0,14.0,0.0,-10.0,-12.0,0.0
-63.0,-52.0,-4.0,35.0,32.0,-26.0,2.0,-5.0,-21.0,-7.0,0.0
-44.0,-41.0,57.0,55.0,43.0,-22.0,-8.0,-6.0,-28.0,-10.0,0.0
-30.0,-40.0,42.0,42.0,29.0,-13.0,-5.0,-1.0,-25.0,12.0,0.0
-13.0,-36.0,35.0,26.0,13.0,-11.0,-7.0,0.0,-38.0,7.0,0.0
-3.0,-23.0,51.0,30.0,13.0,-19.0,-17.0,-2.0,-42.0,0.0,0.0
15.0,0.0,54.0,22.0,12.0,-33.0,-22.0,-5.0,-53.0,3.0,0.0
27.0,8.0,46.0,4.0,9.0,-33.0,-12.0,-1.0,-57.0,-8.0,0.0
38.0,42.0,25.0,-6.0,0.0,-22.0,-6.0,-5.0,-44.0,-1.0,0.0
44.0,45.0,-28.0,-23.0,-10.0,-14.0,-10.0,-3.0,-24.0,20.0,0.0
68.0,32.0,-35.0,-42.0,-8.0,-11.0,6.0,4.0,-7.0,31.0,0.0
135.0,49.0,-33.0,-41.0,-5.0,-17.0,9.0,-3.0,1.0,32.0,0.0
138.0,60.0,-10.0,-13.0,-2.0,-31.0,5.0,-10.0,-2.0,9.0,0.0
78.0,62.0,24.0,0.0,7.0,-5.0,27.0,-1.0,2.0,-20.0,0.0
53.0,59.0,1.0,-9.0,7.0,6.0,30.0,3.0,31.0,3.0,0.0
25.0,27.0,-38.0,-6.0,-21.0,-3.0,19.0,-7.0,62.0,29.0,0.0
-45.0,-36.0,-126.0,4.0,-24.0,-7.0,2.0,-26.0,27.0,11.0,0.0
-96.0,-67.0,-132.0,9.0,-8.0,0.0,18.0,-14.0,20.0,-2.0,0.0
-126.0,-68.0,-37.0,9.0,4.0,2.0,34.0,1.0,36.0,2.0,0.0
-102.0,-43.0,30.0,23.0,1.0,-4.0,23.0,-11.0,9.0,-19.0,0.0
-55.0,-9.0,35.0,18.0,3.0,-11.0,18.0,-12.0,-7.0,-17.0,0.0
-18.0,18.0,-7.0,2.0,-4.0,-6.0,8.0,0.0,-5.0,-3.0,0.0
-7.0,7.0,-51.0,8.0,-14.0,6.0,1.0,-4.0,-5.0,-12.0,0.0
-16.0,12.0,14.0,18.0,-14.0,15.0,-3.0,-9.0,-16.0,-32.0,0.0
-9.0,16.0,0.0,15.0,-1.0,13.0,-4.0,-18.0,-20.0,-24.0,0.0
-2.0,3.0,-57.0,14.0,-6.0,3.0,-16.0,-22.0,-34.0,-17.0,0.0
-13.0,-7.0,18.0,14.0,-9.0,-7.0,-18.0,-20.0,-37.0,-33.0,0.0
-23.0,-29.0,20.0,2.0,-12.0,-15.0,16.0,-14.0,-36.0,-37.0,0.0
-11.0,-49.0,-62.0,-4.0,-14.0,-19.0,32.0,-2.0,-6.0,3.0,0.0
-12.0,-50.0,-137.0,-24.0,-16.0,-7.0,39.0,0.0,-4.0,20.0,0.0
-37.0,-42.0,-41.0,-23.0,-11.0,0.0,-3.0,-19.0,-30.0,-6.0,0.0
-36.0,-36.0,44.0,-21.0,-9.0,10.0,-25.0,-14.0,-43.0,-9.0,0.0
-15.0,-15.0,52.0,-8.0,-4.0,10.0,-16.0,-14.0,-43.0,3.0,0.0
-17.0,-6.0,10.0,-3.0,-5.0,19.0,-5.0,-10.0,-38.0,1.0,0.0
-4.0,-4.0,24.0,2.0,1.0,6.0,21.0,-13.0,-44.0,-4.0,0.0
12.0,-7.0,44.0,-3.0,6.0,-10.0,15.0,-14.0,-52.0,0.0,0.0
10.0,14.0,36.0,-3.0,1.0,-8.0,5.0,-8.0,-49.0,15.0,0.0
22.0,11.0,43.0,-4.0,2.0,-5.0,1.0,-3.0,-32.0,8.0,0.0
36.0,25.0,54.0,-6.0,5.0,7.0,-14.0,-9.0,-36.0,2.0,0.0
40.0,51.0,65.0,0.0,8.0,16.0,-16.0,-13.0,-45.0,0.0,0.0
55.0,34.0,60.0,1.0,18.0,18.0,-4.0,-15.0,-33.0,-6.0,0.0
65.0,23.0,44.0,8.0,25.0,27.0,2.0,-19.0,-9.0,10.0,0.0
44.0,37.0,48.0,11.0,21.0,20.0,-8.0,-41.0,-2.0,-17.0,0.0
39.0,47.0,29.0,-2.0,4.0,6.0,-22.0,-52.0,17.0,-21.0,0.0
35.0,15.0,4.0,-31.0,-17.0,-7.0,-20.0,-39.0,47.0,10.0,0.0
-19.0,-11.0,6.0,-27.0,-13.0,-7.0,8.0,-4.0,61.0,13.0,0.0
-45.0,-25.0,-23.0,-15.0,1.0,5.0,49.0,19.0,71.0,-3.0,0.0
-22.0,2.0,-11.0,-15.0,0.0,-9.0,34.0,12.0,42.0,0.0,0.0
-21.0,8.0,29.0,-15.0,-1.0,-8.0,1.0,3.0,8.0,-18.0,0.0
-27.0,-25.0,27.0,-13.0,10.0,14.0,4.0,10.0,9.0,-33.0,0.0
-18.0,-23.0,29.0,-18.0,9.0,21.0,8.0,20.0,25.0,-5.0,0.0
-7.0,-21.0,22.0,-24.0,7.0,9.0,-4.0,26.0,28.0,15.0,0.0
-19.0,-5.0,25.0,-16.0,16.0,3.0,-12.0,6.0,21.0,5.0,0.0
-16.0,-26.0,-12.0,-13.0,9.0,6.0,0.0,5.0,15.0,17.0,0.0
0.0,-18.0,-52.0,-10.0,5.0,7.0,0.0,16.0,9.0,20.0,0.0
-5.0,-10.0,2.0,-11.0,8.0,-5.0,-7.0,14.0,-2.0,1.0,0.0
-4.0,-11.0,13.0,-21.0,10.0,-24.0,-7.0,9.0,-6.0,-7.0,0.0
3.0,-19.0,-12.0,-22.0,7.0,-31.0,-15.0,5.0,-1.0,-13.0,0.0
-6.0,-23.0,-39.0,-17.0,0.0,-13.0,-5.0,10.0,0.0,-3.0,0.0
6.0,-21.0,-7.0,-20.0,5.0,4.0,6.0,15.0,-8.0,-4.0,0.0
10.0,-16.0,3.0,-21.0,-2.0,1.0,16.0,12.0,-9.0,-10.0,0.0
2.0,-13.0,4.0,-1.0,-4.0,9.0,-14.0,5.0,-20.0,-1.0,0.0
9.0,-5.0,14.0,-7.0,-11.0,3.0,-21.0,-3.0,-34.0,-4.0,0.0
15.0,-13.0,15.0,-9.0,-7.0,-13.0,-26.0,-4.0,-23.0,0.0,0.0
24.0,-16.0,9.0,-8.0,9.0,-16.0,-30.0,-12.0,-12.0,-6.0,0.0
46.0,0.0,13.0,4.0,17.0,-8.0,-24.0,-15.0,-16.0,2.0,0.0
52.0,-13.0,17.0,11.0,9.0,-2.0,-15.0,-9.0,-21.0,2.0,0.0
39.0,-27.0,14.0,8.0,4.0,1.0,-9.0,-1.0,-10.0,2.0,0.0
40.0,-26.0,3.0,7.0,6.0,18.0,3.0,6.0,7.0,22.0,0.0
33.0,-21.0,2.0,-1.0,4.0,19.0,6.0,22.0,29.0,37.0,0.0
35.0,31.0,26.0,4.0,0.0,9.0,-1.0,4.0,30.0,9.0,0.0
38.0,79.0,40.0,26.0,8.0,6.0,-4.0,-5.0,21.0,-9.0,0.0
35.0,60.0,42.0,25.0,13.0,13.0,-7.0,-8.0,39.0,3.0,0.0
39.0,34.0,-10.0,27.0,23.0,15.0,6.0,-2.0,50.0,5.0,0.0
7.0,6.0,-6.0,21.0,25.0,24.0,29.0,15.0,64.0,8.0,0.0
-56.0,-21.0,-6.0,13.0,15.0,18.0,29.0,15.0,40.0,-20.0,0.0
-43.0,-13.0,-93.0,19.0,10.0,9.0,30.0,10.0,8.0,-35.0,0.0
7.0,-6.0,-70.0,15.0,7.0,10.0,33.0,9.0,11.0,-17.0,0.0
5.0,-21.0,-4.0,6.0,14.0,17.0,10.0,10.0,14.0,-5.0,0.0
-5.0,-10.0,12.0,-1.0,10.0,4.0,2.0,11.0,13.0,-3.0,0.0
8.0,-7.0,7.0,-1.0,0.0,-6.0,12.0,23.0,34.0,9.0,0.0
10.0,-12.0,3.0,-1.0,4.0,0.0,8.0,17.0,38.0,24.0,0.0
3.0,-17.0,12.0,7.0,15.0,1.0,2.0,5.0,22.0,18.0,0.0
-5.0,0.0,16.0,30.0,12.0,0.0,-10.0,0.0,-12.0,-4.0,0.0
13.0,14.0,32.0,34.0,6.0,5.0,-24.0,-8.0,-30.0,0.0,0.0
34.0,27.0,26.0,24.0,7.0,11.0,-28.0,-23.0,-22.0,16.0,0.0
62.0,37.0,13.0,19.0,-1.0,9.0,-19.0,-20.0,-20.0,21.0,0.0
93.0,28.0,10.0,-4.0,-1.0,13.0,18.0,-8.0,-14.0,30.0,0.0
95.0,34.0,6.0,-5.0,0.0,14.0,30.0,1.0,-4.0,40.0,0.0
72.0,34.0,-7.0,-9.0,-12.0,18.0,12.0,1.0,-18.0,10.0,0.0
65.0,31.0,-9.0,-15.0,-20.0,10.0,3.0,-3.0,-26.0,-16.0,0.0
61.0,56.0,16.0,-19.0,-23.0,0.0,2.0,-9.0,-25.0,4.0,0.0
48.0,68.0,25.0,-5.0,-18.0,4.0,6.0,-7.0,-12.0,19.0,0.0
57.0,75.0,32.0,13.0,-24.0,7.0,11.0,-28.0,-7.0,-1.0,0.0
65.0,56.0,23.0,6.0,-20.0,11.0,1.0,-45.0,-1.0,-35.0,0.0
91.0,53.0,-3.0,-1.0,-5.0,29.0,6.0,-32.0,15.0,-44.0,0.0
108.0,83.0,5.0,-1.0,-1.0,29.0,-11.0,-30.0,7.0,-51.0,0.0
111.0,55.0,7.0,-1.0,-6.0,29.0,-7.0,-7.0,58.0,27.0,0.0
77.0,-23.0,-7.0,0.0,4.0,34.0,-6.0,21.0,89.0,110.0,0.0
-40.0,-70.0,-32.0,-5.0,-9.0,19.0,-10.0,37.0,89.0,109.0,0.0
-161.0,-106.0,-46.0,-10.0,-7.0,30.0,2.0,42.0,64.0,30.0,0.0
-197.0,-125.0,-37.0,1.0,17.0,46.0,14.0,40.0,35.0,-9.0,0.0
-151.0,-103.0,-28.0,12.0,17.0,32.0,10.0,28.0,18.0,-16.0,0.0
-107.0,-63.0,0.0,7.0,13.0,23.0,1.0,13.0,-7.0,-11.0,0.0
-66.0,-29.0,1.0,5.0,19.0,18.0,-12.0,-4.0,-21.0,-17.0,0.0
-44.0,-12.0,-60.0,-10.0,9.0,13.0,-17.0,3.0,-19.0,-7.0,0.0
-33.0,4.0,-95.0,-19.0,-9.0,-3.0,-29.0,10.0,-40.0,-6.0,0.0
-18.0,43.0,-30.0,-14.0,-19.0,-24.0,-48.0,-11.0,-64.0,-8.0,0.0
4.0,96.0,13.0,-4.0,-21.0,-48.0,-64.0,-47.0,-66.0,-10.0,0.0
-1.0,104.0,41.0,10.0,-5.0,-48.0,-54.0,-46.0,-62.0,-23.0,0.0
31.0,73.0,-39.0,18.0,10.0,-32.0,-33.0,-33.0,-67.0,-26.0,0.0
98.0,26.0,-94.0,8.0,8.0,-18.0,-24.0,-17.0,-21.0,38.0,0.0
62.0,-45.0,-17.0,0.0,8.0,-20.0,-25.0,-8.0,6.0,69.0,0.0
-73.0,-122.0,4.0,0.0,13.0,-13.0,-27.0,-18.0,-15.0,-9.0,0.0
-108.0,-163.0,-43.0,3.0,20.0,18.0,7.0,15.0,-3.0,2.0,0.0
-108.0,-174.0,-44.0,-5.0,27.0,28.0,33.0,54.0,47.0,61.0,0.0
-124.0,-120.0,-7.0,1.0,23.0,3.0,17.0,34.0,38.0,23.0,0.0
-151.0,-76.0,9.0,6.0,17.0,-11.0,-8.0,-7.0,0.0,-47.0,0.0
-128.0,-69.0,-31.0,-1.0,3.0,-12.0,-7.0,-5.0,8.0,-38.0,0.0
-85.0,-47.0,-112.0,8.0,-2.0,-2.0,-13.0,-6.0,19.0,-12.0,0.0
-53.0,-13.0,-46.0,11.0,1.0,2.0,-8.0,-8.0,28.0,-5.0,0.0
-44.0,7.0,41.0,17.0,5.0,3.0,3.0,-15.0,44.0,-10.0,0.0
-61.0,19.0,40.0,10.0,2.0,5.0,17.0,-5.0,65.0,-13.0,0.0
-61.0,15.0,26.0,4.0,0.0,0.0,20.0,-7.0,50.0,-15.0,0.0
-41.0,16.0,6.0,6.0,0.0,3.0,9.0,0.0,25.0,-11.0,0.0
-16.0,-32.0,-8.0,2.0,9.0,14.0,1.0,6.0,18.0,1.0,0.0
-10.0,-73.0,-5.0,9.0,30.0,21.0,5.0,5.0,35.0,10.0,0.0
-12.0,-62.0,-10.0,4.0,28.0,21.0,18.0,10.0,47.0,13.0,0.0
-13.0,-42.0,-17.0,-7.0,21.0,12.0,4.0,14.0,25.0,0.0,0.0
5.0,-23.0,4.0,-14.0,14.0,0.0,-2.0,12.0,6.0,-19.0,0.0
38.0,-4.0,23.0,-12.0,9.0,-1.0,0.0,7.0,-3.0,-9.0,0.0
65.0,32.0,37.0,-6.0,2.0,-4.0,-9.0,-13.0,-21.0,-19.0,0.0
74.0,59.0,36.0,-5.0,-1.0,-7.0,-16.0,-35.0,-32.0,-36.0,0.0
65.0,56.0,13.0,-13.0,0.0,0.0,-1.0,-25.0,-20.0,-10.0,0.0
38.0,59.0,8.0,-19.0,-2.0,4.0,20.0,-20.0,-17.0,20.0,0.0
4.0,69.0,46.0,-1.0,-4.0,-3.0,7.0,-39.0,-49.0,-14.0,0.0
-45.0,-7.0,63.0,24.0,17.0,0.0,8.0,-37.0,-67.0,-54.0,0.0
-29.0,-56.0,40.0,9.0,19.0,3.0,32.0,-13.0,-43.0,-34.0,0.0
-5.0,-32.0,-36.0,-13.0,3.0,-2.0,27.0,4.0,-10.0,-4.0,0.0
1.0,-20.0,-64.0,-12.0,10.0,0.0,-2.0,6.0,-8.0,-5.0,0.0
6.0,-10.0,7.0,-6.0,9.0,-1.0,-12.0,2.0,-39.0,-8.0,0.0
17.0,-3.0,7.0,-11.0,-5.0,1.0,-12.0,0.0,-42.0,-12.0,0.0
10.0,10.0,15.0,-14.0,-3.0,1.0,-8.0,0.0,-30.0,-16.0,0.0
-27.0,-3.0,12.0,-15.0,-6.0,-4.0,-4.0,-5.0,-8.0,-27.0,0.0
-24.0,3.0,1.0,-11.0,-8.0,-10.0,-14.0,-10.0,6.0,-31.0,0.0
-4.0,19.0,7.0,-10.0,-9.0,-1.0,-10.0,-11.0,4.0,-28.0,0.0
1.0,24.0,7.0,-4.0,-9.0,1.0,0.0,-12.0,16.0,-23.0,0.0
11.0,17.0,5.0,1.0,0.0,11.0,1.0,-19.0,33.0,-18.0,0.0
10.0,34.0,2.0,-2.0,0.0,9.0,8.0,-9.0,33.0,-3.0,0.0
15.0,27.0,7.0,-4.0,-4.0,4.0,24.0,-3.0,37.0,10.0,0.0
21.0,30.0,10.0,12.0,0.0,0.0,49.0,-8.0,47.0,11.0,0.0
20.0,37.0,5.0,20.0,8.0,-1.0,66.0,0.0,59.0,14.0,0.0
-3.0,33.0,1.0,11.0,10.0,3.0,36.0,9.0,51.0,18.0,0.0
-3.0,37.0,-4.0,6.0,-1.0,-4.0,18.0,10.0,43.0,28.0,0.0
25.0,27.0,-20.0,12.0,-10.0,-7.0,12.0,16.0,32.0,30.0,0.0
33.0,18.0,-6.0,17.0,-14.0,-5.0,5.0,25.0,33.0,33.0,0.0
35.0,19.0,-4.0,8.0,-12.0,-3.0,7.0,20.0,19.0,32.0,0.0
29.0,11.0,-60.0,6.0,-12.0,-7.0,10.0,19.0,13.0,29.0,0.0
28.0,35.0,-42.0,-9.0,-13.0,0.0,0.0,15.0,6.0,25.0,0.0
24.0,17.0,-47.0,-14.0,-11.0,8.0,8.0,10.0,-1.0,26.0,0.0
40.0,6.0,-112.0,-16.0,-17.0,8.0,29.0,0.0,-6.0,25.0,0.0
39.0,27.0,-90.0,-21.0,-40.0,5.0,16.0,-1.0,-32.0,10.0,0.0
16.0,34.0,-119.0,-13.0,-47.0,-1.0,-3.0,-22.0,-46.0,-6.0,0.0
11.0,21.0,-46.0,0.0,-34.0,3.0,-5.0,-30.0,-49.0,-9.0,0.0
4.0,22.0,43.0,8.0,-36.0,9.0,5.0,-19.0,-51.0,-9.0,0.0
-9.0,-3.0,41.0,4.0,-35.0,1.0,8.0,-7.0,-48.0,2.0,0.0
-15.0,-32.0,11.0,11.0,-18.0,0.0,11.0,-4.0,-53.0,-5.0,0.0
-5.0,-40.0,19.0,14.0,-5.0,-6.0,12.0,-12.0,-44.0,-15.0,0.0
-2.0,-11.0,47.0,35.0,0.0,-6.0,8.0,-17.0,-45.0,-22.0,0.0
11.0,-1.0,-34.0,33.0,-15.0,-3.0,5.0,-6.0,-27.0,-15.0,0.0
20.0,16.0,-115.0,19.0,-19.0,4.0,10.0,0.0,-2.0,-5.0,0.0
13.0,32.0,-43.0,20.0,-19.0,0.0,14.0,-7.0,11.0,7.0,0.0
0.0,11.0,39.0,27.0,-8.0,6.0,-1.0,-5.0,24.0,0.0,0.0
-11.0,3.0,40.0,34.0,-2.0,10.0,-21.0,-9.0,13.0,1.0,0.0
0.0,6.0,49.0,28.0,-10.0,3.0,-16.0,-7.0,18.0,4.0,0.0
7.0,12.0,60.0,21.0,-18.0,0.0,-7.0,-1.0,34.0,-6.0,0.0
10.0,40.0,51.0,20.0,-15.0,-1.0,19.0,6.0,32.0,12.0,0.0
16.0,44.0,39.0,21.0,-9.0,-3.0,29.0,4.0,19.0,16.0,0.0
27.0,25.0,27.0,15.0,5.0,-4.0,24.0,5.0,7.0,7.0,0.0
33.0,29.0,25.0,6.0,-2.0,-2.0,18.0,4.0,7.0,-2.0,0.0
48.0,48.0,31.0,-9.0,-12.0,-7.0,17.0,4.0,-14.0,9.0,0.0
50.0,47.0,0.0,-10.0,-17.0,-3.0,1.0,-6.0,-26.0,30.0,0.0
60.0,0.0,-41.0,-20.0,-22.0,-16.0,-13.0,-15.0,-43.0,27.0,0.0
98.0,-10.0,-2.0,-21.0,-25.0,-26.0,-18.0,-20.0,-42.0,44.0,0.0
107.0,3.0,-4.0,-2.0,-24.0,-30.0,-36.0,-27.0,-27.0,79.0,0.0
79.0,-7.0,-60.0,-4.0,-25.0,-42.0,-54.0,-35.0,-39.0,86.0,0.0
82.0,20.0,11.0,-3.0,-38.0,-38.0,-52.0,-29.0,-27.0,80.0,0.0
107.0,35.0,25.0,-23.0,-54.0,-31.0,-49.0,-18.0,-17.0,73.0,0.0
91.0,10.0,13.0,-28.0,-50.0,-23.0,-40.0,-17.0,-42.0,33.0,0.0
37.0,-6.0,22.0,-12.0,-32.0,-5.0,-46.0,-5.0,-41.0,-14.0,0.0
-5.0,-29.0,-1.0,-10.0,-21.0,1.0,-46.0,25.0,-18.0,-34.0,0.0
-47.0,-43.0,-17.0,-14.0,-27.0,3.0,-48.0,20.0,2.0,-49.0,0.0
-34.0,-36.0,14.0,-4.0,-27.0,-7.0,-50.0,9.0,27.0,-32.0,0.0
-9.0,13.0,19.0,-4.0,-15.0,-8.0,-37.0,3.0,26.0,-48.0,0.0
18.0,66.0,-49.0,-9.0,-5.0,10.0,-10.0,17.0,39.0,-50.0,0.0
14.0,73.0,-27.0,-2.0,22.0,38.0,29.0,40.0,65.0,-53.0,0.0
70.0,92.0,-17.0,4.0,15.0,39.0,3.0,19.0,42.0,-43.0,0.0
105.0,104.0,51.0,-1.0,-5.0,10.0,-31.0,-15.0,18.0,-39.0,0.0
72.0,54.0,43.0,-8.0,-5.0,6.0,-15.0,-5.0,31.0,-19.0,0.0
20.0,-19.0,-23.0,-14.0,-3.0,9.0,29.0,23.0,53.0,26.0,0.0
-56.0,-112.0,-83.0,-32.0,5.0,26.0,54.0,73.0,104.0,96.0,0.0
-134.0,-125.0,-52.0,-16.0,10.0,14.0,40.0,69.0,95.0,57.0,0.0
-212.0,-129.0,2.0,-6.0,10.0,0.0,4.0,36.0,30.0,-29.0,0.0
-242.0,-148.0,0.0,10.0,21.0,9.0,21.0,37.0,14.0,-60.0,0.0
-165.0,-107.0,12.0,16.0,17.0,19.0,-3.0,30.0,19.0,-41.0,0.0
-100.0,-64.0,-45.0,25.0,1.0,17.0,-19.0,16.0,9.0,-31.0,0.0
-91.0,-82.0,-95.0,24.0,15.0,19.0,-11.0,31.0,4.0,-11.0,0.0
-64.0,-100.0,-100.0,9.0,18.0,12.0,-2.0,45.0,11.0,-21.0,0.0
-32.0,-77.0,-10.0,9.0,12.0,1.0,-36.0,34.0,-4.0,-26.0,0.0
-34.0,-63.0,56.0,2.0,3.0,2.0,-30.0,20.0,-12.0,-4.0,0.0
-62.0,-62.0,62.0,-6.0,-1.0,0.0,-26.0,15.0,-4.0,-10.0,0.0
-97.0,-78.0,44.0,0.0,-2.0,2.0,-19.0,21.0,-3.0,1.0,0.0
-113.0,-63.0,66.0,2.0,8.0,11.0,-15.0,25.0,1.0,3.0,0.0
-99.0,-17.0,95.0,18.0,12.0,7.0,-30.0,-1.0,-19.0,-38.0,0.0
-78.0,-33.0,72.0,13.0,7.0,7.0,-23.0,0.0,-7.0,-25.0,0.0
-38.0,-33.0,39.0,-3.0,6.0,11.0,-7.0,29.0,20.0,11.0,0.0
-18.0,-21.0,31.0,-3.0,3.0,9.0,-6.0,21.0,28.0,5.0,0.0
2.0,-32.0,24.0,0.0,7.0,7.0,8.0,13.0,38.0,1.0,0.0
3.0,-30.0,-13.0,7.0,2.0,5.0,8.0,0.0,37.0,-1.0,0.0
5.0,-16.0,-98.0,5.0,-3.0,1.0,-4.0,-5.0,37.0,-7.0,0.0
-3.0,0.0,-14.0,10.0,0.0,-2.0,18.0,3.0,45.0,8.0,0.0
-2.0,14.0,69.0,29.0,13.0,-6.0,15.0,-9.0,20.0,-17.0,0.0
-5.0,11.0,79.0,14.0,16.0,-7.0,7.0,-14.0,0.0,-24.0,0.0
24.0,0.0,74.0,-1.0,6.0,-9.0,12.0,-15.0,-11.0,-16.0,0.0
31.0,-13.0,58.0,1.0,9.0,-11.0,19.0,-19.0,-24.0,-13.0,0.0
35.0,-2.0,57.0,9.0,20.0,2.0,28.0,-20.0,-34.0,-4.0,0.0
47.0,13.0,57.0,14.0,22.0,-6.0,18.0,-40.0,-42.0,-11.0,0.0
77.0,25.0,71.0,11.0,3.0,-23.0,9.0,-44.0,-55.0,6.0,0.0
82.0,35.0,67.0,6.0,-6.0,-31.0,-7.0,-41.0,-51.0,5.0,0.0
64.0,27.0,48.0,9.0,-5.0,-27.0,-16.0,-38.0,-51.0,-14.0,0.0
51.0,35.0,-14.0,-9.0,-5.0,-16.0,-33.0,-21.0,-43.0,-9.0,0.0
34.0,13.0,-16.0,-26.0,-17.0,2.0,-30.0,10.0,-12.0,18.0,0.0
39.0,-2.0,0.0,-41.0,-33.0,9.0,-8.0,28.0,7.0,32.0,0.0
31.0,11.0,3.0,-26.0,-47.0,-5.0,13.0,19.0,2.0,10.0,0.0
23.0,34.0,24.0,-10.0,-24.0,-4.0,5.0,1.0,-2.0,-7.0,0.0
19.0,31.0,12.0,-17.0,-2.0,0.0,-6.0,-3.0,16.0,10.0,0.0
19.0,33.0,-37.0,-23.0,-8.0,12.0,31.0,-6.0,28.0,31.0,0.0
6.0,29.0,-22.0,-13.0,-7.0,5.0,37.0,-8.0,26.0,30.0,0.0
-4.0,37.0,-33.0,4.0,3.0,-10.0,27.0,-14.0,16.0,16.0,0.0
-2.0,65.0,-62.0,14.0,4.0,-19.0,11.0,-22.0,3.0,7.0,0.0
-2.0,48.0,-30.0,20.0,6.0,-29.0,6.0,-20.0,-7.0,6.0,0.0
0.0,37.0,9.0,19.0,13.0,-26.0,11.0,-16.0,-11.0,5.0,0.0
-13.0,18.0,31.0,-6.0,1.0,-20.0,-11.0,-10.0,-7.0,16.0,0.0
-11.0,2.0,29.0,-25.0,-2.0,-31.0,-26.0,-16.0,-11.0,16.0,0.0
-12.0,17.0,23.0,-27.0,-13.0,-25.0,-16.0,-18.0,-9.0,12.0,0.0
-8.0,19.0,20.0,-42.0,-20.0,-10.0,-8.0,-15.0,0.0,12.0,0.0
-8.0,33.0,9.0,-46.0,-10.0,-6.0,-12.0,-9.0,8.0,17.0,0.0
-4.0,20.0,-53.0,-25.0,-4.0,-3.0,0.0,-10.0,18.0,9.0,0.0
12.0,23.0,-69.0,-15.0,-8.0,-2.0,18.0,-21.0,-5.0,-2.0,0.0
29.0,40.0,41.0,0.0,2.0,-8.0,15.0,-19.0,-26.0,0.0,0.0
41.0,22.0,57.0,20.0,20.0,-16.0,12.0,-24.0,-40.0,3.0,0.0
33.0,24.0,30.0,20.0,16.0,-20.0,-11.0,-10.0,-32.0,-12.0,0.0
27.0,26.0,-71.0,19.0,10.0,-23.0,-48.0,-9.0,-32.0,-6.0,0.0
27.0,-2.0,-117.0,15.0,2.0,-25.0,-59.0,-18.0,-42.0,4.0,0.0
8.0,-1.0,-120.0,4.0,5.0,-6.0,-55.0,-3.0,-47.0,12.0,0.0
0.0,-12.0,-108.0,0.0,4.0,0.0,-36.0,3.0,-46.0,12.0,0.0
5.0,-6.0,-29.0,-5.0,0.0,16.0,-22.0,0.0,-41.0,14.0,0.0
13.0,-10.0,67.0,-15.0,-9.0,14.0,-25.0,10.0,-41.0,30.0,0.0
23.0,11.0,77.0,-10.0,-9.0,5.0,-24.0,5.0,-24.0,24.0,0.0
24.0,22.0,69.0,-9.0,-2.0,13.0,-25.0,5.0,2.0,15.0,0.0
23.0,37.0,67.0,-13.0,1.0,12.0,-19.0,4.0,11.0,3.0,0.0
28.0,56.0,72.0,3.0,2.0,1.0,-13.0,2.0,16.0,-15.0,0.0
23.0,76.0,69.0,11.0,4.0,11.0,0.0,8.0,33.0,-7.0,0.0
18.0,81.0,52.0,5.0,-9.0,12.0,0.0,17.0,57.0,17.0,0.0
12.0,50.0,-28.0,4.0,-19.0,4.0,10.0,17.0,72.0,31.0,0.0
-31.0,0.0,-75.0,2.0,-7.0,10.0,17.0,22.0,54.0,33.0,0.0
-49.0,-14.0,16.0,19.0,4.0,5.0,18.0,19.0,30.0,14.0,0.0
-19.0,-33.0,30.0,0.0,0.0,-3.0,0.0,11.0,23.0,17.0,0.0
7.0,-56.0,4.0,-1.0,-4.0,-8.0,-7.0,4.0,15.0,26.0,0.0
19.0,-37.0,14.0,12.0,-6.0,-6.0,32.0,8.0,3.0,37.0,0.0
12.0,-7.0,26.0,15.0,-3.0,-7.0,45.0,7.0,-15.0,21.0,0.0
16.0,-12.0,16.0,1.0,0.0,-6.0,38.0,12.0,-14.0,9.0,0.0
17.0,-11.0,5.0,2.0,-14.0,0.0,8.0,13.0,-11.0,10.0,0.0
23.0,-14.0,-2.0,4.0,-25.0,2.0,1.0,0.0,-23.0,9.0,0.0
41.0,-10.0,-8.0,-6.0,-30.0,3.0,18.0,0.0,-23.0,16.0,0.0
43.0,6.0,0.0,-6.0,-28.0,0.0,22.0,14.0,-23.0,14.0,0.0
23.0,4.0,-6.0,-8.0,-14.0,8.0,27.0,12.0,-20.0,6.0,0.0
2.0,18.0,-79.0,-11.0,0.0,17.0,26.0,5.0,-16.0,-2.0,0.0
0.0,-3.0,-155.0,-6.0,-7.0,17.0,26.0,5.0,-13.0,-11.0,0.0
-9.0,4.0,-123.0,-7.0,2.0,8.0,23.0,3.0,-8.0,-14.0,0.0
-16.0,27.0,-1.0,1.0,5.0,12.0,24.0,-6.0,-5.0,-27.0,0.0
5.0,17.0,25.0,0.0,-5.0,11.0,28.0,-8.0,15.0,-17.0,0.0
35.0,26.0,24.0,-6.0,-6.0,9.0,40.0,-2.0,38.0,0.0,0.0
40.0,51.0,30.0,16.0,4.0,10.0,25.0,-5.0,36.0,-1.0,0.0
37.0,67.0,45.0,28.0,15.0,16.0,5.0,-14.0,31.0,-1.0,0.0
52.0,41.0,41.0,15.0,22.0,13.0,1.0,-15.0,23.0,12.0,0.0
75.0,21.0,9.0,8.0,15.0,6.0,1.0,-16.0,31.0,52.0,0.0
44.0,8.0,0.0,9.0,11.0,3.0,0.0,-9.0,37.0,51.0,0.0
-32.0,-21.0,7.0,5.0,27.0,11.0,8.0,7.0,39.0,21.0,0.0
-46.0,-6.0,11.0,6.0,12.0,9.0,1.0,2.0,41.0,0.0,0.0
-32.0,40.0,25.0,12.0,-9.0,5.0,-12.0,-10.0,22.0,-2.0,0.0
14.0,75.0,32.0,11.0,-14.0,-17.0,-25.0,-25.0,-16.0,-16.0,0.0
80.0,84.0,41.0,10.0,-1.0,-18.0,-45.0,-37.0,-35.0,-15.0,0.0
139.0,74.0,23.0,-4.0,0.0,-22.0,-51.0,-39.0,-46.0,-9.0,0.0
146.0,49.0,-1.0,-19.0,-13.0,-49.0,-61.0,-53.0,-57.0,-24.0,0.0
123.0,4.0,-21.0,-32.0,-26.0,-55.0,-63.0,-48.0,-38.0,-7.0,0.0
59.0,-45.0,-48.0,-40.0,-41.0,-33.0,-38.0,-18.0,-2.0,37.0,0.0
17.0,14.0,-36.0,-48.0,-36.0,-22.0,-34.0,-3.0,18.0,51.0,0.0
-37.0,64.0,32.0,-16.0,-11.0,-8.0,-23.0,-6.0,-8.0,4.0,0.0
-126.0,44.0,73.0,31.0,28.0,13.0,-2.0,-20.0,-53.0,-68.0,0.0
-115.0,31.0,60.0,42.0,44.0,30.0,9.0,-15.0,-54.0,-65.0,0.0
-9.0,15.0,27.0,18.0,20.0,14.0,2.0,-10.0,-40.0,-20.0,0.0
7.0,-20.0,16.0,15.0,24.0,4.0,0.0,-15.0,-37.0,-24.0,0.0
1.0,-23.0,19.0,27.0,29.0,-1.0,3.0,-10.0,-30.0,-11.0,0.0
20.0,-71.0,-12.0,-7.0,11.0,-13.0,13.0,18.0,30.0,88.0,0.0
-72.0,-119.0,-24.0,-10.0,16.0,-30.0,10.0,23.0,52.0,98.0,0.0
-152.0,-158.0,-31.0,0.0,18.0,-19.0,9.0,29.0,42.0,59.0,0.0
-151.0,-162.0,-65.0,9.0,24.0,7.0,18.0,32.0,35.0,-1.0,0.0
-135.0,-153.0,-46.0,19.0,46.0,34.0,40.0,40.0,43.0,-14.0,0.0
-123.0,-136.0,-42.0,27.0,50.0,39.0,41.0,36.0,35.0,-13.0,0.0
-85.0,-108.0,-60.0,10.0,37.0,17.0,32.0,27.0,23.0,-1.0,0.0
-44.0,-73.0,-44.0,-23.0,9.0,7.0,63.0,32.0,44.0,42.0,0.0
-12.0,-27.0,-28.0,-21.0,-7.0,5.0,71.0,21.0,53.0,33.0,0.0
-12.0,17.0,6.0,-6.0,-22.0,4.0,41.0,0.0,23.0,-33.0,0.0
-20.0,59.0,47.0,7.0,-20.0,-5.0,3.0,-20.0,16.0,-51.0,0.0
-11.0,91.0,78.0,25.0,-19.0,-10.0,-10.0,-23.0,15.0,-60.0,0.0
-51.0,58.0,26.0,23.0,-25.0,-21.0,-11.0,-14.0,22.0,-47.0,0.0
-87.0,31.0,-40.0,28.0,-24.0,-36.0,-10.0,-9.0,19.0,-55.0,0.0
-64.0,15.0,19.0,34.0,-6.0,-35.0,-3.0,-3.0,30.0,-55.0,0.0
-14.0,-45.0,-9.0,29.0,7.0,-5.0,13.0,22.0,39.0,-38.0,0.0
0.0,-55.0,6.0,35.0,10.0,6.0,19.0,28.0,22.0,-39.0,0.0
13.0,-24.0,20.0,27.0,13.0,1.0,4.0,17.0,-6.0,-27.0,0.0
14.0,-44.0,24.0,0.0,11.0,-12.0,-11.0,-3.0,-5.0,-4.0,0.0
-6.0,-71.0,-1.0,-3.0,8.0,-10.0,0.0,2.0,11.0,-5.0,0.0
-30.0,-75.0,-7.0,0.0,10.0,-8.0,8.0,19.0,22.0,-4.0,0.0
-50.0,-68.0,5.0,-3.0,6.0,-15.0,-1.0,17.0,10.0,8.0,0.0
-54.0,-42.0,13.0,1.0,10.0,-32.0,-22.0,10.0,-20.0,-18.0,0.0
-47.0,-30.0,13.0,0.0,17.0,-33.0,-26.0,13.0,-26.0,-23.0,0.0
-23.0,-19.0,-37.0,-11.0,7.0,-19.0,-22.0,11.0,-29.0,-14.0,0.0
-8.0,-14.0,-37.0,-20.0,-6.0,-6.0,-27.0,-5.0,-35.0,-18.0,0.0
4.0,-17.0,-2.0,-24.0,-8.0,-12.0,-26.0,-13.0,-29.0,-15.0,0.0
4.0,-32.0,-36.0,-21.0,-10.0,-26.0,-27.0,-6.0,-37.0,-7.0,0.0
-18.0,-39.0,-10.0,-16.0,-7.0,-15.0,-22.0,4.0,-35.0,-16.0,0.0
-35.0,-47.0,-2.0,-19.0,6.0,0.0,-20.0,8.0,-30.0,-26.0,0.0
-11.0,-47.0,-1.0,-27.0,23.0,3.0,-12.0,13.0,-24.0,-21.0,0.0
7.0,-19.0,-7.0,-17.0,23.0,8.0,-17.0,9.0,-37.0,-14.0,0.0
-3.0,-22.0,0.0,-16.0,13.0,17.0,-16.0,4.0,-33.0,-17.0,0.0
-20.0,-27.0,-20.0,3.0,9.0,23.0,-8.0,4.0,-29.0,-23.0,0.0
-14.0,-39.0,-24.0,3.0,24.0,10.0,-2.0,-3.0,-29.0,-27.0,0.0
6.0,-45.0,-22.0,1.0,26.0,12.0,8.0,4.0,-19.0,-19.0,0.0
12.0,-30.0,-14.0,8.0,23.0,5.0,22.0,3.0,-2.0,-14.0,0.0
0.0,-11.0,-11.0,24.0,12.0,12.0,19.0,2.0,11.0,-8.0,0.0
13.0,0.0,-25.0,32.0,17.0,10.0,14.0,-3.0,35.0,-27.0,0.0
11.0,18.0,-8.0,27.0,20.0,0.0,34.0,-10.0,45.0,-29.0,0.0
-6.0,25.0,45.0,26.0,3.0,-9.0,8.0,-13.0,41.0,-21.0,0.0
10.0,35.0,29.0,20.0,-5.0,-18.0,-20.0,-21.0,22.0,-21.0,0.0
30.0,50.0,1.0,9.0,-8.0,-10.0,-25.0,-21.0,6.0,-8.0,0.0
32.0,39.0,2.0,0.0,0.0,6.0,-10.0,-9.0,-5.0,-18.0,0.0
36.0,54.0,4.0,0.0,-7.0,13.0,32.0,3.0,2.0,-25.0,0.0
43.0,39.0,10.0,9.0,2.0,10.0,43.0,0.0,12.0,-19.0,0.0
51.0,21.0,-3.0,-4.0,0.0,7.0,37.0,-6.0,-1.0,5.0,0.0
69.0,27.0,-18.0,-21.0,4.0,-13.0,12.0,-5.0,-2.0,22.0,0.0
74.0,50.0,-9.0,-14.0,9.0,-18.0,-12.0,-9.0,-24.0,10.0,0.0
62.0,76.0,13.0,-7.0,12.0,-21.0,-9.0,-12.0,-36.0,3.0,0.0
37.0,35.0,5.0,0.0,22.0,-9.0,24.0,0.0,-21.0,-2.0,0.0
4.0,5.0,22.0,-6.0,26.0,8.0,30.0,15.0,-16.0,-13.0,0.0
-39.0,-12.0,26.0,11.0,31.0,13.0,27.0,11.0,-35.0,-41.0,0.0
-39.0,-16.0,-14.0,23.0,27.0,17.0,27.0,16.0,-42.0,-39.0,0.0
-24.0,-15.0,-5.0,8.0,12.0,6.0,22.0,21.0,-35.0,-10.0,0.0
-10.0,3.0,-3.0,-11.0,2.0,-15.0,-25.0,6.0,-40.0,8.0,0.0
-22.0,17.0,-2.0,-4.0,-2.0,-15.0,-42.0,-7.0,-46.0,1.0,0.0
-36.0,33.0,3.0,0.0,4.0,-11.0,-28.0,-4.0,-35.0,-16.0,0.0
-16.0,16.0,8.0,-17.0,0.0,-10.0,-3.0,-5.0,-13.0,-20.0,0.0
13.0,29.0,-3.0,-10.0,2.0,-2.0,-6.0,-11.0,-2.0,-9.0,0.0
22.0,49.0,0.0,-2.0,16.0,2.0,8.0,1.0,3.0,-12.0,0.0
21.0,58.0,16.0,6.0,25.0,6.0,-2.0,0.0,4.0,-35.0,0.0
25.0,59.0,10.0,1.0,11.0,0.0,-9.0,13.0,18.0,-18.0,0.0
22.0,37.0,-18.0,0.0,9.0,-2.0,-1.0,26.0,49.0,14.0,0.0
8.0,-12.0,-34.0,1.0,4.0,-9.0,5.0,24.0,87.0,25.0,0.0
-16.0,-40.0,-21.0,10.0,8.0,-3.0,3.0,25.0,93.0,27.0,0.0
-36.0,-42.0,-8.0,18.0,19.0,3.0,6.0,23.0,71.0,7.0,0.0
-39.0,-34.0,-4.0,6.0,10.0,3.0,26.0,14.0,61.0,-11.0,0.0
-44.0,-21.0,1.0,12.0,6.0,7.0,37.0,2.0,37.0,-12.0,0.0
-41.0,-12.0,-2.0,14.0,4.0,13.0,28.0,-8.0,7.0,-13.0,0.0
-35.0,12.0,-85.0,6.0,-2.0,10.0,27.0,-14.0,1.0,-8.0,0.0
-30.0,-3.0,-165.0,9.0,-8.0,3.0,30.0,-17.0,-9.0,-4.0,0.0
-23.0,-16.0,-151.0,12.0,-2.0,4.0,10.0,-12.0,-14.0,-4.0,0.0
-23.0,-5.0,-58.0,13.0,-3.0,2.0,4.0,-14.0,-13.0,-10.0,0.0
-6.0,2.0,15.0,11.0,-1.0,-2.0,18.0,-4.0,-23.0,-10.0,0.0
-1.0,13.0,-47.0,-12.0,1.0,-5.0,20.0,-8.0,-30.0,-25.0,0.0
9.0,35.0,-74.0,-8.0,-10.0,9.0,10.0,-23.0,-30.0,-30.0,0.0
30.0,31.0,25.0,-14.0,-15.0,15.0,-9.0,-20.0,-41.0,-27.0,0.0
55.0,36.0,47.0,-19.0,-31.0,10.0,-42.0,-15.0,-41.0,-13.0,0.0
70.0,31.0,26.0,-18.0,-34.0,11.0,-31.0,-6.0,-31.0,0.0,0.0
58.0,0.0,2.0,-16.0,-17.0,10.0,-21.0,11.0,-33.0,12.0,0.0
48.0,-8.0,16.0,-9.0,-7.0,15.0,-17.0,13.0,-38.0,15.0,0.0
32.0,-8.0,42.0,3.0,-9.0,27.0,-17.0,-1.0,-47.0,-17.0,0.0
24.0,18.0,58.0,13.0,-22.0,16.0,-3.0,-12.0,-50.0,-22.0,0.0
40.0,36.0,63.0,0.0,-47.0,10.0,8.0,-7.0,-33.0,4.0,0.0
20.0,21.0,38.0,-5.0,-42.0,14.0,14.0,9.0,9.0,47.0,0.0
-13.0,-25.0,23.0,-3.0,-32.0,24.0,-3.0,14.0,45.0,62.0,0.0
-15.0,-14.0,38.0,6.0,-28.0,29.0,-25.0,-13.0,9.0,4.0,0.0
-24.0,14.0,48.0,8.0,-24.0,30.0,-26.0,-32.0,-9.0,-30.0,0.0
-22.0,33.0,52.0,8.0,-4.0,29.0,-15.0,-22.0,13.0,-27.0,0.0
-12.0,43.0,41.0,8.0,8.0,24.0,-3.0,-6.0,29.0,-5.0,0.0
-11.0,26.0,36.0,-3.0,7.0,10.0,7.0,-12.0,24.0,9.0,0.0
-10.0,6.0,43.0,-2.0,-2.0,-5.0,-3.0,-30.0,-15.0,-7.0,0.0
7.0,10.0,49.0,0.0,-4.0,-5.0,-8.0,-37.0,-28.0,-12.0,0.0
59.0,4.0,28.0,-16.0,-13.0,9.0,9.0,-14.0,-25.0,6.0,0.0
85.0,37.0,7.0,-21.0,-23.0,17.0,19.0,8.0,-9.0,30.0,0.0
76.0,67.0,-2.0,-31.0,-23.0,24.0,-4.0,12.0,-3.0,33.0,0.0
36.0,77.0,-6.0,-19.0,-16.0,14.0,-14.0,7.0,-11.0,8.0,0.0
0.0,42.0,15.0,-6.0,0.0,6.0,-12.0,-2.0,-36.0,-19.0,0.0
4.0,12.0,-30.0,0.0,4.0,13.0,-19.0,-11.0,-46.0,-28.0,0.0
20.0,19.0,-25.0,22.0,17.0,30.0,-9.0,-11.0,-47.0,-27.0,0.0
17.0,13.0,-69.0,30.0,26.0,22.0,-16.0,-5.0,-53.0,-28.0,0.0
36.0,9.0,-123.0,0.0,3.0,4.0,-36.0,-6.0,-46.0,9.0,0.0
58.0,-14.0,-156.0,-49.0,-24.0,8.0,-36.0,20.0,12.0,79.0,0.0
63.0,-49.0,-106.0,-52.0,-37.0,25.0,-4.0,55.0,57.0,121.0,0.0
45.0,-40.0,-90.0,-45.0,-35.0,26.0,23.0,44.0,55.0,100.0,0.0
-19.0,-29.0,-40.0,-32.0,-20.0,18.0,21.0,0.0,-4.0,-3.0,0.0
-64.0,-29.0,44.0,-14.0,-2.0,26.0,0.0,-7.0,-32.0,-51.0,0.0
-58.0,-46.0,40.0,-31.0,-11.0,31.0,-12.0,-3.0,5.0,14.0,0.0
-60.0,-72.0,26.0,-54.0,-36.0,-3.0,-56.0,-3.0,-93.0,53.0,0.0
-72.0,-84.0,20.0,-47.0,-32.0,-9.0,-48.0,-6.0,-105.0,16.0,0.0
-78.0,-62.0,18.0,-3.0,-13.0,9.0,22.0,6.0,63.0,-1.0,0.0
-2.0,5.0,29.0,-11.0,-14.0,0.0,-2.0,-16.0,41.0,8.0,0.0
78.0,98.0,11.0,-22.0,-20.0,-13.0,-38.0,-41.0,3.0,7.0,0.0
120.0,166.0,34.0,-23.0,-30.0,-25.0,-58.0,-50.0,-50.0,-7.0,0.0
114.0,169.0,81.0,2.0,-18.0,-9.0,-46.0,-48.0,-67.0,-11.0,0.0
8.0,69.0,11.0,16.0,5.0,13.0,-20.0,-21.0,-27.0,-15.0,0.0
-110.0,-50.0,6.0,24.0,32.0,43.0,9.0,7.0,-6.0,-25.0,0.0
-127.0,-104.0,42.0,26.0,29.0,55.0,22.0,24.0,6.0,-4.0,0.0
-108.0,-92.0,57.0,26.0,20.0,28.0,8.0,20.0,26.0,22.0,0.0
-99.0,-42.0,63.0,40.0,19.0,10.0,-2.0,-2.0,39.0,6.0,0.0
-68.0,-1.0,51.0,44.0,7.0,3.0,9.0,-12.0,44.0,-21.0,0.0
-58.0,-11.0,45.0,27.0,11.0,9.0,53.0,-5.0,54.0,-36.0,0.0
-78.0,-30.0,39.0,22.0,20.0,8.0,73.0,0.0,57.0,-17.0,0.0
-55.0,-39.0,21.0,14.0,11.0,-4.0,58.0,-1.0,49.0,33.0,0.0
-44.0,-56.0,15.0,10.0,-9.0,-24.0,27.0,-20.0,34.0,12.0,0.0
-43.0,-72.0,15.0,17.0,-4.0,-22.0,14.0,-20.0,29.0,-10.0,0.0
-4.0,-52.0,20.0,8.0,0.0,-15.0,-1.0,-12.0,26.0,-10.0,0.0
23.0,-48.0,6.0,3.0,3.0,-14.0,2.0,4.0,34.0,-15.0,0.0
15.0,-62.0,-13.0,1.0,2.0,-5.0,20.0,14.0,39.0,-9.0,0.0
11.0,-12.0,-9.0,-4.0,2.0,-10.0,37.0,7.0,28.0,1.0,0.0
6.0,54.0,-31.0,0.0,2.0,-23.0,25.0,-21.0,-6.0,0.0,0.0
4.0,64.0,-115.0,6.0,-3.0,-22.0,-5.0,-29.0,-19.0,-7.0,0.0
11.0,49.0,-128.0,-1.0,-10.0,-10.0,-33.0,-38.0,-36.0,-17.0,0.0
12.0,35.0,-98.0,-15.0,-3.0,-8.0,-28.0,-27.0,-43.0,-25.0,0.0
9.0,-10.0,-13.0,-14.0,7.0,-11.0,-11.0,-11.0,-37.0,-13.0,0.0
2.0,-46.0,-55.0,-6.0,9.0,-3.0,17.0,3.0,-31.0,9.0,0.0
27.0,-52.0,-106.0,4.0,14.0,8.0,46.0,17.0,-20.0,14.0,0.0
41.0,-62.0,-24.0,-8.0,15.0,5.0,53.0,8.0,-20.0,11.0,0.0
40.0,-49.0,23.0,-26.0,2.0,0.0,27.0,0.0,-35.0,1.0,0.0
33.0,-37.0,32.0,-22.0,2.0,1.0,-13.0,-14.0,-26.0,-4.0,0.0
36.0,-21.0,20.0,-12.0,-2.0,-2.0,-26.0,-16.0,-18.0,-7.0,0.0
46.0,-7.0,3.0,-22.0,-4.0,-13.0,-35.0,-10.0,-14.0,-11.0,0.0
41.0,-5.0,1.0,-24.0,-3.0,-10.0,-26.0,-8.0,4.0,-3.0,0.0
46.0,12.0,-2.0,-26.0,-1.0,0.0,-22.0,-2.0,19.0,-2.0,0.0
55.0,0.0,-4.0,-24.0,12.0,5.0,-6.0,15.0,30.0,-2.0,0.0
38.0,-2.0,-22.0,-22.0,16.0,15.0,15.0,21.0,39.0,11.0,0.0
29.0,-4.0,-7.0,-14.0,12.0,19.0,26.0,35.0,53.0,17.0,0.0
26.0,19.0,18.0,-8.0,12.0,6.0,17.0,25.0,43.0,16.0,0.0
15.0,10.0,21.0,-5.0,19.0,-13.0,0.0,16.0,10.0,8.0,0.0
8.0,21.0,-31.0,-1.0,9.0,-16.0,-15.0,16.0,-7.0,-1.0,0.0
19.0,18.0,-21.0,-1.0,4.0,-13.0,-22.0,10.0,-22.0,-5.0,0.0
29.0,22.0,47.0,-1.0,8.0,-11.0,-19.0,6.0,-15.0,0.0,0.0
22.0,18.0,61.0,0.0,14.0,-12.0,-10.0,-2.0,-12.0,-4.0,0.0
3.0,12.0,56.0,10.0,13.0,-4.0,-14.0,0.0,-16.0,-6.0,0.0
12.0,27.0,37.0,3.0,11.0,6.0,-8.0,0.0,-24.0,0.0,0.0
9.0,9.0,14.0,1.0,5.0,-3.0,-10.0,6.0,-28.0,1.0,0.0
10.0,6.0,-6.0,5.0,2.0,-15.0,-24.0,-2.0,-32.0,0.0,0.0
20.0,-7.0,5.0,3.0,-6.0,-20.0,-28.0,-17.0,-21.0,-8.0,0.0
26.0,-3.0,8.0,6.0,-8.0,-24.0,-30.0,-14.0,-21.0,-2.0,0.0
18.0,-7.0,5.0,-5.0,0.0,-11.0,-13.0,8.0,-23.0,0.0,0.0
12.0,7.0,-6.0,-11.0,-1.0,4.0,9.0,15.0,-23.0,2.0,0.0
2.0,-12.0,11.0,-8.0,0.0,4.0,8.0,16.0,-7.0,23.0,0.0
-8.0,-10.0,10.0,-1.0,3.0,1.0,2.0,23.0,-14.0,24.0,0.0
4.0,-6.0,-50.0,-6.0,3.0,-3.0,21.0,18.0,-12.0,13.0,0.0
16.0,6.0,-104.0,-7.0,-1.0,-9.0,15.0,17.0,0.0,1.0,0.0
37.0,7.0,-6.0,0.0,0.0,-13.0,-12.0,12.0,1.0,3.0,0.0
49.0,28.0,34.0,-4.0,0.0,-30.0,-8.0,11.0,21.0,21.0,0.0
49.0,22.0,32.0,-15.0,-6.0,-30.0,-11.0,13.0,26.0,31.0,0.0
44.0,30.0,24.0,-13.0,-14.0,-30.0,0.0,3.0,48.0,32.0,0.0
18.0,11.0,16.0,-8.0,-11.0,-18.0,35.0,2.0,50.0,12.0,0.0
-5.0,-4.0,19.0,-3.0,-6.0,-6.0,32.0,13.0,20.0,-14.0,0.0
-23.0,-1.0,34.0,-8.0,4.0,3.0,15.0,14.0,20.0,-10.0,0.0
-22.0,-13.0,28.0,-14.0,4.0,8.0,17.0,14.0,26.0,1.0,0.0
-12.0,-17.0,21.0,-13.0,5.0,-1.0,12.0,9.0,17.0,0.0,0.0
-10.0,-16.0,9.0,4.0,-1.0,4.0,10.0,6.0,10.0,6.0,0.0
-11.0,-15.0,4.0,-10.0,-4.0,12.0,33.0,11.0,8.0,20.0,0.0
0.0,3.0,15.0,-8.0,-10.0,-1.0,44.0,3.0,16.0,11.0,0.0
-3.0,8.0,8.0,11.0,-8.0,-12.0,32.0,3.0,4.0,0.0,0.0
-2.0,23.0,27.0,19.0,-2.0,-25.0,17.0,0.0,-11.0,6.0,0.0
16.0,54.0,41.0,12.0,-8.0,-36.0,10.0,-16.0,-29.0,6.0,0.0
27.0,64.0,40.0,6.0,-10.0,-44.0,9.0,-34.0,-47.0,-8.0,0.0
40.0,73.0,49.0,9.0,-11.0,-33.0,-6.0,-35.0,-58.0,-16.0,0.0
58.0,67.0,52.0,13.0,-2.0,-9.0,6.0,-35.0,-70.0,-14.0,0.0
85.0,66.0,19.0,20.0,11.0,-6.0,-5.0,-39.0,-70.0,-10.0,0.0
184.0,91.0,34.0,3.0,-1.0,-10.0,-41.0,-44.0,-81.0,-5.0,0.0
252.0,105.0,16.0,-30.0,-21.0,-20.0,-47.0,-41.0,-75.0,15.0,0.0
260.0,95.0,-22.0,-45.0,-29.0,-38.0,-39.0,-38.0,-64.0,31.0,0.0
223.0,86.0,-49.0,-57.0,-46.0,-42.0,-52.0,-32.0,-23.0,59.0,0.0
176.0,149.0,-4.0,-49.0,-43.0,-40.0,-52.0,-31.0,-16.0,65.0,0.0
117.0,195.0,63.0,-23.0,-20.0,-31.0,-40.0,-21.0,-24.0,8.0,0.0
54.0,148.0,59.0,-18.0,4.0,-13.0,-11.0,-4.0,19.0,1.0,0.0
-4.0,76.0,33.0,-13.0,17.0,19.0,25.0,8.0,46.0,1.0,0.0
-66.0,-45.0,-19.0,-3.0,22.0,38.0,52.0,43.0,77.0,43.0,0.0
-206.0,-156.0,-38.0,2.0,22.0,28.0,37.0,62.0,91.0,51.0,0.0
-305.0,-213.0,-35.0,12.0,31.0,25.0,37.0,52.0,80.0,1.0,0.0
-252.0,-175.0,-30.0,27.0,42.0,26.0,45.0,53.0,93.0,-10.0,0.0
-197.0,-117.0,-11.0,15.0,28.0,26.0,59.0,51.0,96.0,8.0,0.0
-179.0,-58.0,1.0,14.0,22.0,38.0,58.0,43.0,75.0,-5.0,0.0
-153.0,-39.0,-14.0,28.0,31.0,56.0,54.0,35.0,52.0,-41.0,0.0
-94.0,-60.0,-58.0,16.0,25.0,54.0,43.0,26.0,35.0,-28.0,0.0
-86.0,-122.0,-83.0,29.0,36.0,46.0,36.0,26.0,33.0,8.0,0.0
-91.0,-145.0,-52.0,32.0,43.0,41.0,34.0,18.0,30.0,31.0,0.0
-100.0,-121.0,-39.0,29.0,33.0,20.0,17.0,10.0,19.0,41.0,0.0
-137.0,-100.0,16.0,47.0,20.0,13.0,0.0,2.0,19.0,49.0,0.0
-163.0,-79.0,66.0,66.0,21.0,0.0,-5.0,9.0,-3.0,20.0,0.0
-144.0,-64.0,85.0,70.0,13.0,-7.0,-18.0,-4.0,-48.0,-16.0,0.0
-114.0,-23.0,91.0,61.0,8.0,-19.0,-45.0,-26.0,-60.0,-32.0,0.0
-82.0,-11.0,93.0,47.0,-8.0,-22.0,-56.0,-34.0,-63.0,-30.0,0.0
-67.0,-5.0,83.0,44.0,-2.0,-21.0,-45.0,-30.0,-60.0,-26.0,0.0
-60.0,-3.0,61.0,38.0,6.0,-18.0,-34.0,-23.0,-50.0,-18.0,0.0
-48.0,-19.0,38.0,44.0,12.0,-4.0,-6.0,-13.0,-40.0,-7.0,0.0
-47.0,-52.0,18.0,41.0,26.0,9.0,33.0,4.0,-24.0,3.0,0.0
-42.0,-57.0,2.0,29.0,30.0,17.0,16.0,17.0,-18.0,0.0,0.0
-28.0,-19.0,4.0,18.0,18.0,2.0,-6.0,11.0,-15.0,5.0,0.0
-18.0,9.0,18.0,11.0,13.0,-14.0,-4.0,7.0,3.0,4.0,0.0
0.0,27.0,-15.0,2.0,11.0,-13.0,-6.0,10.0,10.0,-8.0,0.0
24.0,39.0,-28.0,0.0,1.0,-6.0,2.0,5.0,-1.0,-9.0,0.0
27.0,38.0,15.0,0.0,0.0,-7.0,25.0,0.0,10.0,4.0,0.0
22.0,24.0,14.0,-11.0,0.0,-8.0,36.0,3.0,24.0,10.0,0.0
27.0,3.0,10.0,-19.0,1.0,-10.0,36.0,0.0,39.0,14.0,0.0
19.0,19.0,-2.0,-28.0,-2.0,-8.0,45.0,-1.0,37.0,3.0,0.0
21.0,13.0,-19.0,-22.0,-1.0,-2.0,49.0,-4.0,27.0,-6.0,0.0
26.0,27.0,-11.0,-30.0,8.0,8.0,51.0,-6.0,31.0,0.0,0.0
36.0,14.0,-16.0,-48.0,6.0,2.0,27.0,3.0,24.0,-5.0,0.0
33.0,-8.0,-27.0,-53.0,4.0,0.0,-5.0,24.0,26.0,0.0,0.0
11.0,-21.0,-28.0,-49.0,9.0,5.0,2.0,37.0,24.0,5.0,0.0
7.0,11.0,-44.0,-38.0,6.0,-3.0,-4.0,23.0,5.0,-6.0,0.0
-13.0,-1.0,-135.0,-32.0,5.0,-17.0,-15.0,1.0,1.0,-21.0,0.0
4.0,20.0,-98.0,-26.0,12.0,-25.0,-19.0,-5.0,-5.0,-17.0,0.0
15.0,13.0,0.0,-6.0,20.0,-23.0,-23.0,-6.0,-13.0,-18.0,0.0
14.0,3.0,20.0,-1.0,20.0,-11.0,-25.0,0.0,-24.0,-17.0,0.0
23.0,0.0,19.0,-6.0,18.0,-12.0,-23.0,3.0,-28.0,-19.0,0.0
29.0,12.0,7.0,0.0,8.0,-13.0,-19.0,-16.0,-32.0,-10.0,0.0
26.0,7.0,-53.0,2.0,-7.0,-19.0,-19.0,-12.0,-43.0,1.0,0.0
22.0,27.0,-58.0,11.0,0.0,-19.0,-38.0,-8.0,-45.0,-2.0,0.0
26.0,17.0,0.0,-4.0,1.0,-17.0,-21.0,-13.0,-43.0,-15.0,0.0
11.0,12.0,-4.0,-21.0,-10.0,-15.0,0.0,-11.0,-46.0,-18.0,0.0
-9.0,-7.0,-1.0,-28.0,-24.0,-7.0,-14.0,-8.0,-26.0,-16.0,0.0
-7.0,-8.0,-10.0,-32.0,-29.0,0.0,-13.0,-13.0,-18.0,-20.0,0.0
-2.0,-11.0,3.0,-24.0,-22.0,10.0,-16.0,-22.0,-11.0,-14.0,0.0
-11.0,-11.0,16.0,-19.0,-19.0,11.0,-3.0,-13.0,-6.0,-4.0,0.0
-22.0,1.0,14.0,-12.0,-22.0,2.0,5.0,-4.0,-2.0,-6.0,0.0
-10.0,0.0,18.0,-14.0,-20.0,-3.0,7.0,-5.0,7.0,-1.0,0.0
-1.0,-11.0,24.0,-20.0,-8.0,-2.0,17.0,-6.0,11.0,-1.0,0.0
-7.0,-12.0,25.0,-13.0,-8.0,-9.0,24.0,7.0,14.0,6.0,0.0
-3.0,0.0,17.0,-1.0,-1.0,-6.0,26.0,18.0,21.0,2.0,0.0
0.0,15.0,19.0,0.0,-1.0,-4.0,28.0,18.0,33.0,6.0,0.0
8.0,19.0,16.0,2.0,-2.0,-6.0,13.0,5.0,36.0,16.0,0.0
7.0,23.0,8.0,8.0,-1.0,2.0,7.0,3.0,38.0,17.0,0.0
6.0,29.0,0.0,11.0,0.0,3.0,5.0,7.0,51.0,3.0,0.0
6.0,37.0,-5.0,11.0,0.0,0.0,5.0,11.0,46.0,3.0,0.0
8.0,29.0,-10.0,2.0,-7.0,-12.0,-5.0,8.0,24.0,5.0,0.0
27.0,44.0,-7.0,1.0,-12.0,-22.0,-24.0,-15.0,0.0,-2.0,0.0
27.0,78.0,1.0,4.0,-15.0,-33.0,-35.0,-21.0,-16.0,2.0,0.0
20.0,80.0,2.0,17.0,-12.0,-23.0,-23.0,-8.0,-20.0,-1.0,0.0
-5.0,48.0,-28.0,18.0,0.0,-14.0,-1.0,-19.0,-31.0,-16.0,0.0
-12.0,-3.0,-7.0,8.0,0.0,-5.0,8.0,-18.0,-42.0,-7.0,0.0
-5.0,-32.0,-26.0,-4.0,13.0,-1.0,0.0,-1.0,-24.0,21.0,0.0
-10.0,-43.0,-30.0,-7.0,19.0,-8.0,-7.0,20.0,-6.0,29.0,0.0
1.0,-44.0,-37.0,14.0,20.0,5.0,0.0,26.0,4.0,32.0,0.0
23.0,-28.0,-69.0,19.0,5.0,8.0,-3.0,26.0,2.0,32.0,0.0
30.0,-29.0,-27.0,20.0,-17.0,2.0,-13.0,25.0,-17.0,23.0,0.0
33.0,-5.0,-7.0,20.0,-8.0,5.0,1.0,27.0,-24.0,23.0,0.0
39.0,5.0,-6.0,13.0,0.0,1.0,0.0,27.0,-18.0,44.0,0.0
64.0,36.0,-2.0,6.0,-7.0,-6.0,3.0,18.0,-8.0,38.0,0.0
59.0,81.0,28.0,14.0,-1.0,-8.0,18.0,5.0,-26.0,16.0,0.0
71.0,72.0,26.0,12.0,-2.0,-25.0,-8.0,-6.0,-31.0,17.0,0.0
103.0,65.0,17.0,6.0,-5.0,-24.0,-35.0,-10.0,-47.0,5.0,0.0
116.0,38.0,0.0,-7.0,-7.0,-9.0,3.0,-8.0,-34.0,3.0,0.0
97.0,28.0,-3.0,-8.0,-12.0,-18.0,19.0,-11.0,-16.0,-7.0,0.0
38.0,2.0,4.0,6.0,0.0,-19.0,29.0,-22.0,-13.0,-15.0,0.0
4.0,-21.0,-3.0,11.0,5.0,-9.0,20.0,-12.0,-2.0,7.0,0.0
-47.0,-10.0,-12.0,10.0,0.0,-7.0,13.0,-14.0,9.0,-4.0,0.0
-100.0,-30.0,-28.0,-1.0,-12.0,-10.0,1.0,-2.0,57.0,-6.0,0.0
-117.0,-51.0,-18.0,-10.0,0.0,1.0,8.0,18.0,95.0,-6.0,0.0
-135.0,-78.0,-18.0,2.0,11.0,28.0,38.0,31.0,92.0,-1.0,0.0
-116.0,-45.0,13.0,24.0,23.0,28.0,26.0,30.0,87.0,-2.0,0.0
-94.0,-16.0,28.0,34.0,30.0,18.0,-4.0,17.0,61.0,-19.0,0.0
-69.0,-13.0,33.0,25.0,29.0,11.0,-12.0,15.0,37.0,-20.0,0.0
-60.0,-3.0,24.0,17.0,28.0,8.0,-14.0,10.0,9.0,-16.0,0.0
-42.0,-19.0,12.0,5.0,19.0,0.0,-23.0,-6.0,-5.0,-11.0,0.0
-5.0,-4.0,21.0,4.0,-4.0,-19.0,-29.0,-27.0,-30.0,-21.0,0.0
36.0,50.0,37.0,-5.0,-8.0,-17.0,-34.0,-29.0,-53.0,-13.0,0.0
94.0,111.0,27.0,-8.0,-6.0,-9.0,-30.0,-31.0,-58.0,-21.0,0.0
163.0,144.0,26.0,-19.0,-11.0,0.0,-3.0,-39.0,-66.0,-16.0,0.0
193.0,99.0,23.0,-30.0,0.0,24.0,-3.0,-25.0,-58.0,-12.0,0.0
121.0,-3.0,-7.0,-13.0,14.0,45.0,0.0,2.0,-33.0,-16.0,0.0
81.0,-72.0,-42.0,-21.0,-1.0,46.0,36.0,20.0,15.0,43.0,0.0
38.0,-102.0,-70.0,-45.0,-26.0,44.0,51.0,41.0,33.0,86.0,0.0
-36.0,-104.0,-69.0,-56.0,-30.0,45.0,47.0,46.0,37.0,95.0,0.0
-103.0,-111.0,-31.0,-25.0,-16.0,37.0,22.0,21.0,16.0,47.0,0.0
-167.0,-134.0,-11.0,-1.0,-12.0,34.0,13.0,14.0,9.0,4.0,0.0
-126.0,-86.0,3.0,-4.0,-13.0,25.0,-5.0,8.0,10.0,-4.0,0.0
-117.0,-45.0,23.0,16.0,2.0,26.0,-3.0,-4.0,6.0,-29.0,0.0
-83.0,-22.0,42.0,24.0,13.0,33.0,10.0,4.0,24.0,-33.0,0.0
-35.0,-2.0,44.0,31.0,22.0,18.0,1.0,1.0,38.0,-32.0,0.0
-16.0,21.0,50.0,49.0,26.0,0.0,-15.0,-19.0,24.0,-24.0,0.0
-43.0,-9.0,29.0,66.0,25.0,-9.0,-29.0,-17.0,8.0,-29.0,0.0
-72.0,-33.0,37.0,57.0,27.0,-1.0,-12.0,-15.0,4.0,-21.0,0.0
-69.0,-25.0,39.0,29.0,22.0,7.0,3.0,-16.0,10.0,-14.0,0.0
-33.0,3.0,14.0,12.0,23.0,4.0,-22.0,-17.0,0.0,-10.0,0.0
10.0,0.0,5.0,12.0,16.0,3.0,-24.0,-14.0,-3.0,-16.0,0.0
28.0,-13.0,17.0,8.0,10.0,1.0,-23.0,-13.0,-11.0,-23.0,0.0
3.0,-25.0,30.0,12.0,1.0,-4.0,-24.0,-7.0,-18.0,-34.0,0.0
-7.0,-61.0,13.0,7.0,0.0,3.0,-3.0,17.0,-5.0,-19.0,0.0
-10.0,-64.0,26.0,6.0,0.0,-2.0,-10.0,9.0,1.0,-11.0,0.0
-21.0,-42.0,45.0,8.0,-7.0,-13.0,-26.0,-21.0,-30.0,-19.0,0.0
-11.0,-31.0,32.0,9.0,-17.0,-27.0,7.0,-15.0,-42.0,-18.0,0.0
0.0,-10.0,4.0,-1.0,-19.0,-30.0,-10.0,-3.0,-31.0,-2.0,0.0
18.0,-3.0,1.0,0.0,-2.0,-18.0,-34.0,-4.0,-39.0,0.0,0.0
25.0,1.0,14.0,1.0,0.0,-8.0,-27.0,-11.0,-35.0,14.0,0.0
36.0,11.0,10.0,-10.0,-7.0,-10.0,-28.0,3.0,-37.0,10.0,0.0
40.0,17.0,1.0,-17.0,0.0,-22.0,-17.0,-2.0,-32.0,-6.0,0.0
38.0,10.0,-2.0,-16.0,-3.0,-28.0,-12.0,-7.0,-23.0,-2.0,0.0
28.0,11.0,2.0,-22.0,-2.0,-34.0,-8.0,-2.0,-15.0,7.0,0.0
35.0,8.0,2.0,-24.0,-6.0,-23.0,9.0,0.0,-6.0,7.0,0.0
38.0,2.0,-4.0,-20.0,-3.0,-3.0,37.0,8.0,3.0,15.0,0.0
42.0,28.0,-10.0,-15.0,0.0,8.0,41.0,2.0,17.0,19.0,0.0
61.0,40.0,-5.0,-8.0,-11.0,3.0,50.0,0.0,26.0,20.0,0.0
65.0,62.0,1.0,1.0,-13.0,0.0,61.0,0.0,41.0,14.0,0.0
62.0,68.0,-10.0,-1.0,-11.0,-11.0,71.0,-5.0,50.0,2.0,0.0
43.0,23.0,-17.0,-7.0,0.0,-2.0,64.0,4.0,49.0,11.0,0.0
31.0,-1.0,-28.0,-38.0,-3.0,-4.0,48.0,13.0,57.0,20.0,0.0
27.0,8.0,-29.0,-48.0,-16.0,-13.0,33.0,7.0,47.0,9.0,0.0
-4.0,30.0,-28.0,-30.0,-13.0,-2.0,40.0,14.0,17.0,-10.0,0.0
1.0,36.0,-20.0,-34.0,-7.0,4.0,37.0,9.0,6.0,-19.0,0.0
25.0,39.0,-7.0,-37.0,-4.0,0.0,25.0,-5.0,-2.0,0.0,0.0
45.0,56.0,-4.0,-34.0,-1.0,-12.0,8.0,-8.0,-1.0,14.0,0.0
41.0,42.0,-6.0,-30.0,-6.0,-18.0,-15.0,-5.0,7.0,21.0,0.0
28.0,21.0,-5.0,-30.0,-8.0,-24.0,-26.0,0.0,-9.0,0.0,0.0
20.0,20.0,0.0,-27.0,0.0,-14.0,-22.0,0.0,-39.0,-7.0,0.0
30.0,9.0,-5.0,-32.0,10.0,-3.0,-19.0,-4.0,-37.0,-6.0,0.0
37.0,21.0,-25.0,-19.0,14.0,1.0,-3.0,-1.0,-34.0,-4.0,0.0
23.0,31.0,-28.0,-12.0,16.0,-15.0,13.0,-9.0,-63.0,-15.0,0.0
21.0,31.0,-1.0,4.0,10.0,-30.0,9.0,-27.0,-76.0,-27.0,0.0
5.0,56.0,37.0,25.0,24.0,-19.0,0.0,-26.0,-45.0,-18.0,0.0
-16.0,42.0,50.0,32.0,32.0,7.0,-21.0,-3.0,-8.0,-6.0,0.0
-25.0,11.0,30.0,22.0,28.0,11.0,0.0,7.0,5.0,-20.0,0.0
-31.0,-19.0,-5.0,15.0,16.0,10.0,-7.0,19.0,32.0,-1.0,0.0
-40.0,-50.0,-32.0,10.0,14.0,17.0,-14.0,19.0,50.0,-2.0,0.0
-35.0,-51.0,-66.0,0.0,18.0,25.0,-12.0,22.0,73.0,-7.0,0.0
-6.0,-32.0,-42.0,12.0,12.0,31.0,-8.0,16.0,73.0,-7.0,0.0
-14.0,-3.0,6.0,31.0,10.0,19.0,-6.0,3.0,45.0,-33.0,0.0
-24.0,23.0,-9.0,40.0,9.0,9.0,0.0,-7.0,37.0,-40.0,0.0
-11.0,37.0,-39.0,28.0,9.0,-5.0,-8.0,-11.0,32.0,-22.0,0.0
9.0,13.0,-8.0,20.0,1.0,-18.0,-10.0,-11.0,33.0,-18.0,0.0
-1.0,5.0,5.0,14.0,-3.0,-9.0,-4.0,1.0,37.0,-1.0,0.0
-6.0,7.0,5.0,-1.0,-16.0,-5.0,23.0,5.0,35.0,13.0,0.0
-10.0,-16.0,0.0,0.0,-10.0,7.0,12.0,7.0,31.0,7.0,0.0
-27.0,-16.0,-19.0,0.0,-1.0,21.0,-5.0,10.0,23.0,-8.0,0.0
-24.0,-26.0,-81.0,-7.0,-1.0,16.0,-4.0,3.0,14.0,1.0,0.0
-26.0,-12.0,-40.0,-12.0,-4.0,9.0,-8.0,-9.0,2.0,0.0,0.0
-25.0,-3.0,-27.0,-6.0,-10.0,-7.0,-1.0,-14.0,-10.0,1.0,0.0
-14.0,6.0,-22.0,-4.0,-15.0,-15.0,-2.0,-16.0,-26.0,-4.0,0.0
-15.0,0.0,0.0,-8.0,-22.0,-24.0,23.0,-16.0,-31.0,-8.0,0.0
-9.0,8.0,-24.0,-5.0,-29.0,-19.0,19.0,-10.0,-34.0,0.0,0.0
0.0,-15.0,-46.0,-7.0,-38.0,-12.0,-20.0,-1.0,-45.0,12.0,0.0
-5.0,-25.0,-13.0,-10.0,-23.0,8.0,-26.0,8.0,-39.0,9.0,0.0
0.0,-29.0,22.0,-13.0,-10.0,14.0,-11.0,7.0,-8.0,3.0,0.0
7.0,-15.0,22.0,-18.0,-6.0,19.0,-6.0,-1.0,21.0,4.0,0.0
20.0,6.0,32.0,-10.0,1.0,19.0,-7.0,-3.0,35.0,0.0,0.0
55.0,47.0,35.0,-12.0,-5.0,12.0,0.0,-12.0,29.0,0.0,0.0
87.0,38.0,33.0,-5.0,2.0,2.0,1.0,-5.0,32.0,4.0,0.0
74.0,16.0,29.0,18.0,16.0,-2.0,1.0,-4.0,36.0,17.0,0.0
59.0,-3.0,5.0,7.0,5.0,-11.0,-5.0,-1.0,45.0,56.0,0.0
33.0,-13.0,-23.0,-2.0,-7.0,-7.0,-2.0,16.0,47.0,68.0,0.0
25.0,38.0,6.0,14.0,-17.0,1.0,-17.0,-11.0,11.0,9.0,0.0
66.0,92.0,48.0,15.0,-16.0,3.0,-22.0,-29.0,-21.0,-32.0,0.0
97.0,106.0,6.0,16.0,-6.0,15.0,-11.0,-24.0,-22.0,-34.0,0.0
100.0,103.0,5.0,6.0,-17.0,19.0,-14.0,-24.0,-29.0,-3.0,0.0
118.0,114.0,34.0,2.0,-28.0,12.0,-9.0,-32.0,-31.0,18.0,0.0
141.0,138.0,38.0,-9.0,-33.0,-1.0,-7.0,-32.0,-40.0,-8.0,0.0
121.0,157.0,59.0,-9.0,-34.0,-19.0,-33.0,-66.0,-82.0,-82.0,0.0
112.0,192.0,66.0,-1.0,-36.0,-33.0,-34.0,-87.0,-114.0,-117.0,0.0
146.0,164.0,45.0,-30.0,-47.0,-31.0,-18.0,-70.0,-70.0,-26.0,0.0
126.0,50.0,3.0,-62.0,-56.0,-12.0,-2.0,-33.0,-22.0,73.0,0.0
-1.0,-96.0,-9.0,-29.0,-22.0,27.0,27.0,13.0,19.0,97.0,0.0
-127.0,-162.0,-19.0,17.0,20.0,60.0,52.0,36.0,39.0,58.0,0.0
-167.0,-147.0,-12.0,30.0,12.0,58.0,64.0,45.0,38.0,33.0,0.0
-191.0,-128.0,-16.0,27.0,0.0,42.0,57.0,40.0,17.0,8.0,0.0
-205.0,-122.0,-4.0,35.0,21.0,36.0,58.0,29.0,19.0,-17.0,0.0
-192.0,-103.0,-28.0,29.0,33.0,39.0,51.0,24.0,37.0,-13.0,0.0
-153.0,-64.0,-13.0,23.0,18.0,13.0,17.0,20.0,57.0,-2.0,0.0
-127.0,-48.0,1.0,1.0,-1.0,-13.0,-9.0,5.0,54.0,-1.0,0.0
-118.0,-60.0,-3.0,-11.0,-8.0,-15.0,-13.0,1.0,39.0,-2.0,0.0
-97.0,-68.0,-16.0,1.0,-18.0,-10.0,6.0,4.0,25.0,-10.0,0.0
-84.0,-103.0,-35.0,0.0,-16.0,8.0,37.0,12.0,44.0,18.0,0.0
-64.0,-117.0,-39.0,-6.0,-2.0,29.0,39.0,21.0,58.0,31.0,0.0
-38.0,-94.0,-20.0,-15.0,-1.0,30.0,19.0,10.0,32.0,28.0,0.0
-21.0,-64.0,-19.0,-10.0,-20.0,21.0,-7.0,5.0,13.0,13.0,0.0
-20.0,-43.0,-13.0,-3.0,-24.0,23.0,-13.0,1.0,-2.0,5.0,0.0
-4.0,-42.0,6.0,-5.0,-30.0,21.0,-13.0,4.0,-12.0,4.0,0.0
2.0,-35.0,9.0,-3.0,-28.0,20.0,-4.0,-3.0,-22.0,3.0,0.0
-3.0,-22.0,23.0,10.0,-19.0,7.0,16.0,-14.0,-18.0,14.0,0.0
-17.0,-6.0,25.0,30.0,-6.0,-6.0,17.0,-8.0,-16.0,19.0,0.0
-23.0,3.0,26.0,24.0,0.0,-20.0,-5.0,-14.0,-32.0,15.0,0.0
-17.0,8.0,15.0,26.0,-6.0,-24.0,0.0,-21.0,-41.0,13.0,0.0
-15.0,-2.0,4.0,24.0,-17.0,-9.0,7.0,-18.0,-46.0,13.0,0.0
-8.0,-4.0,4.0,16.0,-19.0,2.0,8.0,-4.0,-42.0,14.0,0.0
5.0,1.0,-6.0,-2.0,-25.0,7.0,14.0,4.0,-27.0,14.0,0.0
6.0,14.0,-18.0,-26.0,-31.0,17.0,12.0,9.0,-17.0,15.0,0.0
9.0,9.0,-26.0,-23.0,-25.0,17.0,3.0,4.0,-11.0,14.0,0.0
0.0,29.0,-2.0,0.0,-21.0,8.0,-15.0,0.0,7.0,9.0,0.0
2.0,27.0,4.0,0.0,-14.0,5.0,-9.0,2.0,19.0,9.0,0.0
3.0,23.0,11.0,14.0,-7.0,4.0,-1.0,-2.0,28.0,9.0,0.0
9.0,13.0,27.0,21.0,-12.0,5.0,-19.0,-9.0,17.0,-1.0,0.0
15.0,26.0,49.0,25.0,-1.0,4.0,-23.0,-19.0,-2.0,-15.0,0.0
9.0,42.0,42.0,17.0,-2.0,-10.0,-21.0,-24.0,-13.0,-13.0,0.0
31.0,40.0,35.0,16.0,-19.0,-7.0,-8.0,-27.0,-28.0,-3.0,0.0
55.0,62.0,40.0,23.0,-13.0,0.0,3.0,-22.0,-32.0,-10.0,0.0
64.0,66.0,28.0,12.0,-7.0,-14.0,-30.0,-29.0,-51.0,-11.0,0.0
66.0,66.0,15.0,6.0,-8.0,-26.0,-39.0,-34.0,-59.0,-5.0,0.0
85.0,84.0,-13.0,-5.0,-18.0,-30.0,-23.0,-29.0,-55.0,-11.0,0.0
129.0,131.0,9.0,-25.0,-20.0,-44.0,-32.0,-44.0,-55.0,-4.0,0.0
125.0,180.0,61.0,-16.0,-12.0,-42.0,-40.0,-58.0,-63.0,-10.0,0.0
89.0,181.0,77.0,-6.0,-4.0,-19.0,-22.0,-33.0,-54.0,-23.0,0.0
40.0,103.0,62.0,2.0,8.0,10.0,-12.0,6.0,-32.0,0.0,0.0
-29.0,-35.0,6.0,-3.0,14.0,25.0,-6.0,37.0,11.0,29.0,0.0
-87.0,-125.0,-27.0,2.0,13.0,28.0,-11.0,43.0,27.0,16.0,0.0
-102.0,-163.0,-38.0,3.0,19.0,30.0,-6.0,37.0,11.0,-5.0,0.0
-104.0,-141.0,-30.0,18.0,27.0,27.0,5.0,34.0,18.0,-27.0,0.0
-88.0,-110.0,-24.0,16.0,19.0,16.0,1.0,37.0,29.0,-14.0,0.0
-46.0,-83.0,-27.0,2.0,7.0,9.0,3.0,32.0,53.0,-7.0,0.0
-38.0,-70.0,-29.0,5.0,9.0,8.0,14.0,32.0,65.0,-17.0,0.0
-54.0,-73.0,-32.0,7.0,13.0,14.0,47.0,32.0,69.0,-18.0,0.0
-32.0,-57.0,-22.0,0.0,18.0,13.0,80.0,32.0,66.0,-11.0,0.0
-11.0,-32.0,-37.0,4.0,11.0,11.0,63.0,18.0,50.0,-12.0,0.0
-8.0,-17.0,-46.0,20.0,13.0,2.0,31.0,21.0,33.0,-6.0,0.0
0.0,-21.0,-20.0,26.0,22.0,-7.0,28.0,23.0,18.0,7.0,0.0
8.0,-17.0,-2.0,15.0,19.0,-6.0,17.0,10.0,-2.0,13.0,0.0
16.0,-9.0,-11.0,4.0,21.0,3.0,10.0,0.0,0.0,17.0,0.0
20.0,-2.0,-36.0,-5.0,19.0,3.0,5.0,-11.0,4.0,15.0,0.0
17.0,4.0,-4.0,-1.0,18.0,0.0,-4.0,-8.0,-16.0,7.0,0.0
14.0,1.0,-7.0,-11.0,7.0,2.0,-7.0,-1.0,-11.0,3.0,0.0
23.0,14.0,-3.0,-7.0,2.0,8.0,-6.0,-1.0,-11.0,9.0,0.0
32.0,8.0,4.0,-13.0,11.0,1.0,-5.0,0.0,-17.0,-4.0,0.0
11.0,13.0,-51.0,-40.0,-9.0,0.0,12.0,11.0,13.0,13.0,0.0
7.0,23.0,7.0,-12.0,13.0,-1.0,6.0,9.0,13.0,17.0,0.0
16.0,14.0,11.0,4.0,24.0,0.0,4.0,10.0,4.0,18.0,0.0
21.0,25.0,6.0,6.0,30.0,5.0,-22.0,3.0,1.0,11.0,0.0
27.0,32.0,-7.0,-18.0,21.0,8.0,-15.0,12.0,4.0,12.0,0.0
31.0,14.0,-10.0,-27.0,7.0,5.0,11.0,14.0,10.0,13.0,0.0
28.0,-5.0,-84.0,-28.0,9.0,6.0,-5.0,8.0,1.0,14.0,0.0
16.0,-13.0,-152.0,-23.0,7.0,11.0,-8.0,2.0,-9.0,16.0,0.0
4.0,-8.0,-52.0,-13.0,3.0,6.0,-26.0,4.0,-15.0,23.0,0.0
-8.0,-15.0,-6.0,-16.0,2.0,0.0,-29.0,7.0,-27.0,8.0,0.0
-8.0,-10.0,15.0,-14.0,-7.0,-9.0,-17.0,-10.0,-24.0,-5.0,0.0
0.0,2.0,29.0,-19.0,-28.0,-10.0,0.0,-20.0,-18.0,0.0,0.0
-9.0,5.0,22.0,-13.0,-33.0,-8.0,10.0,-15.0,-8.0,12.0,0.0
2.0,17.0,36.0,-5.0,-18.0,-1.0,11.0,-26.0,0.0,6.0,0.0
41.0,84.0,49.0,-8.0,-26.0,0.0,-1.0,-30.0,11.0,-9.0,0.0
83.0,133.0,55.0,-9.0,-44.0,-14.0,-4.0,-38.0,13.0,-20.0,0.0
131.0,151.0,61.0,-1.0,-48.0,-26.0,5.0,-47.0,23.0,-26.0,0.0
163.0,135.0,43.0,-22.0,-50.0,-43.0,13.0,-50.0,42.0,-6.0,0.0
168.0,66.0,2.0,-40.0,-45.0,-36.0,14.0,-31.0,57.0,32.0,0.0
195.0,35.0,-12.0,-26.0,-15.0,-1.0,10.0,7.0,57.0,42.0,0.0
267.0,149.0,21.0,-20.0,8.0,1.0,-28.0,-12.0,-7.0,-4.0,0.0
269.0,209.0,39.0,-18.0,7.0,-12.0,-58.0,-41.0,-55.0,-46.0,0.0
221.0,180.0,14.0,-28.0,-9.0,-1.0,-50.0,-37.0,-27.0,-20.0,0.0
153.0,153.0,-5.0,-35.0,-24.0,-4.0,-65.0,-28.0,-16.0,22.0,0.0
5.0,60.0,20.0,-15.0,-33.0,-27.0,-76.0,-34.0,-8.0,28.0,0.0
-210.0,-61.0,45.0,25.0,-13.0,-35.0,-59.0,-27.0,-23.0,-30.0,0.0
-350.0,-175.0,25.0,54.0,11.0,-10.0,-40.0,-19.0,-31.0,-77.0,0.0
-305.0,-211.0,-16.0,21.0,0.0,-10.0,-18.0,19.0,20.0,-8.0,0.0
-253.0,-186.0,-33.0,11.0,2.0,-13.0,-12.0,41.0,36.0,33.0,0.0
-221.0,-128.0,-2.0,28.0,0.0,-6.0,-28.0,23.0,5.0,16.0,0.0
-208.0,-118.0,19.0,29.0,0.0,-4.0,-35.0,19.0,-9.0,5.0,0.0
-177.0,-129.0,5.0,15.0,7.0,-1.0,-30.0,24.0,4.0,3.0,0.0
-129.0,-116.0,-15.0,2.0,4.0,-2.0,-19.0,38.0,6.0,23.0,0.0
-115.0,-101.0,-14.0,13.0,11.0,4.0,0.0,41.0,-12.0,11.0,0.0
-113.0,-90.0,-16.0,0.0,15.0,24.0,4.0,37.0,-13.0,-10.0,0.0
-88.0,-73.0,-71.0,-2.0,21.0,26.0,-7.0,31.0,-25.0,-7.0,0.0
-70.0,-53.0,-146.0,-5.0,22.0,16.0,-6.0,30.0,-22.0,-21.0,0.0
-59.0,-34.0,-43.0,0.0,18.0,14.0,9.0,28.0,-9.0,-19.0,0.0
-7.0,-16.0,30.0,5.0,7.0,18.0,37.0,21.0,-3.0,1.0,0.0
25.0,2.0,30.0,14.0,0.0,26.0,50.0,13.0,2.0,0.0,0.0
22.0,-8.0,17.0,14.0,5.0,23.0,54.0,13.0,13.0,7.0,0.0
23.0,-12.0,13.0,15.0,25.0,16.0,46.0,20.0,31.0,13.0,0.0
24.0,16.0,8.0,12.0,30.0,11.0,36.0,19.0,31.0,-9.0,0.0
21.0,13.0,17.0,11.0,28.0,5.0,43.0,3.0,29.0,-24.0,0.0
23.0,16.0,9.0,13.0,15.0,1.0,14.0,-7.0,39.0,-24.0,0.0
39.0,16.0,-5.0,5.0,15.0,1.0,-21.0,0.0,34.0,-2.0,0.0
49.0,13.0,6.0,-5.0,4.0,2.0,-9.0,-3.0,22.0,4.0,0.0
39.0,31.0,11.0,-2.0,-6.0,4.0,-7.0,-13.0,10.0,-6.0,0.0
42.0,8.0,-5.0,-19.0,-24.0,4.0,-16.0,-15.0,5.0,-10.0,0.0
46.0,3.0,-21.0,-39.0,-36.0,2.0,-12.0,-11.0,-9.0,6.0,0.0
47.0,3.0,-35.0,-55.0,-33.0,2.0,16.0,-5.0,-16.0,15.0,0.0
47.0,1.0,-131.0,-61.0,-33.0,-7.0,47.0,-4.0,-16.0,19.0,0.0
50.0,4.0,-115.0,-50.0,-16.0,-8.0,48.0,-3.0,-17.0,14.0,0.0
55.0,12.0,-32.0,-33.0,-5.0,-3.0,23.0,-2.0,-8.0,16.0,0.0
54.0,18.0,-9.0,-17.0,5.0,-2.0,-3.0,-1.0,-12.0,20.0,0.0
58.0,-4.0,8.0,-11.0,17.0,-14.0,-16.0,-2.0,-23.0,8.0,0.0
58.0,1.0,16.0,-18.0,15.0,-18.0,-26.0,-6.0,-34.0,9.0,0.0
51.0,-7.0,22.0,-9.0,13.0,-32.0,-19.0,-16.0,-39.0,5.0,0.0
55.0,8.0,23.0,4.0,6.0,-31.0,-22.0,-15.0,-39.0,9.0,0.0
43.0,-3.0,15.0,-7.0,2.0,-23.0,-20.0,-1.0,-40.0,4.0,0.0
32.0,-10.0,19.0,-15.0,5.0,-14.0,-22.0,4.0,-43.0,1.0,0.0
16.0,-14.0,0.0,-5.0,1.0,-14.0,-25.0,-3.0,-44.0,-4.0,0.0
13.0,-4.0,-41.0,2.0,8.0,-21.0,-20.0,-22.0,-31.0,-23.0,0.0
7.0,-4.0,1.0,3.0,4.0,-10.0,-9.0,-18.0,-13.0,-29.0,0.0
0.0,2.0,16.0,18.0,15.0,-5.0,13.0,-12.0,1.0,-33.0,0.0
0.0,-4.0,14.0,27.0,34.0,-8.0,27.0,-38.0,-1.0,-36.0,0.0
-3.0,18.0,6.0,32.0,16.0,-6.0,27.0,-44.0,10.0,-19.0,0.0
-12.0,12.0,14.0,16.0,11.0,2.0,26.0,-41.0,15.0,-26.0,0.0
-26.0,33.0,35.0,21.0,12.0,5.0,23.0,-39.0,9.0,-27.0,0.0
-18.0,33.0,44.0,31.0,16.0,0.0,6.0,-38.0,6.0,-15.0,0.0
11.0,23.0,52.0,25.0,13.0,0.0,-24.0,-30.0,-18.0,-10.0,0.0
29.0,47.0,43.0,18.0,8.0,3.0,-25.0,-19.0,-28.0,-11.0,0.0
47.0,84.0,33.0,17.0,8.0,-9.0,-26.0,-15.0,-37.0,-7.0,0.0
96.0,113.0,20.0,0.0,-6.0,-25.0,-36.0,-28.0,-49.0,-13.0,0.0
136.0,119.0,-43.0,-6.0,-17.0,-45.0,-42.0,-33.0,-57.0,-7.0,0.0
167.0,122.0,-128.0,-27.0,-31.0,-48.0,-47.0,-31.0,-56.0,19.0,0.0
204.0,144.0,-8.0,-39.0,-46.0,-45.0,-55.0,-31.0,-44.0,70.0,0.0
182.0,174.0,77.0,-34.0,-56.0,-44.0,-51.0,-35.0,-38.0,52.0,0.0
110.0,126.0,65.0,-20.0,-48.0,-35.0,-26.0,-24.0,-58.0,4.0,0.0
38.0,16.0,28.0,0.0,-18.0,0.0,0.0,0.0,-56.0,-16.0,0.0
25.0,-56.0,-21.0,-10.0,-5.0,12.0,23.0,18.0,-25.0,14.0,0.0
32.0,-79.0,-43.0,-36.0,-19.0,2.0,25.0,16.0,7.0,35.0,0.0
-15.0,-82.0,-21.0,-15.0,0.0,20.0,37.0,9.0,-8.0,7.0,0.0
-47.0,-24.0,5.0,8.0,16.0,27.0,37.0,3.0,-19.0,-28.0,0.0
-32.0,6.0,7.0,5.0,5.0,25.0,33.0,6.0,22.0,-19.0,0.0
-40.0,-12.0,-1.0,2.0,-5.0,15.0,30.0,11.0,37.0,-17.0,0.0
-80.0,-35.0,-45.0,22.0,-2.0,22.0,36.0,17.0,29.0,-55.0,0.0
-122.0,-79.0,-72.0,17.0,5.0,37.0,35.0,39.0,68.0,-12.0,0.0
-116.0,-93.0,-56.0,3.0,-14.0,22.0,7.0,44.0,92.0,27.0,0.0
-129.0,-86.0,-25.0,23.0,-14.0,5.0,-18.0,25.0,66.0,13.0,0.0
-184.0,-119.0,6.0,31.0,13.0,5.0,-27.0,32.0,39.0,-14.0,0.0
-169.0,-112.0,2.0,28.0,26.0,11.0,-6.0,43.0,46.0,-12.0,0.0
-116.0,-84.0,-43.0,24.0,23.0,11.0,-2.0,41.0,41.0,9.0,0.0
-99.0,-64.0,-23.0,14.0,16.0,16.0,-14.0,40.0,17.0,14.0,0.0
-72.0,-53.0,-15.0,7.0,10.0,8.0,-19.0,29.0,4.0,3.0,0.0
-51.0,-46.0,-19.0,10.0,4.0,6.0,-18.0,19.0,1.0,0.0,0.0
-44.0,-35.0,-60.0,4.0,-4.0,6.0,-19.0,17.0,0.0,6.0,0.0
-42.0,-37.0,-115.0,7.0,-12.0,8.0,-11.0,25.0,-5.0,12.0,0.0
-43.0,-35.0,-31.0,10.0,-4.0,11.0,11.0,24.0,-9.0,14.0,0.0
-27.0,-30.0,7.0,-9.0,7.0,10.0,32.0,23.0,-10.0,13.0,0.0
-13.0,-35.0,15.0,-2.0,9.0,7.0,29.0,21.0,-10.0,16.0,0.0
-4.0,-37.0,24.0,4.0,2.0,7.0,20.0,17.0,-7.0,12.0,0.0
13.0,-23.0,25.0,-1.0,8.0,6.0,12.0,14.0,-17.0,15.0,0.0
18.0,-14.0,21.0,5.0,-1.0,4.0,11.0,18.0,-17.0,15.0,0.0
21.0,3.0,32.0,9.0,8.0,4.0,2.0,26.0,-25.0,14.0,0.0
20.0,6.0,35.0,-1.0,7.0,0.0,-3.0,23.0,-33.0,14.0,0.0
3.0,12.0,33.0,-14.0,0.0,-6.0,7.0,14.0,-24.0,15.0,0.0
-5.0,13.0,30.0,-4.0,-8.0,-8.0,9.0,11.0,-8.0,17.0,0.0
-17.0,9.0,12.0,-5.0,-11.0,-13.0,8.0,7.0,-5.0,7.0,0.0
-14.0,5.0,-63.0,-3.0,-6.0,-8.0,2.0,0.0,9.0,-1.0,0.0
-13.0,14.0,-52.0,-20.0,-7.0,-11.0,3.0,-5.0,9.0,-2.0,0.0
-1.0,3.0,1.0,-30.0,-10.0,-7.0,13.0,4.0,5.0,-5.0,0.0
19.0,17.0,-2.0,-26.0,-13.0,0.0,30.0,12.0,19.0,-1.0,0.0
25.0,19.0,0.0,-20.0,-4.0,7.0,35.0,4.0,38.0,2.0,0.0
25.0,11.0,-6.0,-21.0,-11.0,8.0,44.0,-1.0,34.0,-5.0,0.0
15.0,29.0,-17.0,-25.0,-11.0,18.0,41.0,7.0,34.0,0.0,0.0
31.0,27.0,-28.0,-41.0,-5.0,16.0,5.0,20.0,50.0,5.0,0.0
54.0,37.0,-30.0,-52.0,-14.0,13.0,-13.0,23.0,49.0,7.0,0.0
46.0,35.0,-13.0,-26.0,-5.0,19.0,-15.0,8.0,42.0,7.0,0.0
44.0,10.0,-3.0,-9.0,8.0,19.0,6.0,4.0,32.0,6.0,0.0
52.0,-1.0,0.0,-8.0,1.0,20.0,19.0,18.0,39.0,16.0,0.0
49.0,6.0,10.0,0.0,-1.0,8.0,8.0,5.0,17.0,7.0,0.0
59.0,48.0,-35.0,20.0,-10.0,-22.0,-13.0,-20.0,-15.0,-1.0,0.0
88.0,81.0,-33.0,13.0,-15.0,-44.0,-48.0,-40.0,-44.0,1.0,0.0
148.0,122.0,33.0,5.0,-12.0,-60.0,-86.0,-62.0,-76.0,-13.0,0.0
193.0,159.0,64.0,19.0,-3.0,-43.0,-72.0,-59.0,-84.0,-31.0,0.0
201.0,155.0,41.0,15.0,-3.0,-14.0,-40.0,-27.0,-60.0,-17.0,0.0
149.0,123.0,69.0,6.0,4.0,-3.0,-28.0,-23.0,-29.0,2.0,0.0
66.0,50.0,74.0,16.0,29.0,11.0,-17.0,-9.0,-6.0,30.0,0.0
13.0,-1.0,54.0,17.0,12.0,13.0,0.0,-23.0,-8.0,24.0,0.0
-106.0,-40.0,57.0,28.0,4.0,9.0,6.0,-44.0,-35.0,-39.0,0.0
-153.0,-73.0,54.0,42.0,3.0,11.0,14.0,-32.0,-32.0,-60.0,0.0
-116.0,-46.0,57.0,35.0,-8.0,4.0,10.0,-20.0,-29.0,-21.0,0.0
-106.0,-68.0,44.0,17.0,-12.0,6.0,-4.0,-4.0,-9.0,9.0,0.0
-154.0,-100.0,48.0,28.0,3.0,2.0,-19.0,-7.0,-14.0,-25.0,0.0
-150.0,-95.0,52.0,37.0,5.0,-7.0,-17.0,-9.0,-28.0,-50.0,0.0
-109.0,-54.0,62.0,34.0,11.0,-32.0,-29.0,-8.0,-33.0,-49.0,0.0
-85.0,-41.0,67.0,36.0,26.0,-22.0,-34.0,6.0,-16.0,-33.0,0.0
-67.0,-58.0,48.0,27.0,37.0,0.0,-24.0,27.0,16.0,-4.0,0.0
-53.0,-49.0,15.0,13.0,16.0,-2.0,-18.0,22.0,38.0,7.0,0.0
-81.0,-61.0,-77.0,4.0,-1.0,4.0,6.0,25.0,55.0,16.0,0.0
-102.0,-79.0,-101.0,16.0,1.0,17.0,48.0,25.0,58.0,-3.0,0.0
-75.0,-57.0,0.0,19.0,7.0,18.0,55.0,23.0,68.0,-13.0,0.0
-40.0,-41.0,22.0,12.0,2.0,23.0,56.0,18.0,61.0,0.0,0.0
-31.0,-33.0,-5.0,6.0,-6.0,25.0,33.0,15.0,48.0,-1.0,0.0
-19.0,-30.0,25.0,5.0,-4.0,10.0,22.0,4.0,51.0,-6.0,0.0
-7.0,-24.0,-19.0,6.0,-1.0,5.0,10.0,-4.0,30.0,9.0,0.0
-17.0,-19.0,-20.0,4.0,-3.0,13.0,-12.0,-6.0,24.0,7.0,0.0
-12.0,-15.0,30.0,4.0,-4.0,8.0,-25.0,-9.0,23.0,-8.0,0.0
11.0,-3.0,28.0,0.0,0.0,3.0,-27.0,0.0,14.0,-6.0,0.0
21.0,-14.0,17.0,-4.0,1.0,-10.0,-17.0,-2.0,6.0,-3.0,0.0
17.0,-11.0,0.0,-6.0,0.0,-15.0,-21.0,-6.0,0.0,-3.0,0.0
21.0,1.0,-69.0,-5.0,-2.0,-11.0,-25.0,-9.0,-9.0,-3.0,0.0
16.0,0.0,-35.0,1.0,-5.0,-18.0,-16.0,-1.0,0.0,-6.0,0.0
21.0,-9.0,-1.0,5.0,1.0,-19.0,-17.0,2.0,7.0,4.0,0.0
21.0,-9.0,-97.0,-6.0,-2.0,-9.0,-18.0,0.0,-1.0,0.0,0.0
29.0,0.0,-56.0,-3.0,-3.0,-8.0,-12.0,0.0,-13.0,-8.0,0.0
25.0,0.0,26.0,7.0,-6.0,-15.0,-4.0,7.0,-19.0,0.0,0.0
15.0,10.0,20.0,1.0,-14.0,-20.0,16.0,8.0,-19.0,0.0,0.0
3.0,2.0,16.0,-7.0,-11.0,-33.0,-5.0,-2.0,-10.0,-3.0,0.0
10.0,-3.0,6.0,-10.0,1.0,-27.0,-7.0,-13.0,-2.0,-4.0,0.0
12.0,2.0,-24.0,-15.0,2.0,-5.0,1.0,-10.0,0.0,-2.0,0.0
1.0,11.0,7.0,-14.0,-7.0,11.0,-2.0,2.0,7.0,6.0,0.0
9.0,14.0,15.0,-10.0,-13.0,13.0,8.0,5.0,15.0,0.0,0.0
-7.0,18.0,15.0,-5.0,-11.0,13.0,14.0,0.0,30.0,-8.0,0.0
-21.0,2.0,9.0,0.0,-21.0,22.0,-7.0,-4.0,41.0,-7.0,0.0
-25.0,0.0,-1.0,0.0,-22.0,25.0,-1.0,0.0,36.0,-10.0,0.0
6.0,16.0,-1.0,1.0,-26.0,14.0,-3.0,0.0,30.0,0.0,0.0
19.0,32.0,-30.0,9.0,-23.0,8.0,0.0,-1.0,34.0,-6.0,0.0
20.0,20.0,-70.0,-1.0,-21.0,10.0,16.0,1.0,41.0,0.0,0.0
22.0,24.0,-55.0,-8.0,-13.0,11.0,22.0,4.0,41.0,25.0,0.0
37.0,5.0,-41.0,-16.0,-19.0,14.0,32.0,15.0,29.0,34.0,0.0
27.0,12.0,-9.0,-32.0,-21.0,3.0,34.0,17.0,28.0,28.0,0.0
15.0,9.0,-8.0,-34.0,-14.0,3.0,33.0,22.0,34.0,23.0,0.0
30.0,-5.0,-26.0,-40.0,-17.0,9.0,16.0,29.0,31.0,29.0,0.0
27.0,-19.0,-41.0,-61.0,-30.0,25.0,35.0,25.0,17.0,34.0,0.0
20.0,-1.0,-35.0,-54.0,-13.0,37.0,48.0,17.0,4.0,33.0,0.0
17.0,-2.0,-12.0,-36.0,-5.0,29.0,33.0,6.0,-10.0,22.0,0.0
1.0,3.0,-49.0,-18.0,-8.0,16.0,1.0,4.0,-27.0,13.0,0.0
-9.0,6.0,3.0,10.0,0.0,11.0,-30.0,0.0,-33.0,14.0,0.0
-10.0,47.0,56.0,41.0,10.0,-1.0,-33.0,-16.0,-44.0,8.0,0.0
31.0,74.0,100.0,44.0,12.0,-8.0,-31.0,-32.0,-54.0,0.0,0.0
73.0,79.0,89.0,42.0,8.0,-22.0,-47.0,-44.0,-69.0,-9.0,0.0
132.0,87.0,80.0,23.0,2.0,-47.0,-70.0,-57.0,-100.0,-35.0,0.0
180.0,108.0,83.0,21.0,9.0,-54.0,-68.0,-63.0,-117.0,-54.0,0.0
189.0,102.0,94.0,24.0,34.0,-16.0,-33.0,-42.0,-100.0,-43.0,0.0
150.0,89.0,79.0,6.0,46.0,-5.0,-1.0,-24.0,-59.0,-4.0,0.0
105.0,99.0,42.0,-6.0,17.0,-24.0,-1.0,-15.0,-8.0,35.0,0.0
32.0,54.0,-57.0,-28.0,-12.0,-38.0,10.0,2.0,58.0,99.0,0.0
-24.0,15.0,6.0,-13.0,-4.0,-33.0,34.0,15.0,92.0,62.0,0.0
-72.0,-2.0,50.0,19.0,19.0,-19.0,34.0,5.0,84.0,1.0,0.0
-97.0,-26.0,46.0,14.0,9.0,-12.0,-7.0,-8.0,64.0,0.0,0.0
-121.0,-29.0,38.0,9.0,10.0,0.0,-20.0,-6.0,58.0,-6.0,0.0
-107.0,-30.0,-15.0,4.0,15.0,20.0,-4.0,1.0,67.0,3.0,0.0
-112.0,-51.0,-7.0,-3.0,17.0,23.0,15.0,-8.0,42.0,-5.0,0.0
-133.0,-71.0,-41.0,0.0,8.0,1.0,-1.0,-15.0,20.0,-29.0,0.0
-115.0,-53.0,-112.0,0.0,15.0,7.0,-8.0,-10.0,3.0,-34.0,0.0
-106.0,-53.0,-25.0,11.0,36.0,29.0,-7.0,4.0,-3.0,-19.0,0.0
-90.0,-33.0,44.0,11.0,26.0,18.0,-23.0,0.0,-2.0,6.0,0.0
-97.0,-13.0,50.0,15.0,18.0,0.0,-27.0,-16.0,-20.0,-14.0,0.0
-86.0,11.0,40.0,12.0,11.0,-16.0,-6.0,-14.0,-29.0,-25.0,0.0
-40.0,9.0,19.0,6.0,10.0,-13.0,9.0,0.0,-23.0,-20.0,0.0
-15.0,-11.0,19.0,12.0,33.0,13.0,18.0,8.0,-24.0,-5.0,0.0
-12.0,-81.0,-45.0,23.0,44.0,31.0,6.0,25.0,-5.0,-8.0,0.0
-19.0,-113.0,-158.0,29.0,38.0,28.0,5.0,43.0,29.0,30.0,0.0
-22.0,-57.0,-82.0,23.0,14.0,-3.0,-2.0,21.0,-6.0,38.0,0.0
-40.0,-18.0,10.0,11.0,4.0,-21.0,-33.0,6.0,-46.0,0.0,0.0
-15.0,-8.0,-4.0,-10.0,-4.0,-8.0,-28.0,13.0,-31.0,10.0,0.0
24.0,8.0,4.0,-21.0,-10.0,-1.0,-24.0,2.0,-33.0,9.0,0.0
49.0,37.0,23.0,-26.0,-17.0,11.0,-26.0,2.0,-26.0,-7.0,0.0
56.0,9.0,21.0,-14.0,-2.0,24.0,-25.0,21.0,-13.0,-1.0,0.0
29.0,-57.0,-8.0,-8.0,12.0,32.0,7.0,38.0,15.0,22.0,0.0
1.0,-66.0,-17.0,0.0,8.0,30.0,27.0,33.0,20.0,24.0,0.0
-46.0,-22.0,33.0,20.0,12.0,17.0,15.0,14.0,-1.0,-13.0,0.0
-61.0,-25.0,32.0,24.0,10.0,0.0,-2.0,13.0,12.0,-15.0,0.0
-40.0,-35.0,22.0,20.0,11.0,1.0,-1.0,15.0,45.0,10.0,0.0
-22.0,-28.0,24.0,19.0,12.0,4.0,4.0,4.0,33.0,9.0,0.0
0.0,-21.0,-5.0,22.0,6.0,14.0,6.0,3.0,-12.0,0.0,0.0
16.0,-22.0,-71.0,13.0,6.0,12.0,26.0,11.0,-28.0,-6.0,0.0
25.0,-10.0,-7.0,1.0,7.0,13.0,43.0,13.0,-17.0,-9.0,0.0
35.0,8.0,10.0,-9.0,9.0,15.0,44.0,21.0,-4.0,7.0,0.0
33.0,18.0,6.0,-25.0,10.0,22.0,42.0,31.0,11.0,14.0,0.0
32.0,20.0,-30.0,-26.0,10.0,21.0,44.0,32.0,30.0,16.0,0.0
35.0,35.0,-97.0,-12.0,0.0,15.0,24.0,23.0,28.0,15.0,0.0
22.0,37.0,-17.0,-4.0,12.0,13.0,15.0,23.0,11.0,-13.0,0.0
16.0,25.0,27.0,-6.0,22.0,7.0,9.0,7.0,-20.0,-48.0,0.0
37.0,56.0,35.0,13.0,22.0,19.0,-16.0,-1.0,-46.0,-43.0,0.0
108.0,97.0,23.0,17.0,13.0,7.0,-24.0,-6.0,-37.0,1.0,0.0
152.0,110.0,25.0,-1.0,-4.0,-13.0,-13.0,-20.0,-27.0,54.0,0.0
130.0,107.0,10.0,-20.0,-17.0,-14.0,-22.0,-28.0,-22.0,49.0,0.0
76.0,23.0,-27.0,-44.0,-22.0,-7.0,-6.0,-2.0,21.0,79.0,0.0
16.0,-13.0,-18.0,-34.0,-24.0,-14.0,-16.0,-2.0,24.0,50.0,0.0
-44.0,28.0,35.0,11.0,-6.0,-13.0,-41.0,-34.0,-17.0,-44.0,0.0
-88.0,-15.0,45.0,40.0,29.0,11.0,-14.0,-26.0,-26.0,-91.0,0.0
-75.0,-49.0,39.0,49.0,41.0,23.0,16.0,-2.0,17.0,-67.0,0.0
-36.0,-27.0,42.0,28.0,26.0,4.0,11.0,-6.0,41.0,-36.0,0.0
-40.0,-16.0,20.0,18.0,4.0,-1.0,15.0,10.0,59.0,3.0,0.0
-34.0,-15.0,-36.0,8.0,4.0,8.0,19.0,16.0,49.0,-1.0,0.0
-25.0,6.0,-79.0,13.0,14.0,0.0,5.0,3.0,5.0,-33.0,0.0
-17.0,-17.0,-118.0,10.0,24.0,-5.0,8.0,15.0,-1.0,-22.0,0.0
-6.0,-4.0,-120.0,0.0,14.0,-7.0,12.0,18.0,5.0,-11.0,0.0
-10.0,-9.0,-76.0,-4.0,7.0,-5.0,-18.0,7.0,7.0,-7.0,0.0
-24.0,-24.0,25.0,7.0,0.0,-6.0,-37.0,12.0,5.0,3.0,0.0
-25.0,-28.0,51.0,1.0,-13.0,-7.0,-36.0,2.0,-14.0,-1.0,0.0
-8.0,-34.0,33.0,-17.0,-8.0,2.0,-27.0,2.0,-24.0,-8.0,0.0
0.0,-40.0,35.0,-28.0,2.0,6.0,-32.0,10.0,-28.0,0.0,0.0
-8.0,-24.0,-25.0,-35.0,-9.0,8.0,-41.0,14.0,-27.0,0.0,0.0
4.0,-19.0,-119.0,-31.0,-18.0,9.0,-41.0,3.0,-24.0,-10.0,0.0
-5.0,-23.0,-88.0,-15.0,-14.0,4.0,-36.0,2.0,-17.0,-1.0,0.0
-21.0,-21.0,10.0,-23.0,-7.0,4.0,-19.0,-4.0,-13.0,0.0,0.0
-12.0,-22.0,34.0,-35.0,12.0,4.0,-19.0,-9.0,-14.0,-2.0,0.0
-12.0,-4.0,-11.0,-24.0,10.0,0.0,0.0,0.0,-18.0,0.0,0.0
-15.0,0.0,18.0,-12.0,5.0,0.0,21.0,-1.0,-32.0,-4.0,0.0
0.0,7.0,4.0,-9.0,-2.0,3.0,20.0,-2.0,-28.0,-13.0,0.0
27.0,6.0,-45.0,-5.0,6.0,12.0,21.0,4.0,-14.0,-4.0,0.0
31.0,18.0,-2.0,-6.0,4.0,5.0,16.0,8.0,-3.0,2.0,0.0
21.0,28.0,15.0,-7.0,4.0,12.0,22.0,9.0,16.0,-3.0,0.0
21.0,30.0,-69.0,1.0,11.0,21.0,34.0,10.0,28.0,-2.0,0.0
34.0,39.0,-6.0,-3.0,18.0,19.0,35.0,7.0,40.0,2.0,0.0
33.0,20.0,55.0,-10.0,18.0,8.0,36.0,3.0,38.0,0.0,0.0
31.0,10.0,63.0,0.0,16.0,1.0,23.0,-2.0,23.0,-10.0,0.0
25.0,24.0,63.0,0.0,11.0,0.0,-12.0,-12.0,22.0,-21.0,0.0
17.0,13.0,62.0,-15.0,9.0,-8.0,-31.0,-29.0,13.0,-20.0,0.0
14.0,9.0,54.0,-14.0,6.0,-16.0,-39.0,-36.0,11.0,-33.0,0.0
-9.0,9.0,50.0,6.0,1.0,-26.0,-49.0,-31.0,-6.0,-35.0,0.0
-5.0,7.0,47.0,7.0,4.0,-24.0,-42.0,-35.0,-14.0,-29.0,0.0
19.0,16.0,54.0,-5.0,2.0,-15.0,-37.0,-32.0,-4.0,-23.0,0.0
18.0,11.0,53.0,3.0,4.0,-14.0,-34.0,-28.0,-13.0,-8.0,0.0
10.0,14.0,27.0,-9.0,2.0,-21.0,-31.0,-18.0,-9.0,2.0,0.0
13.0,16.0,0.0,-22.0,-7.0,-19.0,-14.0,-8.0,-4.0,13.0,0.0
15.0,8.0,3.0,-25.0,-9.0,-12.0,21.0,3.0,1.0,26.0,0.0
16.0,9.0,2.0,-32.0,-12.0,-11.0,20.0,6.0,5.0,34.0,0.0
33.0,3.0,-21.0,-51.0,-9.0,-2.0,4.0,7.0,15.0,33.0,0.0
22.0,-16.0,-30.0,-63.0,-14.0,3.0,-14.0,12.0,0.0,25.0,0.0
18.0,-22.0,-32.0,-47.0,-8.0,2.0,-4.0,0.0,-17.0,22.0,0.0
14.0,-15.0,-28.0,-24.0,-5.0,5.0,-11.0,-11.0,-26.0,8.0,0.0
31.0,6.0,-21.0,-14.0,-10.0,6.0,-21.0,-14.0,-36.0,-4.0,0.0
53.0,23.0,10.0,-3.0,-6.0,0.0,-22.0,-21.0,-51.0,-23.0,0.0
89.0,62.0,22.0,2.0,-11.0,-8.0,-28.0,-33.0,-60.0,-29.0,0.0
105.0,92.0,-41.0,-10.0,-35.0,-23.0,-48.0,-51.0,-67.0,-27.0,0.0
126.0,73.0,-2.0,-23.0,-51.0,-33.0,-53.0,-60.0,-64.0,5.0,0.0
83.0,38.0,13.0,-24.0,-44.0,-12.0,-36.0,-35.0,-20.0,46.0,0.0
6.0,0.0,9.0,1.0,-34.0,8.0,5.0,-12.0,7.0,43.0,0.0
-71.0,-19.0,37.0,36.0,-17.0,5.0,18.0,-15.0,-6.0,-18.0,0.0
-130.0,-31.0,57.0,60.0,-3.0,4.0,23.0,-17.0,0.0,-46.0,0.0
-126.0,-41.0,52.0,59.0,-3.0,13.0,42.0,-3.0,23.0,-11.0,0.0
-118.0,-45.0,42.0,55.0,2.0,30.0,57.0,13.0,41.0,-9.0,0.0
-108.0,-57.0,19.0,36.0,1.0,30.0,63.0,22.0,50.0,-15.0,0.0
-77.0,-39.0,-55.0,33.0,-10.0,9.0,35.0,20.0,49.0,-4.0,0.0
-75.0,-25.0,-64.0,29.0,-17.0,-6.0,16.0,10.0,50.0,7.0,0.0
-58.0,-31.0,-10.0,23.0,-22.0,-12.0,19.0,10.0,51.0,4.0,0.0
-40.0,-24.0,-97.0,19.0,-20.0,-4.0,24.0,4.0,53.0,6.0,0.0
-81.0,-37.0,-106.0,22.0,-11.0,0.0,26.0,-2.0,41.0,-7.0,0.0
-82.0,-41.0,-1.0,12.0,-7.0,7.0,23.0,-4.0,40.0,-11.0,0.0
-37.0,-50.0,13.0,7.0,-2.0,16.0,31.0,-4.0,28.0,8.0,0.0
-33.0,-50.0,-56.0,21.0,15.0,14.0,30.0,1.0,20.0,-6.0,0.0
-31.0,-18.0,-63.0,17.0,16.0,9.0,16.0,-8.0,17.0,-3.0,0.0
-16.0,-5.0,34.0,16.0,16.0,0.0,8.0,-8.0,10.0,-6.0,0.0
-4.0,-14.0,46.0,14.0,21.0,5.0,4.0,-4.0,-6.0,-8.0,0.0
-2.0,-23.0,27.0,4.0,26.0,3.0,-15.0,5.0,-15.0,0.0,0.0
4.0,-18.0,24.0,-2.0,29.0,2.0,-16.0,0.0,-15.0,4.0,0.0
24.0,3.0,29.0,-6.0,28.0,-3.0,14.0,-5.0,-23.0,18.0,0.0
28.0,-7.0,29.0,6.0,22.0,-7.0,22.0,0.0,-33.0,25.0,0.0
16.0,11.0,25.0,15.0,13.0,-2.0,12.0,8.0,-24.0,13.0,0.0
27.0,29.0,28.0,0.0,13.0,8.0,-4.0,7.0,-26.0,2.0,0.0
51.0,26.0,13.0,-18.0,8.0,9.0,-26.0,7.0,-34.0,2.0,0.0
54.0,42.0,6.0,-21.0,-3.0,-6.0,-19.0,10.0,-26.0,8.0,0.0
57.0,18.0,0.0,-35.0,-11.0,-11.0,-17.0,3.0,-23.0,25.0,0.0
45.0,8.0,-11.0,-50.0,-20.0,-9.0,-26.0,9.0,-8.0,37.0,0.0
25.0,1.0,-6.0,-38.0,-32.0,-21.0,-28.0,5.0,13.0,21.0,0.0
10.0,0.0,5.0,-23.0,-19.0,-11.0,-16.0,0.0,21.0,6.0,0.0
-10.0,4.0,9.0,-24.0,-16.0,-2.0,-14.0,1.0,22.0,1.0,0.0
-11.0,10.0,4.0,-29.0,-20.0,-4.0,-13.0,-8.0,16.0,0.0,0.0
-13.0,26.0,-3.0,-32.0,-21.0,-4.0,20.0,-11.0,20.0,-2.0,0.0
-4.0,43.0,-12.0,-29.0,-31.0,1.0,13.0,-14.0,21.0,4.0,0.0
54.0,112.0,-55.0,-26.0,-44.0,-20.0,-31.0,-30.0,28.0,15.0,0.0
128.0,182.0,-140.0,-34.0,-56.0,-31.0,-59.0,-48.0,14.0,24.0,0.0
188.0,212.0,-116.0,-48.0,-64.0,-40.0,-77.0,-54.0,-10.0,12.0,0.0
256.0,269.0,27.0,-33.0,-58.0,-55.0,-75.0,-60.0,-24.0,-17.0,0.0
318.0,284.0,62.0,-3.0,-23.0,-32.0,-15.0,-49.0,-6.0,10.0,0.0
321.0,225.0,-16.0,10.0,5.0,0.0,45.0,-20.0,0.0,22.0,0.0
259.0,155.0,-20.0,25.0,26.0,13.0,61.0,-8.0,-17.0,-34.0,0.0
105.0,6.0,30.0,8.0,44.0,42.0,87.0,38.0,43.0,23.0,0.0
-94.0,-97.0,60.0,20.0,26.0,19.0,65.0,27.0,65.0,58.0,0.0
-241.0,-123.0,101.0,55.0,8.0,-39.0,-4.0,-22.0,0.0,-22.0,0.0
-344.0,-220.0,68.0,56.0,11.0,-40.0,-17.0,-12.0,27.0,12.0,0.0
-376.0,-262.0,42.0,42.0,16.0,-6.0,0.0,27.0,35.0,11.0,0.0
-351.0,-210.0,40.0,40.0,37.0,9.0,17.0,35.0,-4.0,-65.0,0.0
-280.0,-130.0,23.0,54.0,40.0,24.0,13.0,20.0,-30.0,-79.0,0.0
-201.0,-113.0,-11.0,46.0,31.0,24.0,18.0,30.0,-26.0,-44.0,0.0
-158.0,-127.0,-2.0,31.0,18.0,14.0,22.0,33.0,-19.0,-10.0,0.0
-158.0,-140.0,10.0,34.0,19.0,14.0,17.0,18.0,-25.0,5.0,0.0
-169.0,-159.0,-1.0,30.0,22.0,14.0,21.0,4.0,-50.0,-20.0,0.0
-152.0,-154.0,-14.0,17.0,18.0,22.0,24.0,11.0,-42.0,-32.0,0.0
-120.0,-107.0,-29.0,1.0,15.0,20.0,26.0,29.0,-22.0,-20.0,0.0
-89.0,-73.0,-103.0,-8.0,10.0,9.0,12.0,21.0,-5.0,-4.0,0.0
-49.0,-59.0,-35.0,-9.0,14.0,7.0,-11.0,30.0,6.0,11.0,0.0
-18.0,-45.0,8.0,-3.0,25.0,20.0,-16.0,28.0,12.0,20.0,0.0
-15.0,-51.0,-19.0,-6.0,25.0,17.0,-19.0,19.0,26.0,33.0,0.0
-14.0,-46.0,-120.0,6.0,18.0,15.0,-15.0,23.0,30.0,50.0,0.0
-12.0,-36.0,-73.0,10.0,19.0,10.0,-5.0,30.0,38.0,10.0,0.0
1.0,-30.0,-12.0,8.0,18.0,7.0,-2.0,28.0,33.0,6.0,0.0
24.0,-27.0,-31.0,11.0,1.0,1.0,-5.0,19.0,24.0,11.0,0.0
30.0,-18.0,31.0,9.0,2.0,0.0,-6.0,6.0,30.0,12.0,0.0
40.0,-1.0,33.0,0.0,4.0,-3.0,-11.0,-6.0,25.0,-3.0,0.0
55.0,7.0,32.0,4.0,8.0,13.0,23.0,-15.0,21.0,-9.0,0.0
56.0,3.0,22.0,4.0,10.0,26.0,44.0,-13.0,17.0,-3.0,0.0
54.0,-4.0,21.0,7.0,5.0,17.0,50.0,-11.0,-2.0,-25.0,0.0
43.0,-15.0,19.0,0.0,4.0,6.0,32.0,-13.0,-17.0,-29.0,0.0
35.0,-20.0,11.0,-1.0,-3.0,5.0,18.0,-20.0,-16.0,-25.0,0.0
49.0,-16.0,20.0,-9.0,1.0,-3.0,19.0,-16.0,-13.0,-25.0,0.0
58.0,1.0,22.0,-1.0,3.0,-5.0,18.0,-9.0,-17.0,-15.0,0.0
65.0,9.0,18.0,11.0,6.0,2.0,12.0,-10.0,-18.0,5.0,0.0
65.0,24.0,21.0,6.0,5.0,1.0,16.0,-15.0,-9.0,14.0,0.0
65.0,25.0,24.0,1.0,-1.0,0.0,18.0,-10.0,-8.0,11.0,0.0
59.0,30.0,14.0,7.0,-13.0,0.0,13.0,1.0,-18.0,0.0,0.0
64.0,20.0,19.0,1.0,-17.0,-7.0,3.0,-1.0,-37.0,0.0,0.0
60.0,10.0,10.0,-13.0,-12.0,-3.0,-3.0,-2.0,-36.0,9.0,0.0
65.0,12.0,13.0,-11.0,-5.0,-9.0,-8.0,0.0,-38.0,8.0,0.0
56.0,13.0,14.0,-3.0,1.0,-4.0,-41.0,-12.0,-42.0,3.0,0.0
55.0,24.0,11.0,12.0,3.0,-2.0,-59.0,-20.0,-41.0,11.0,0.0
47.0,15.0,-6.0,2.0,4.0,4.0,-61.0,-16.0,-23.0,6.0,0.0
44.0,8.0,-8.0,-12.0,10.0,5.0,-55.0,-1.0,-19.0,-6.0,0.0
32.0,10.0,10.0,-8.0,13.0,7.0,-42.0,-2.0,-10.0,-10.0,0.0
34.0,23.0,-16.0,11.0,14.0,0.0,-23.0,-1.0,12.0,2.0,0.0
36.0,18.0,-39.0,9.0,-7.0,5.0,2.0,0.0,14.0,9.0,0.0
39.0,9.0,-10.0,-9.0,-7.0,9.0,26.0,6.0,8.0,7.0,0.0
46.0,0.0,-16.0,-16.0,-5.0,5.0,29.0,20.0,18.0,13.0,0.0
47.0,2.0,-8.0,-8.0,-6.0,3.0,24.0,22.0,38.0,16.0,0.0
46.0,14.0,-21.0,-11.0,0.0,6.0,8.0,15.0,48.0,20.0,0.0
51.0,9.0,-25.0,0.0,6.0,14.0,4.0,15.0,63.0,23.0,0.0
40.0,12.0,-12.0,7.0,15.0,16.0,-6.0,14.0,44.0,17.0,0.0
29.0,0.0,-12.0,-9.0,7.0,10.0,0.0,17.0,22.0,12.0,0.0
15.0,-6.0,-13.0,-8.0,3.0,14.0,29.0,14.0,36.0,8.0,0.0
9.0,1.0,7.0,-1.0,-1.0,17.0,25.0,9.0,17.0,-3.0,0.0
35.0,16.0,23.0,19.0,-3.0,-2.0,-6.0,8.0,-16.0,3.0,0.0
105.0,38.0,25.0,13.0,-13.0,-13.0,-37.0,-9.0,-29.0,-3.0,0.0
184.0,104.0,29.0,3.0,-16.0,-15.0,-52.0,-20.0,-39.0,0.0,0.0
221.0,143.0,-15.0,-11.0,-37.0,-40.0,-67.0,-30.0,-50.0,5.0,0.0
204.0,135.0,-44.0,-33.0,-54.0,-38.0,-63.0,-30.0,-26.0,41.0,0.0
108.0,100.0,26.0,-34.0,-54.0,-24.0,-52.0,-8.0,5.0,89.0,0.0
6.0,94.0,72.0,-12.0,-42.0,-21.0,-56.0,-10.0,-24.0,42.0,0.0
-94.0,55.0,86.0,34.0,-20.0,-13.0,-51.0,-16.0,-69.0,-42.0,0.0
-164.0,-36.0,80.0,50.0,15.0,16.0,-30.0,12.0,-60.0,-68.0,0.0
-156.0,-88.0,35.0,35.0,25.0,22.0,-13.0,19.0,-40.0,-59.0,0.0
-108.0,-110.0,22.0,10.0,21.0,17.0,-18.0,26.0,-24.0,-12.0,0.0
-86.0,-116.0,11.0,6.0,15.0,8.0,-23.0,26.0,-2.0,21.0,0.0
-85.0,-98.0,21.0,4.0,24.0,11.0,-9.0,24.0,4.0,20.0,0.0
-75.0,-72.0,28.0,15.0,26.0,25.0,8.0,27.0,11.0,14.0,0.0
-53.0,-58.0,23.0,12.0,13.0,28.0,-5.0,20.0,8.0,-8.0,0.0
-34.0,-47.0,12.0,16.0,8.0,13.0,-6.0,19.0,10.0,-3.0,0.0
-22.0,-49.0,-6.0,13.0,7.0,4.0,14.0,20.0,31.0,22.0,0.0
-33.0,-42.0,0.0,5.0,11.0,8.0,20.0,16.0,56.0,25.0,0.0
-39.0,-25.0,-5.0,7.0,10.0,8.0,14.0,9.0,73.0,32.0,0.0
-33.0,-10.0,-10.0,-2.0,1.0,12.0,13.0,12.0,70.0,22.0,0.0
-31.0,-8.0,-65.0,-12.0,6.0,13.0,8.0,9.0,61.0,11.0,0.0
-40.0,0.0,-42.0,-8.0,8.0,9.0,32.0,0.0,34.0,0.0,0.0
-76.0,-1.0,2.0,7.0,1.0,15.0,51.0,-1.0,15.0,-12.0,0.0
-81.0,-17.0,-9.0,9.0,-2.0,5.0,58.0,-2.0,12.0,-10.0,0.0
-57.0,-21.0,5.0,3.0,-5.0,-3.0,49.0,-6.0,9.0,-8.0,0.0
-55.0,-18.0,16.0,3.0,-2.0,-3.0,44.0,-12.0,-2.0,-13.0,0.0
-43.0,-12.0,0.0,2.0,1.0,-7.0,46.0,-9.0,-8.0,4.0,0.0
-31.0,-5.0,-14.0,6.0,-2.0,-1.0,25.0,-1.0,-10.0,9.0,0.0
-26.0,0.0,-4.0,4.0,1.0,-4.0,3.0,14.0,-26.0,13.0,0.0
-19.0,-2.0,2.0,-3.0,-2.0,-1.0,-1.0,9.0,-37.0,12.0,0.0
-2.0,5.0,-2.0,-14.0,-16.0,-5.0,-13.0,11.0,-40.0,13.0,0.0
-4.0,11.0,-13.0,-20.0,-35.0,-7.0,-15.0,4.0,-41.0,12.0,0.0
2.0,5.0,-32.0,-22.0,-28.0,-5.0,-10.0,0.0,-51.0,20.0,0.0
8.0,5.0,-12.0,-25.0,-20.0,-6.0,-11.0,0.0,-40.0,20.0,0.0
6.0,15.0,0.0,-28.0,-16.0,-7.0,-7.0,-5.0,-32.0,21.0,0.0
13.0,30.0,2.0,-32.0,-18.0,-10.0,14.0,-9.0,-29.0,9.0,0.0
8.0,18.0,-17.0,-24.0,-11.0,-4.0,26.0,0.0,-10.0,3.0,0.0
14.0,15.0,-39.0,-27.0,-15.0,10.0,36.0,15.0,9.0,0.0,0.0
7.0,7.0,-40.0,-29.0,-8.0,7.0,43.0,26.0,13.0,0.0,0.0
-6.0,1.0,-119.0,-26.0,3.0,6.0,49.0,28.0,23.0,-1.0,0.0
-10.0,-12.0,-141.0,-20.0,-3.0,14.0,27.0,22.0,27.0,0.0,0.0
-11.0,-5.0,-18.0,-4.0,1.0,12.0,21.0,2.0,32.0,-6.0,0.0
-24.0,3.0,29.0,2.0,0.0,3.0,11.0,-1.0,38.0,-7.0,0.0
-21.0,5.0,19.0,5.0,2.0,0.0,13.0,3.0,49.0,-12.0,0.0
-10.0,5.0,16.0,6.0,-14.0,-14.0,21.0,5.0,54.0,-12.0,0.0
-7.0,9.0,18.0,5.0,-21.0,-6.0,16.0,15.0,58.0,-8.0,0.0
-3.0,17.0,18.0,-5.0,-14.0,-1.0,12.0,18.0,45.0,-7.0,0.0
0.0,25.0,26.0,-7.0,-9.0,-2.0,16.0,13.0,40.0,-7.0,0.0
3.0,41.0,24.0,-8.0,0.0,-7.0,39.0,7.0,25.0,-16.0,0.0
25.0,52.0,27.0,-1.0,6.0,-2.0,45.0,-1.0,9.0,-25.0,0.0
58.0,81.0,-9.0,-2.0,2.0,-3.0,34.0,-20.0,-16.0,-33.0,0.0
90.0,101.0,-5.0,6.0,11.0,-9.0,26.0,-38.0,-32.0,-35.0,0.0
136.0,128.0,44.0,19.0,16.0,-10.0,3.0,-59.0,-51.0,-30.0,0.0
188.0,145.0,1.0,9.0,7.0,-21.0,-10.0,-58.0,-76.0,-22.0,0.0
176.0,125.0,-13.0,-11.0,-22.0,-33.0,-37.0,-57.0,-87.0,-16.0,0.0
133.0,109.0,-7.0,-23.0,-57.0,-40.0,-72.0,-49.0,-82.0,-25.0,0.0
118.0,116.0,-4.0,-20.0,-54.0,-28.0,-76.0,-27.0,-62.0,-1.0,0.0
89.0,85.0,25.0,-15.0,-36.0,-19.0,-65.0,-10.0,-30.0,5.0,0.0
49.0,39.0,-69.0,-25.0,-30.0,-2.0,-25.0,8.0,-4.0,8.0,0.0
15.0,0.0,-135.0,-31.0,-33.0,-8.0,12.0,15.0,6.0,36.0,0.0
-40.0,-44.0,-53.0,-7.0,-9.0,-28.0,8.0,0.0,-19.0,-5.0,0.0
-60.0,-63.0,33.0,24.0,14.0,-28.0,9.0,10.0,-23.0,-25.0,0.0
12.0,-19.0,48.0,13.0,7.0,-27.0,24.0,12.0,-40.0,11.0,0.0
116.0,47.0,45.0,6.0,6.0,-20.0,19.0,-1.0,-53.0,12.0,0.0
163.0,76.0,27.0,-21.0,0.0,-21.0,3.0,-17.0,-64.0,23.0,0.0
153.0,81.0,-5.0,-31.0,-10.0,-19.0,-6.0,-30.0,-42.0,53.0,0.0
96.0,91.0,-58.0,-21.0,-15.0,-27.0,-1.0,-28.0,-10.0,58.0,0.0
-9.0,68.0,19.0,-10.0,-20.0,-38.0,12.0,-24.0,20.0,44.0,0.0
-75.0,58.0,68.0,-6.0,-23.0,-39.0,10.0,-25.0,29.0,9.0,0.0
-171.0,-28.0,39.0,-2.0,-9.0,-14.0,9.0,-15.0,29.0,-43.0,0.0
-250.0,-141.0,18.0,12.0,10.0,16.0,38.0,12.0,56.0,-61.0,0.0
-277.0,-180.0,15.0,32.0,32.0,30.0,54.0,27.0,77.0,-55.0,0.0
-254.0,-189.0,11.0,35.0,43.0,41.0,54.0,31.0,79.0,-54.0,0.0
-195.0,-180.0,-1.0,28.0,41.0,41.0,52.0,28.0,78.0,-39.0,0.0
-151.0,-150.0,-8.0,19.0,28.0,33.0,31.0,23.0,83.0,-23.0,0.0
-135.0,-111.0,-9.0,30.0,33.0,19.0,19.0,31.0,65.0,-9.0,0.0
-97.0,-90.0,7.0,24.0,19.0,9.0,22.0,18.0,37.0,-15.0,0.0
-54.0,-76.0,11.0,15.0,10.0,7.0,15.0,4.0,26.0,-16.0,0.0
-24.0,-77.0,-5.0,15.0,14.0,3.0,16.0,14.0,22.0,2.0,0.0
-15.0,-71.0,-20.0,18.0,18.0,5.0,15.0,12.0,16.0,13.0,0.0
-14.0,-48.0,-67.0,3.0,10.0,4.0,12.0,17.0,4.0,16.0,0.0
-10.0,-50.0,-45.0,-4.0,2.0,9.0,1.0,12.0,0.0,1.0,0.0
-7.0,-37.0,-18.0,-20.0,0.0,6.0,-24.0,2.0,0.0,-6.0,0.0
10.0,-35.0,-20.0,-19.0,2.0,5.0,0.0,3.0,-13.0,5.0,0.0
9.0,-31.0,-40.0,-7.0,-8.0,4.0,16.0,-3.0,-27.0,10.0,0.0
-5.0,-13.0,-61.0,-11.0,-5.0,3.0,16.0,-14.0,-31.0,0.0,0.0
-8.0,-9.0,-71.0,-9.0,16.0,-2.0,-1.0,-22.0,-28.0,-5.0,0.0
5.0,4.0,-127.0,-16.0,4.0,-5.0,-36.0,-21.0,-41.0,5.0,0.0
10.0,0.0,-42.0,-1.0,0.0,-8.0,-50.0,-26.0,-44.0,10.0,0.0
-3.0,-8.0,19.0,17.0,-1.0,-2.0,-31.0,-23.0,-48.0,5.0,0.0
-20.0,-3.0,35.0,10.0,-4.0,5.0,-36.0,-33.0,-37.0,-8.0,0.0
-2.0,1.0,32.0,19.0,-4.0,5.0,-41.0,-26.0,-25.0,-10.0,0.0
9.0,-1.0,13.0,22.0,-16.0,11.0,-50.0,-19.0,-21.0,-14.0,0.0
15.0,21.0,15.0,27.0,-13.0,6.0,-22.0,-8.0,-4.0,-1.0,0.0
13.0,29.0,24.0,19.0,7.0,18.0,-6.0,0.0,9.0,13.0,0.0
23.0,45.0,0.0,15.0,11.0,15.0,-17.0,-2.0,13.0,15.0,0.0
45.0,27.0,-7.0,3.0,15.0,20.0,-20.0,-2.0,23.0,11.0,0.0
63.0,32.0,-3.0,-9.0,12.0,14.0,-3.0,2.0,26.0,8.0,0.0
64.0,27.0,-57.0,-10.0,21.0,3.0,13.0,-5.0,36.0,0.0,0.0
43.0,10.0,-27.0,7.0,35.0,9.0,25.0,-14.0,32.0,-12.0,0.0
25.0,-9.0,5.0,2.0,20.0,9.0,29.0,-7.0,22.0,-6.0,0.0
41.0,5.0,17.0,-4.0,10.0,-10.0,9.0,-23.0,4.0,-12.0,0.0
47.0,39.0,21.0,-2.0,-3.0,-11.0,-10.0,-32.0,-15.0,-27.0,0.0
61.0,61.0,17.0,-1.0,-17.0,-4.0,-10.0,-13.0,-24.0,-10.0,0.0
74.0,58.0,5.0,-7.0,-20.0,-17.0,-23.0,-13.0,-31.0,-18.0,0.0
72.0,53.0,-25.0,-27.0,-33.0,-24.0,-33.0,-30.0,-34.0,-13.0,0.0
66.0,58.0,-1.0,-31.0,-35.0,-24.0,-31.0,-22.0,-21.0,11.0,0.0
67.0,98.0,16.0,-21.0,-49.0,-37.0,-69.0,-34.0,-41.0,-4.0,0.0
55.0,125.0,-8.0,-9.0,-37.0,-66.0,-92.0,-73.0,-70.0,-58.0,0.0
54.0,89.0,-90.0,-8.0,-30.0,-52.0,-80.0,-67.0,-62.0,-37.0,0.0
93.0,15.0,-37.0,-8.0,-21.0,-21.0,-55.0,-14.0,-31.0,29.0,0.0
70.0,-35.0,22.0,-1.0,1.0,-11.0,-29.0,19.0,4.0,70.0,0.0
10.0,-56.0,12.0,7.0,13.0,0.0,-11.0,31.0,13.0,48.0,0.0
12.0,-53.0,-81.0,3.0,17.0,8.0,-5.0,35.0,14.0,28.0,0.0
-6.0,-59.0,-130.0,-6.0,16.0,10.0,-3.0,43.0,10.0,43.0,0.0
-49.0,-65.0,-29.0,-15.0,16.0,3.0,0.0,42.0,4.0,42.0,0.0
-73.0,-45.0,4.0,-11.0,7.0,-6.0,-4.0,36.0,-1.0,13.0,0.0
-111.0,-38.0,27.0,-8.0,-5.0,-5.0,-1.0,25.0,-8.0,-2.0,0.0
-107.0,-30.0,43.0,-3.0,-3.0,-13.0,-1.0,11.0,-20.0,0.0,0.0
-93.0,-34.0,41.0,-11.0,-3.0,-12.0,-33.0,4.0,-18.0,-16.0,0.0
-81.0,-34.0,29.0,-9.0,2.0,1.0,-23.0,21.0,2.0,-16.0,0.0
-56.0,-19.0,35.0,0.0,6.0,5.0,11.0,22.0,0.0,-22.0,0.0
-41.0,-4.0,64.0,9.0,3.0,4.0,20.0,10.0,-3.0,-33.0,0.0
-41.0,-19.0,54.0,23.0,-3.0,9.0,0.0,18.0,9.0,-34.0,0.0
-34.0,-39.0,45.0,25.0,-6.0,19.0,-14.0,29.0,25.0,-26.0,0.0
-21.0,-37.0,40.0,19.0,-3.0,18.0,2.0,26.0,38.0,-11.0,0.0
-7.0,-14.0,42.0,23.0,-1.0,9.0,7.0,31.0,41.0,-2.0,0.0
11.0,6.0,50.0,31.0,-4.0,7.0,6.0,33.0,41.0,3.0,0.0
28.0,26.0,44.0,25.0,-3.0,11.0,14.0,33.0,42.0,12.0,0.0
37.0,12.0,32.0,26.0,-6.0,6.0,16.0,29.0,36.0,13.0,0.0
32.0,0.0,24.0,15.0,10.0,-5.0,18.0,32.0,26.0,0.0,0.0
27.0,-10.0,7.0,6.0,4.0,-6.0,4.0,32.0,26.0,-7.0,0.0
24.0,-12.0,6.0,-6.0,7.0,-8.0,-5.0,31.0,18.0,-9.0,0.0
34.0,-9.0,-1.0,-28.0,-6.0,-9.0,-5.0,34.0,11.0,-11.0,0.0
33.0,-14.0,-7.0,-30.0,-9.0,-13.0,6.0,18.0,8.0,-3.0,0.0
25.0,-9.0,9.0,-13.0,-10.0,-24.0,22.0,7.0,-7.0,-13.0,0.0
32.0,-6.0,31.0,-6.0,-8.0,-21.0,-22.0,-1.0,-16.0,-13.0,0.0
17.0,-6.0,24.0,-11.0,-11.0,-16.0,-39.0,-5.0,-28.0,-19.0,0.0
12.0,3.0,28.0,-1.0,-10.0,-39.0,-32.0,0.0,-32.0,-28.0,0.0
12.0,2.0,49.0,5.0,-7.0,-49.0,-36.0,-11.0,-37.0,-34.0,0.0
16.0,21.0,33.0,5.0,-7.0,-33.0,-39.0,-14.0,-29.0,-22.0,0.0
30.0,10.0,-42.0,8.0,0.0,-17.0,-23.0,0.0,-18.0,-17.0,0.0
24.0,0.0,-74.0,1.0,4.0,-21.0,-7.0,3.0,-20.0,-6.0,0.0
17.0,-1.0,11.0,-13.0,8.0,-24.0,18.0,0.0,-29.0,0.0,0.0
19.0,7.0,3.0,-22.0,13.0,-23.0,27.0,-7.0,-32.0,1.0,0.0
19.0,6.0,-85.0,-15.0,4.0,-16.0,13.0,5.0,-25.0,10.0,0.0
13.0,6.0,-26.0,-18.0,-1.0,-11.0,-23.0,14.0,-30.0,23.0,0.0
10.0,1.0,35.0,-30.0,5.0,-4.0,-21.0,19.0,-32.0,22.0,0.0
17.0,-6.0,34.0,-22.0,8.0,-1.0,-8.0,2.0,-20.0,18.0,0.0
20.0,-1.0,33.0,-25.0,10.0,-23.0,-19.0,-3.0,-11.0,13.0,0.0
15.0,-9.0,29.0,-33.0,0.0,-30.0,-35.0,-11.0,-3.0,7.0,0.0
19.0,12.0,16.0,-34.0,-10.0,-26.0,-50.0,-9.0,-20.0,6.0,0.0
47.0,31.0,20.0,-32.0,-18.0,-45.0,-45.0,-12.0,-26.0,8.0,0.0
71.0,66.0,30.0,-30.0,-10.0,-35.0,-30.0,-16.0,-25.0,11.0,0.0
113.0,82.0,31.0,-33.0,-7.0,-14.0,-18.0,-18.0,-4.0,15.0,0.0
165.0,105.0,26.0,-28.0,-14.0,-21.0,15.0,-21.0,2.0,1.0,0.0
193.0,137.0,15.0,-27.0,-18.0,-37.0,32.0,-21.0,6.0,-5.0,0.0
168.0,128.0,2.0,-39.0,-15.0,-26.0,27.0,-17.0,13.0,-18.0,0.0
119.0,80.0,21.0,-38.0,-12.0,-20.0,14.0,-14.0,43.0,2.0,0.0
39.0,4.0,-15.0,-30.0,-14.0,-22.0,36.0,9.0,82.0,47.0,0.0
-48.0,-52.0,-43.0,-20.0,-7.0,2.0,63.0,36.0,102.0,66.0,0.0
-132.0,-72.0,-15.0,11.0,7.0,16.0,58.0,19.0,58.0,-3.0,0.0
-171.0,-88.0,18.0,31.0,31.0,36.0,55.0,15.0,39.0,-35.0,0.0
-155.0,-130.0,0.0,31.0,41.0,51.0,49.0,44.0,39.0,-13.0,0.0
-142.0,-143.0,1.0,18.0,53.0,57.0,12.0,45.0,26.0,-3.0,0.0
-114.0,-115.0,21.0,12.0,39.0,40.0,-5.0,22.0,6.0,-27.0,0.0
-84.0,-81.0,16.0,21.0,25.0,21.0,-2.0,3.0,0.0,-28.0,0.0
-69.0,-49.0,12.0,18.0,24.0,14.0,-7.0,1.0,5.0,-26.0,0.0
-80.0,-35.0,10.0,9.0,16.0,8.0,-16.0,0.0,1.0,-12.0,0.0
-57.0,-32.0,2.0,-15.0,8.0,-1.0,-10.0,0.0,-4.0,12.0,0.0
-21.0,-28.0,-6.0,-42.0,-7.0,-16.0,4.0,3.0,-1.0,21.0,0.0
-40.0,-44.0,-1.0,-31.0,-9.0,-11.0,13.0,21.0,-15.0,0.0,0.0
-50.0,-50.0,-3.0,-5.0,10.0,14.0,18.0,25.0,-14.0,-6.0,0.0
-33.0,-22.0,0.0,-2.0,7.0,22.0,15.0,20.0,-17.0,16.0,0.0
-15.0,2.0,-5.0,-8.0,5.0,21.0,17.0,13.0,-22.0,25.0,0.0
2.0,5.0,-14.0,1.0,5.0,14.0,10.0,3.0,-31.0,23.0,0.0
9.0,13.0,0.0,12.0,5.0,16.0,-1.0,0.0,-20.0,21.0,0.0
26.0,18.0,6.0,23.0,4.0,5.0,-16.0,4.0,-11.0,21.0,0.0
33.0,21.0,-16.0,23.0,9.0,4.0,-16.0,15.0,10.0,18.0,0.0
32.0,22.0,-81.0,22.0,-2.0,3.0,-11.0,15.0,36.0,11.0,0.0
17.0,39.0,-111.0,37.0,-7.0,2.0,0.0,11.0,51.0,-5.0,0.0
4.0,30.0,-129.0,36.0,-4.0,11.0,0.0,3.0,38.0,-18.0,0.0
9.0,40.0,-21.0,22.0,-7.0,12.0,8.0,1.0,27.0,-10.0,0.0
6.0,26.0,19.0,26.0,-15.0,13.0,23.0,-3.0,17.0,-17.0,0.0
10.0,28.0,13.0,22.0,-21.0,11.0,22.0,0.0,1.0,-14.0,0.0
20.0,17.0,2.0,12.0,-43.0,18.0,2.0,-8.0,-2.0,-9.0,0.0
19.0,9.0,-49.0,-2.0,-42.0,23.0,-1.0,-12.0,1.0,1.0,0.0
13.0,-13.0,-39.0,-4.0,-30.0,16.0,-10.0,-7.0,11.0,2.0,0.0
8.0,-19.0,-14.0,4.0,-22.0,22.0,-10.0,-10.0,2.0,-13.0,0.0
0.0,-15.0,-45.0,5.0,-22.0,31.0,-11.0,-6.0,-2.0,-7.0,0.0
12.0,-4.0,-33.0,6.0,-15.0,36.0,-23.0,-2.0,-3.0,0.0,0.0
25.0,1.0,11.0,0.0,-14.0,23.0,-35.0,-9.0,-17.0,-1.0,0.0
29.0,-8.0,4.0,-10.0,-20.0,10.0,-44.0,-4.0,-28.0,5.0,0.0
49.0,0.0,-16.0,-4.0,-15.0,10.0,-41.0,-4.0,-37.0,0.0,0.0
79.0,28.0,-4.0,0.0,-12.0,12.0,-26.0,-14.0,-45.0,-1.0,0.0
99.0,40.0,-36.0,-2.0,-4.0,2.0,-20.0,-23.0,-53.0,12.0,0.0
113.0,37.0,-20.0,2.0,-3.0,-1.0,-27.0,-25.0,-51.0,5.0,0.0
102.0,58.0,22.0,20.0,-9.0,-5.0,-31.0,-29.0,-36.0,12.0,0.0
100.0,58.0,-13.0,-2.0,-24.0,-24.0,-33.0,-27.0,-34.0,47.0,0.0
89.0,73.0,-17.0,-12.0,-26.0,-24.0,-12.0,-27.0,-49.0,39.0,0.0
88.0,94.0,20.0,-5.0,-11.0,-16.0,15.0,-23.0,-48.0,7.0,0.0
130.0,131.0,27.0,-9.0,-3.0,-17.0,12.0,-34.0,-55.0,-7.0,0.0
174.0,157.0,2.0,5.0,-7.0,-31.0,-2.0,-58.0,-75.0,-35.0,0.0
191.0,140.0,-103.0,-11.0,-6.0,-30.0,4.0,-59.0,-55.0,-13.0,0.0
173.0,167.0,-56.0,-39.0,-20.0,-25.0,21.0,-43.0,-20.0,11.0,0.0
109.0,178.0,17.0,-22.0,-24.0,-19.0,16.0,-50.0,-17.0,-7.0,0.0
-40.0,81.0,34.0,0.0,-18.0,-21.0,20.0,-58.0,-5.0,-51.0,0.0
-173.0,-46.0,44.0,20.0,10.0,9.0,45.0,-23.0,24.0,-11.0,0.0
-237.0,-92.0,14.0,42.0,32.0,33.0,49.0,-3.0,35.0,-11.0,0.0
-281.0,-133.0,-31.0,56.0,39.0,40.0,52.0,15.0,35.0,-39.0,0.0
-264.0,-141.0,-86.0,50.0,34.0,48.0,67.0,32.0,64.0,-21.0,0.0
-210.0,-109.0,-10.0,39.0,28.0,30.0,61.0,25.0,50.0,-31.0,0.0
-158.0,-94.0,19.0,31.0,16.0,17.0,50.0,11.0,34.0,-25.0,0.0
-110.0,-89.0,-31.0,28.0,8.0,19.0,61.0,12.0,37.0,11.0,0.0
-78.0,-75.0,-25.0,20.0,2.0,25.0,64.0,13.0,43.0,22.0,0.0
-81.0,-62.0,5.0,19.0,9.0,22.0,48.0,10.0,34.0,4.0,0.0
-64.0,-17.0,48.0,14.0,3.0,2.0,27.0,7.0,13.0,-6.0,0.0
-37.0,11.0,39.0,9.0,-6.0,-3.0,12.0,0.0,-7.0,-7.0,0.0
-5.0,8.0,20.0,-9.0,-15.0,-10.0,-5.0,-8.0,-22.0,-6.0,0.0
-2.0,-28.0,9.0,-17.0,-11.0,-21.0,-34.0,4.0,-10.0,21.0,0.0
-43.0,-76.0,7.0,-2.0,-1.0,-12.0,-18.0,20.0,13.0,35.0,0.0
-91.0,-110.0,23.0,17.0,10.0,0.0,-3.0,21.0,4.0,1.0,0.0
-81.0,-86.0,28.0,18.0,11.0,-1.0,4.0,6.0,-9.0,-17.0,0.0
-41.0,-41.0,25.0,7.0,18.0,0.0,-10.0,7.0,-21.0,-14.0,0.0
-7.0,-25.0,17.0,7.0,26.0,6.0,-27.0,10.0,-19.0,1.0,0.0
-3.0,-26.0,15.0,-3.0,22.0,9.0,-36.0,2.0,-31.0,21.0,0.0
-11.0,-21.0,-20.0,-11.0,32.0,2.0,-43.0,-3.0,-31.0,21.0,0.0
4.0,-12.0,-32.0,-6.0,40.0,9.0,-45.0,-6.0,-21.0,13.0,0.0
26.0,-11.0,0.0,-7.0,37.0,5.0,-38.0,1.0,-24.0,7.0,0.0
30.0,-4.0,-92.0,-4.0,42.0,3.0,-16.0,10.0,-11.0,0.0,0.0
17.0,-9.0,-90.0,2.0,26.0,-6.0,5.0,4.0,10.0,9.0,0.0
17.0,5.0,-11.0,2.0,2.0,-12.0,5.0,7.0,22.0,13.0,0.0
20.0,9.0,-81.0,8.0,7.0,-9.0,9.0,10.0,32.0,9.0,0.0
21.0,14.0,-81.0,0.0,12.0,-20.0,36.0,8.0,37.0,1.0,0.0
12.0,23.0,3.0,-7.0,11.0,-22.0,43.0,23.0,56.0,-3.0,0.0
19.0,18.0,12.0,-3.0,6.0,-1.0,25.0,18.0,42.0,-8.0,0.0
38.0,16.0,39.0,-16.0,8.0,6.0,15.0,3.0,19.0,-19.0,0.0
40.0,5.0,11.0,-22.0,17.0,7.0,26.0,-1.0,3.0,-17.0,0.0
27.0,2.0,27.0,-11.0,20.0,8.0,38.0,0.0,-7.0,-13.0,0.0
15.0,1.0,67.0,-16.0,16.0,18.0,15.0,5.0,-14.0,-9.0,0.0
11.0,11.0,54.0,-23.0,5.0,7.0,-20.0,4.0,-12.0,-1.0,0.0
16.0,7.0,46.0,-18.0,0.0,3.0,-26.0,4.0,-13.0,5.0,0.0
21.0,14.0,60.0,-27.0,7.0,1.0,-24.0,1.0,-22.0,-8.0,0.0
32.0,22.0,57.0,-25.0,14.0,-6.0,-22.0,6.0,-27.0,-5.0,0.0
24.0,37.0,42.0,-13.0,4.0,-6.0,10.0,4.0,-25.0,-3.0,0.0
15.0,23.0,33.0,-3.0,-8.0,-2.0,28.0,3.0,-32.0,-8.0,0.0
17.0,17.0,28.0,-6.0,-19.0,0.0,1.0,8.0,-40.0,-3.0,0.0
18.0,4.0,27.0,-17.0,-21.0,5.0,-25.0,9.0,-29.0,-1.0,0.0
-1.0,6.0,16.0,-27.0,-18.0,1.0,-26.0,0.0,-16.0,-5.0,0.0
-4.0,0.0,23.0,-21.0,-13.0,-3.0,-17.0,-1.0,-24.0,-12.0,0.0
18.0,1.0,24.0,-17.0,-2.0,-3.0,-11.0,-3.0,-30.0,-14.0,0.0
13.0,1.0,23.0,-21.0,-5.0,6.0,-18.0,-17.0,-28.0,-20.0,0.0
10.0,-4.0,31.0,-13.0,-1.0,18.0,-27.0,-19.0,-19.0,-18.0,0.0
6.0,-4.0,33.0,-9.0,4.0,21.0,-23.0,-21.0,-18.0,-11.0,0.0
-2.0,-3.0,8.0,-18.0,3.0,23.0,-26.0,-19.0,1.0,-3.0,0.0
-4.0,0.0,3.0,-20.0,-10.0,14.0,-23.0,-16.0,20.0,-6.0,0.0
4.0,-6.0,14.0,-6.0,-15.0,3.0,-11.0,-22.0,30.0,-2.0,0.0
13.0,-7.0,8.0,8.0,-12.0,4.0,-1.0,-28.0,57.0,3.0,0.0
11.0,3.0,-62.0,7.0,-4.0,12.0,4.0,-18.0,65.0,-4.0,0.0
21.0,10.0,-128.0,-8.0,-4.0,13.0,2.0,-9.0,45.0,-7.0,0.0
32.0,3.0,-38.0,-14.0,-5.0,11.0,5.0,-7.0,23.0,0.0,0.0
32.0,22.0,15.0,-9.0,-3.0,1.0,6.0,-8.0,14.0,-4.0,0.0
31.0,42.0,42.0,5.0,-1.0,4.0,0.0,-23.0,-4.0,-17.0,0.0
29.0,63.0,55.0,8.0,3.0,8.0,2.0,-19.0,-14.0,-8.0,0.0
27.0,35.0,38.0,3.0,11.0,13.0,14.0,-6.0,-8.0,2.0,0.0
32.0,1.0,13.0,-4.0,16.0,10.0,21.0,1.0,0.0,9.0,0.0
37.0,4.0,11.0,-9.0,13.0,9.0,11.0,19.0,-8.0,3.0,0.0
38.0,-7.0,3.0,-15.0,6.0,0.0,-1.0,16.0,-9.0,1.0,0.0
56.0,6.0,2.0,-20.0,2.0,6.0,-4.0,12.0,-13.0,17.0,0.0
74.0,42.0,-31.0,-21.0,7.0,3.0,-7.0,15.0,-16.0,0.0,0.0
79.0,68.0,-109.0,-25.0,1.0,5.0,-4.0,10.0,-17.0,0.0,0.0
77.0,53.0,-52.0,-42.0,1.0,6.0,10.0,11.0,-8.0,19.0,0.0
54.0,11.0,11.0,-53.0,-5.0,1.0,3.0,9.0,-16.0,36.0,0.0
32.0,-11.0,1.0,-55.0,-5.0,-10.0,-2.0,13.0,-16.0,48.0,0.0
-16.0,-45.0,-6.0,-46.0,-2.0,-1.0,-4.0,14.0,-12.0,34.0,0.0
-56.0,-48.0,21.0,-22.0,17.0,2.0,2.0,-2.0,-12.0,11.0,0.0
-41.0,-25.0,26.0,-5.0,19.0,-10.0,6.0,-3.0,-4.0,4.0,0.0
-15.0,-3.0,11.0,-11.0,3.0,-20.0,8.0,-1.0,8.0,6.0,0.0
17.0,21.0,0.0,-10.0,-3.0,-13.0,8.0,-2.0,8.0,10.0,0.0
62.0,42.0,2.0,11.0,4.0,-5.0,11.0,-14.0,6.0,9.0,0.0
73.0,19.0,14.0,24.0,16.0,-5.0,9.0,-15.0,3.0,4.0,0.0
65.0,18.0,21.0,20.0,11.0,-1.0,4.0,-12.0,24.0,17.0,0.0
33.0,0.0,-1.0,-4.0,0.0,9.0,15.0,10.0,69.0,56.0,0.0
5.0,25.0,0.0,2.0,-9.0,-1.0,30.0,6.0,62.0,44.0,0.0
-16.0,71.0,32.0,24.0,0.0,-14.0,38.0,-13.0,31.0,-4.0,0.0
-12.0,116.0,65.0,26.0,-8.0,-19.0,47.0,-26.0,11.0,-27.0,0.0
29.0,163.0,93.0,31.0,-17.0,-35.0,32.0,-47.0,-3.0,-51.0,0.0
78.0,175.0,100.0,27.0,-25.0,-43.0,-10.0,-53.0,-7.0,-45.0,0.0
113.0,147.0,39.0,25.0,-33.0,-45.0,-46.0,-47.0,6.0,9.0,0.0
115.0,108.0,10.0,-6.0,-37.0,-34.0,-57.0,-36.0,22.0,59.0,0.0
67.0,24.0,-1.0,-20.0,-25.0,-8.0,-12.0,-1.0,47.0,88.0,0.0
-37.0,-53.0,-9.0,-12.0,-14.0,5.0,33.0,22.0,65.0,63.0,0.0
-138.0,-69.0,-6.0,11.0,16.0,24.0,55.0,32.0,24.0,-34.0,0.0
-183.0,-69.0,9.0,42.0,52.0,45.0,83.0,52.0,-7.0,-96.0,0.0
-131.0,-29.0,-13.0,50.0,46.0,37.0,78.0,54.0,-15.0,-78.0,0.0
-90.0,-37.0,34.0,39.0,22.0,27.0,48.0,36.0,-8.0,-18.0,0.0
-86.0,-39.0,39.0,17.0,10.0,31.0,23.0,45.0,34.0,44.0,0.0
-117.0,-68.0,22.0,8.0,4.0,28.0,18.0,56.0,55.0,68.0,0.0
-160.0,-73.0,0.0,-2.0,17.0,9.0,24.0,55.0,23.0,20.0,0.0
-159.0,-71.0,-65.0,3.0,27.0,3.0,24.0,29.0,-12.0,-23.0,0.0
-126.0,-87.0,-34.0,12.0,28.0,3.0,39.0,13.0,-29.0,-49.0,0.0
-84.0,-77.0,15.0,11.0,34.0,5.0,52.0,23.0,-32.0,-43.0,0.0
-39.0,-12.0,20.0,-6.0,18.0,5.0,41.0,9.0,-41.0,-25.0,0.0
-24.0,15.0,26.0,-14.0,-13.0,-3.0,17.0,-7.0,-32.0,4.0,0.0
-15.0,13.0,27.0,-15.0,-21.0,1.0,8.0,-7.0,-13.0,44.0,0.0
-38.0,-15.0,12.0,-2.0,-21.0,-1.0,-10.0,-11.0,3.0,28.0,0.0
-95.0,-67.0,12.0,24.0,-1.0,0.0,-28.0,-15.0,-3.0,-32.0,0.0
-101.0,-101.0,4.0,26.0,16.0,6.0,-2.0,-9.0,4.0,-35.0,0.0
-63.0,-67.0,-33.0,25.0,13.0,3.0,33.0,-9.0,21.0,-20.0,0.0
-49.0,-16.0,-31.0,41.0,20.0,2.0,39.0,0.0,33.0,-24.0,0.0
-38.0,15.0,6.0,57.0,18.0,8.0,29.0,-3.0,5.0,-41.0,0.0
-12.0,40.0,-7.0,35.0,26.0,4.0,10.0,-10.0,0.0,-34.0,0.0
21.0,20.0,-6.0,-10.0,21.0,-4.0,5.0,-10.0,21.0,7.0,0.0
23.0,-19.0,24.0,-25.0,11.0,0.0,8.0,0.0,20.0,15.0,0.0
11.0,-43.0,7.0,-12.0,9.0,15.0,20.0,18.0,27.0,2.0,0.0
21.0,-33.0,-10.0,-11.0,7.0,17.0,18.0,21.0,26.0,-4.0,0.0
19.0,-25.0,-16.0,-21.0,6.0,7.0,-15.0,13.0,1.0,-33.0,0.0
23.0,-20.0,-1.0,-21.0,-1.0,0.0,-31.0,15.0,-1.0,-38.0,0.0
30.0,-22.0,-9.0,-24.0,-7.0,-5.0,-37.0,16.0,7.0,-17.0,0.0
-5.0,-31.0,-16.0,-33.0,-3.0,1.0,-34.0,19.0,10.0,18.0,0.0
-32.0,10.0,-3.0,-13.0,0.0,-2.0,-23.0,-5.0,-28.0,-11.0,0.0
-37.0,9.0,7.0,13.0,13.0,-6.0,-7.0,-24.0,-60.0,-68.0,0.0
-8.0,32.0,20.0,23.0,12.0,-10.0,-4.0,-31.0,-58.0,-61.0,0.0
63.0,41.0,7.0,6.0,-10.0,-12.0,-11.0,-31.0,-45.0,-21.0,0.0
121.0,61.0,-24.0,-7.0,-17.0,-32.0,-30.0,-26.0,-53.0,2.0,0.0
112.0,79.0,-39.0,-15.0,-23.0,-47.0,-26.0,-23.0,-52.0,18.0,0.0
78.0,72.0,30.0,2.0,-17.0,-24.0,-15.0,-40.0,-53.0,-12.0,0.0
113.0,54.0,-5.0,-6.0,-20.0,-16.0,-11.0,-39.0,-32.0,3.0,0.0
106.0,-14.0,-141.0,-19.0,-18.0,-10.0,-13.0,-14.0,-22.0,34.0,0.0
39.0,-35.0,-104.0,3.0,-13.0,1.0,-11.0,3.0,-29.0,27.0,0.0
-10.0,-17.0,10.0,17.0,-20.0,2.0,-16.0,-1.0,-13.0,19.0,0.0
-51.0,5.0,23.0,16.0,-19.0,-35.0,-23.0,-13.0,-1.0,-14.0,0.0
-116.0,-35.0,5.0,21.0,-14.0,-52.0,-22.0,-8.0,20.0,-21.0,0.0
-125.0,-68.0,0.0,24.0,-6.0,-21.0,-21.0,12.0,47.0,-13.0,0.0
-114.0,-96.0,13.0,31.0,15.0,5.0,-8.0,23.0,56.0,-34.0,0.0
-98.0,-84.0,10.0,24.0,24.0,14.0,-8.0,31.0,49.0,-38.0,0.0
-51.0,-28.0,27.0,20.0,10.0,8.0,-26.0,12.0,38.0,-22.0,0.0
18.0,32.0,42.0,29.0,5.0,5.0,-27.0,-3.0,31.0,-10.0,0.0
72.0,54.0,25.0,12.0,0.0,-1.0,-27.0,-6.0,16.0,-12.0,0.0
81.0,59.0,23.0,-7.0,-10.0,-11.0,-27.0,5.0,7.0,-9.0,0.0
42.0,8.0,-7.0,-25.0,-1.0,-6.0,-11.0,15.0,22.0,11.0,0.0
-14.0,-63.0,-50.0,-36.0,-2.0,0.0,2.0,31.0,39.0,40.0,0.0
-70.0,-85.0,-53.0,-21.0,-3.0,-25.0,-5.0,29.0,19.0,37.0,0.0
-105.0,-104.0,-13.0,6.0,14.0,-26.0,0.0,17.0,-1.0,10.0,0.0
-92.0,-106.0,3.0,18.0,19.0,-10.0,-2.0,14.0,-11.0,2.0,0.0
-60.0,-72.0,0.0,9.0,16.0,-4.0,-5.0,29.0,-6.0,14.0,0.0
-37.0,-50.0,-3.0,16.0,14.0,-2.0,0.0,30.0,-17.0,7.0,0.0
-23.0,-32.0,-32.0,16.0,18.0,-17.0,-7.0,14.0,-27.0,3.0,0.0
0.0,-7.0,8.0,8.0,7.0,-15.0,-17.0,6.0,-27.0,5.0,0.0
3.0,10.0,22.0,-1.0,-3.0,-14.0,-27.0,-4.0,-36.0,20.0,0.0
0.0,2.0,29.0,-6.0,-5.0,-5.0,-34.0,-14.0,-21.0,19.0,0.0
-19.0,-2.0,43.0,6.0,-3.0,-1.0,-52.0,-16.0,-14.0,8.0,0.0
-39.0,1.0,55.0,20.0,0.0,3.0,-47.0,-20.0,-3.0,-2.0,0.0
-25.0,15.0,55.0,4.0,-4.0,-1.0,-29.0,-17.0,5.0,-3.0,0.0
-13.0,23.0,49.0,0.0,-3.0,4.0,-35.0,-14.0,15.0,3.0,0.0
8.0,10.0,33.0,0.0,-7.0,6.0,-32.0,-15.0,26.0,8.0,0.0
7.0,4.0,31.0,7.0,7.0,13.0,-15.0,-11.0,30.0,21.0,0.0
7.0,11.0,30.0,14.0,13.0,21.0,9.0,-9.0,46.0,19.0,0.0
10.0,23.0,25.0,-1.0,-1.0,21.0,20.0,-8.0,39.0,8.0,0.0
33.0,51.0,23.0,-7.0,-8.0,21.0,27.0,-1.0,31.0,14.0,0.0
57.0,45.0,15.0,-3.0,0.0,16.0,45.0,4.0,40.0,20.0,0.0
71.0,36.0,19.0,1.0,19.0,15.0,52.0,5.0,31.0,21.0,0.0
67.0,10.0,4.0,2.0,23.0,2.0,41.0,9.0,12.0,39.0,0.0
55.0,-17.0,-15.0,-12.0,12.0,4.0,37.0,4.0,1.0,45.0,0.0
55.0,-9.0,-18.0,-21.0,7.0,5.0,42.0,0.0,-14.0,38.0,0.0
50.0,-6.0,-50.0,-14.0,-2.0,12.0,24.0,0.0,-24.0,41.0,0.0
52.0,7.0,-62.0,4.0,-6.0,9.0,-12.0,3.0,-44.0,31.0,0.0
16.0,12.0,-12.0,-2.0,-16.0,-5.0,-29.0,4.0,-45.0,19.0,0.0
-30.0,-12.0,-1.0,-2.0,-11.0,-12.0,-25.0,6.0,-36.0,15.0,0.0
-45.0,18.0,18.0,4.0,-3.0,-11.0,-41.0,-3.0,-55.0,-13.0,0.0
-60.0,-13.0,14.0,5.0,-9.0,-23.0,-36.0,-3.0,-42.0,4.0,0.0
-49.0,-27.0,18.0,2.0,0.0,-16.0,-30.0,-4.0,-16.0,15.0,0.0
-39.0,-9.0,-2.0,13.0,-1.0,-23.0,-34.0,-9.0,-27.0,5.0,0.0
-29.0,-6.0,-76.0,7.0,-3.0,-19.0,-27.0,-21.0,-32.0,1.0,0.0
-11.0,4.0,-22.0,12.0,-5.0,0.0,-28.0,-21.0,-19.0,-8.0,0.0
9.0,7.0,23.0,13.0,-5.0,12.0,-20.0,-11.0,-8.0,2.0,0.0
18.0,13.0,7.0,25.0,3.0,2.0,-12.0,-6.0,4.0,13.0,0.0
20.0,32.0,-15.0,22.0,-2.0,-10.0,-14.0,0.0,23.0,13.0,0.0
26.0,45.0,13.0,16.0,1.0,1.0,-7.0,0.0,41.0,19.0,0.0
17.0,22.0,19.0,10.0,1.0,-3.0,-1.0,5.0,52.0,15.0,0.0
11.0,22.0,11.0,1.0,1.0,5.0,1.0,7.0,44.0,14.0,0.0
20.0,16.0,-13.0,7.0,-8.0,7.0,12.0,3.0,35.0,12.0,0.0
18.0,27.0,-105.0,6.0,-10.0,6.0,4.0,4.0,27.0,7.0,0.0
21.0,14.0,-73.0,5.0,-14.0,5.0,-5.0,0.0,19.0,0.0,0.0
26.0,16.0,-9.0,9.0,-21.0,8.0,-8.0,-2.0,17.0,1.0,0.0
25.0,7.0,-7.0,3.0,-22.0,9.0,-5.0,-5.0,18.0,-2.0,0.0
19.0,1.0,-12.0,-10.0,-23.0,6.0,0.0,-11.0,3.0,-9.0,0.0
24.0,13.0,-11.0,1.0,-30.0,5.0,-16.0,-10.0,-21.0,-2.0,0.0
24.0,8.0,1.0,6.0,-21.0,-2.0,-36.0,-9.0,-32.0,-3.0,0.0
20.0,7.0,2.0,-1.0,-13.0,-18.0,-30.0,-8.0,-30.0,-4.0,0.0
-2.0,-2.0,0.0,-10.0,-19.0,-24.0,-25.0,-6.0,-24.0,-2.0,0.0
-27.0,-6.0,-2.0,-7.0,-19.0,-21.0,-19.0,-4.0,-21.0,-8.0,0.0
-25.0,4.0,-32.0,-2.0,-23.0,-12.0,-12.0,-5.0,-29.0,-4.0,0.0
7.0,2.0,8.0,7.0,-20.0,3.0,-5.0,-1.0,-36.0,10.0,0.0
8.0,-8.0,7.0,6.0,-12.0,11.0,-5.0,12.0,-38.0,6.0,0.0
10.0,-19.0,12.0,6.0,-7.0,19.0,-7.0,13.0,-27.0,7.0,0.0
11.0,-12.0,19.0,9.0,-2.0,8.0,-6.0,16.0,-18.0,5.0,0.0
16.0,-14.0,25.0,25.0,-7.0,-8.0,-2.0,10.0,-19.0,-11.0,0.0
13.0,4.0,24.0,21.0,-12.0,-10.0,-5.0,-1.0,-3.0,-19.0,0.0
5.0,-5.0,15.0,7.0,-9.0,-14.0,-2.0,1.0,8.0,-21.0,0.0
8.0,0.0,20.0,5.0,4.0,-15.0,17.0,-3.0,14.0,-21.0,0.0
4.0,18.0,25.0,10.0,1.0,-13.0,39.0,-7.0,20.0,-14.0,0.0
3.0,45.0,22.0,18.0,-1.0,-6.0,44.0,-4.0,15.0,-22.0,0.0
10.0,52.0,19.0,20.0,0.0,-20.0,33.0,-15.0,-3.0,-29.0,0.0
31.0,62.0,1.0,17.0,8.0,-39.0,28.0,-21.0,10.0,-38.0,0.0
52.0,78.0,-18.0,10.0,17.0,-16.0,38.0,-8.0,22.0,-24.0,0.0
52.0,62.0,3.0,20.0,26.0,0.0,48.0,-1.0,15.0,-23.0,0.0
64.0,24.0,32.0,34.0,29.0,15.0,31.0,-4.0,24.0,-35.0,0.0
122.0,41.0,27.0,36.0,33.0,7.0,-4.0,-11.0,10.0,-34.0,0.0
182.0,87.0,33.0,22.0,16.0,-25.0,-28.0,-18.0,9.0,-1.0,0.0
207.0,85.0,14.0,2.0,-14.0,-39.0,-27.0,-16.0,27.0,38.0,0.0
196.0,66.0,-3.0,-15.0,-27.0,-31.0,-17.0,1.0,63.0,106.0,0.0
89.0,59.0,24.0,-5.0,-25.0,-22.0,-8.0,-2.0,48.0,68.0,0.0
11.0,41.0,53.0,17.0,-5.0,-11.0,-11.0,1.0,13.0,8.0,0.0
-20.0,5.0,46.0,21.0,7.0,-10.0,-13.0,-6.0,-5.0,-23.0,0.0
-52.0,-1.0,29.0,19.0,1.0,-21.0,-32.0,-21.0,-15.0,-50.0,0.0
-109.0,-44.0,-13.0,-6.0,-5.0,-5.0,-28.0,11.0,11.0,-8.0,0.0
-169.0,-102.0,-41.0,-40.0,-13.0,25.0,-6.0,54.0,66.0,50.0,0.0
-190.0,-43.0,-29.0,-52.0,-21.0,21.0,-18.0,40.0,28.0,3.0,0.0
-228.0,30.0,3.0,-32.0,-22.0,3.0,-30.0,9.0,-19.0,-60.0,0.0
-217.0,41.0,31.0,-11.0,-9.0,11.0,-35.0,5.0,-31.0,-66.0,0.0
-157.0,14.0,14.0,-14.0,-5.0,14.0,-23.0,15.0,-28.0,-51.0,0.0
-99.0,5.0,3.0,-34.0,5.0,34.0,25.0,30.0,-20.0,-26.0,0.0
-54.0,9.0,-17.0,-39.0,3.0,46.0,69.0,34.0,0.0,0.0,0.0
-37.0,2.0,-47.0,-31.0,8.0,38.0,55.0,17.0,-9.0,-9.0,0.0
-62.0,9.0,-133.0,-16.0,2.0,22.0,35.0,2.0,-16.0,-12.0,0.0
-62.0,22.0,-111.0,-17.0,-16.0,-9.0,14.0,-11.0,-16.0,10.0,0.0
-42.0,-15.0,-7.0,-6.0,-16.0,-21.0,0.0,-24.0,-28.0,21.0,0.0
-68.0,-96.0,9.0,28.0,14.0,14.0,8.0,-25.0,-40.0,3.0,0.0
-56.0,-134.0,6.0,32.0,34.0,33.0,32.0,-7.0,-25.0,1.0,0.0
-8.0,-113.0,3.0,32.0,32.0,34.0,44.0,12.0,3.0,9.0,0.0
11.0,-73.0,-88.0,28.0,19.0,16.0,30.0,2.0,11.0,24.0,0.0
-27.0,-60.0,-78.0,28.0,19.0,11.0,20.0,-3.0,13.0,20.0,0.0
-35.0,-85.0,19.0,30.0,19.0,26.0,55.0,24.0,83.0,63.0,0.0
-47.0,-44.0,40.0,16.0,23.0,25.0,32.0,26.0,102.0,52.0,0.0
-76.0,-34.0,37.0,13.0,17.0,32.0,5.0,23.0,67.0,22.0,0.0
-90.0,-53.0,32.0,9.0,13.0,27.0,6.0,22.0,40.0,-5.0,0.0
-92.0,-68.0,16.0,-1.0,13.0,30.0,1.0,19.0,27.0,-20.0,0.0
-67.0,-46.0,22.0,-4.0,5.0,25.0,-12.0,14.0,25.0,-14.0,0.0
-42.0,-7.0,26.0,0.0,15.0,10.0,-26.0,1.0,9.0,-17.0,0.0
-24.0,16.0,-29.0,-1.0,26.0,10.0,-12.0,3.0,-5.0,-29.0,0.0
-2.0,18.0,-14.0,4.0,49.0,14.0,2.0,8.0,-21.0,-23.0,0.0
28.0,45.0,38.0,-3.0,60.0,8.0,-8.0,17.0,-34.0,-13.0,0.0
56.0,61.0,45.0,0.0,37.0,4.0,-16.0,7.0,-38.0,-5.0,0.0
85.0,63.0,39.0,1.0,10.0,-10.0,-22.0,-6.0,-25.0,21.0,0.0
96.0,73.0,42.0,-20.0,-5.0,-10.0,-21.0,-3.0,-21.0,45.0,0.0
60.0,67.0,46.0,-36.0,-10.0,-11.0,-11.0,-15.0,-22.0,29.0,0.0
16.0,41.0,36.0,-25.0,-11.0,-11.0,-15.0,-19.0,-29.0,2.0,0.0
-4.0,-3.0,27.0,1.0,4.0,-7.0,-2.0,1.0,-15.0,9.0,0.0
-32.0,-35.0,21.0,0.0,7.0,-7.0,2.0,-3.0,-13.0,14.0,0.0
-55.0,-44.0,16.0,13.0,10.0,-18.0,2.0,-11.0,-45.0,-15.0,0.0
-30.0,-17.0,10.0,8.0,-5.0,-25.0,18.0,-15.0,-42.0,-21.0,0.0
-8.0,8.0,-2.0,1.0,-19.0,-21.0,29.0,-13.0,-29.0,-18.0,0.0
-11.0,12.0,-6.0,-6.0,-19.0,2.0,32.0,-12.0,-8.0,-20.0,0.0
-20.0,7.0,1.0,-3.0,-17.0,7.0,23.0,-1.0,1.0,-30.0,0.0
-17.0,10.0,4.0,-3.0,-19.0,8.0,11.0,6.0,1.0,-21.0,0.0
-3.0,9.0,3.0,-3.0,-10.0,9.0,-11.0,1.0,2.0,-18.0,0.0
5.0,32.0,2.0,2.0,-7.0,15.0,-16.0,9.0,16.0,-14.0,0.0
22.0,23.0,-42.0,8.0,-12.0,22.0,-3.0,15.0,39.0,1.0,0.0
17.0,24.0,-94.0,4.0,-24.0,20.0,28.0,13.0,58.0,3.0,0.0
26.0,36.0,-28.0,6.0,-21.0,16.0,45.0,22.0,53.0,9.0,0.0
55.0,46.0,-21.0,0.0,2.0,12.0,35.0,20.0,44.0,6.0,0.0
66.0,55.0,-52.0,-9.0,7.0,13.0,52.0,8.0,28.0,0.0,0.0
52.0,69.0,-10.0,3.0,0.0,12.0,55.0,-3.0,16.0,-4.0,0.0
45.0,64.0,15.0,8.0,0.0,9.0,25.0,-13.0,18.0,1.0,0.0
55.0,50.0,26.0,12.0,-2.0,-3.0,14.0,-8.0,17.0,-1.0,0.0
46.0,16.0,46.0,17.0,-3.0,-6.0,1.0,-7.0,11.0,-1.0,0.0
6.0,9.0,66.0,22.0,-7.0,-2.0,-17.0,-16.0,-20.0,-21.0,0.0
-9.0,3.0,56.0,29.0,-8.0,-14.0,-33.0,-20.0,-30.0,-32.0,0.0
2.0,-29.0,14.0,6.0,-19.0,-25.0,-41.0,-15.0,-26.0,-18.0,0.0
-1.0,-11.0,-12.0,-18.0,-21.0,-28.0,-46.0,-11.0,-33.0,-31.0,0.0
-6.0,7.0,-23.0,-16.0,-24.0,-33.0,-40.0,0.0,-43.0,-33.0,0.0
17.0,19.0,-1.0,-15.0,-12.0,-19.0,-33.0,-4.0,-48.0,-23.0,0.0
25.0,38.0,-53.0,-3.0,-18.0,-7.0,-19.0,2.0,-40.0,-6.0,0.0
31.0,61.0,-142.0,5.0,-27.0,0.0,-12.0,0.0,-40.0,8.0,0.0
32.0,59.0,-140.0,6.0,-24.0,1.0,-2.0,5.0,-33.0,20.0,0.0
26.0,20.0,-118.0,12.0,-11.0,12.0,-11.0,13.0,-30.0,19.0,0.0
21.0,0.0,-30.0,14.0,-8.0,8.0,-35.0,25.0,-24.0,16.0,0.0
14.0,1.0,9.0,7.0,0.0,11.0,-43.0,25.0,-23.0,14.0,0.0
3.0,-6.0,14.0,8.0,0.0,13.0,-40.0,29.0,-26.0,20.0,0.0
-6.0,-10.0,17.0,15.0,9.0,14.0,-33.0,35.0,-16.0,21.0,0.0
-13.0,-8.0,-85.0,11.0,4.0,16.0,-16.0,48.0,-4.0,24.0,0.0
-38.0,-31.0,-142.0,1.0,-11.0,14.0,-13.0,46.0,-1.0,14.0,0.0
-53.0,-24.0,-127.0,-9.0,-21.0,14.0,-15.0,35.0,-6.0,-4.0,0.0
-36.0,-12.0,-37.0,9.0,-18.0,18.0,-10.0,29.0,0.0,-10.0,0.0
-3.0,16.0,62.0,16.0,-19.0,26.0,5.0,12.0,12.0,-18.0,0.0
1.0,48.0,73.0,12.0,-24.0,19.0,10.0,3.0,12.0,-13.0,0.0
6.0,29.0,40.0,-1.0,-23.0,8.0,-19.0,7.0,13.0,-5.0,0.0
6.0,-14.0,-8.0,3.0,-18.0,17.0,-14.0,7.0,23.0,-4.0,0.0
1.0,-6.0,13.0,13.0,-7.0,22.0,21.0,7.0,26.0,-19.0,0.0
-18.0,-8.0,61.0,16.0,-3.0,25.0,35.0,16.0,16.0,-24.0,0.0
-27.0,-20.0,54.0,21.0,-8.0,24.0,38.0,21.0,12.0,-23.0,0.0
-9.0,9.0,44.0,31.0,-7.0,20.0,33.0,19.0,16.0,-4.0,0.0
16.0,10.0,41.0,24.0,-5.0,25.0,36.0,14.0,18.0,-3.0,0.0
25.0,-2.0,44.0,5.0,-11.0,15.0,32.0,18.0,8.0,10.0,0.0
33.0,0.0,40.0,6.0,-12.0,-4.0,31.0,24.0,10.0,16.0,0.0
34.0,-23.0,30.0,6.0,-20.0,-13.0,25.0,20.0,4.0,11.0,0.0
26.0,-16.0,39.0,1.0,-14.0,-22.0,-10.0,9.0,-9.0,11.0,0.0
30.0,1.0,47.0,22.0,-8.0,-23.0,-30.0,2.0,-14.0,26.0,0.0
28.0,0.0,54.0,25.0,0.0,-14.0,-38.0,7.0,-19.0,28.0,0.0
46.0,17.0,53.0,38.0,4.0,-9.0,-34.0,0.0,-24.0,7.0,0.0
63.0,39.0,35.0,42.0,19.0,3.0,-29.0,-11.0,-45.0,-12.0,0.0
60.0,19.0,36.0,22.0,33.0,1.0,-32.0,-15.0,-53.0,-19.0,0.0
60.0,5.0,34.0,-12.0,22.0,-1.0,-43.0,-10.0,-43.0,-3.0,0.0
59.0,18.0,30.0,-15.0,9.0,-4.0,-36.0,-14.0,-40.0,15.0,0.0
34.0,24.0,29.0,-13.0,-4.0,-14.0,-34.0,-9.0,-33.0,20.0,0.0
8.0,-7.0,19.0,-24.0,-8.0,-6.0,-23.0,0.0,-12.0,2.0,0.0
-1.0,-10.0,-1.0,-22.0,8.0,-2.0,-23.0,0.0,-19.0,-24.0,0.0
0.0,20.0,-10.0,-19.0,12.0,-3.0,-19.0,1.0,-11.0,-17.0,0.0
26.0,26.0,18.0,-13.0,4.0,0.0,-14.0,10.0,5.0,14.0,0.0
51.0,7.0,20.0,-14.0,18.0,-1.0,-3.0,13.0,13.0,18.0,0.0
86.0,41.0,6.0,-30.0,15.0,-19.0,2.0,-2.0,16.0,4.0,0.0
107.0,70.0,8.0,-35.0,6.0,-36.0,-15.0,-9.0,12.0,2.0,0.0
110.0,105.0,43.0,-8.0,-5.0,-41.0,-24.0,-20.0,13.0,-6.0,0.0
89.0,128.0,74.0,22.0,-2.0,-26.0,-23.0,-10.0,8.0,0.0,0.0
71.0,107.0,53.0,13.0,4.0,2.0,-4.0,15.0,30.0,7.0,0.0
49.0,77.0,38.0,12.0,20.0,9.0,15.0,13.0,30.0,-20.0,0.0
41.0,48.0,27.0,9.0,20.0,2.0,12.0,1.0,22.0,-25.0,0.0
38.0,2.0,-18.0,-1.0,-3.0,0.0,9.0,20.0,63.0,39.0,0.0
0.0,-70.0,-19.0,-11.0,-16.0,8.0,18.0,32.0,94.0,71.0,0.0
-74.0,-97.0,0.0,-4.0,-30.0,-2.0,8.0,14.0,69.0,47.0,0.0
-175.0,-120.0,30.0,13.0,-18.0,-14.0,-7.0,-10.0,16.0,-13.0,0.0
-202.0,-124.0,-12.0,13.0,-3.0,2.0,-1.0,-7.0,-16.0,-44.0,0.0
-155.0,-103.0,-71.0,4.0,-14.0,23.0,0.0,-1.0,-9.0,-36.0,0.0
-81.0,-58.0,10.0,-3.0,-15.0,21.0,26.0,-6.0,2.0,-28.0,0.0
17.0,14.0,36.0,-5.0,-8.0,11.0,42.0,-17.0,-29.0,-28.0,0.0
143.0,76.0,33.0,-13.0,-6.0,-3.0,41.0,-31.0,-46.0,-20.0,0.0
216.0,103.0,31.0,-16.0,-5.0,-6.0,31.0,-29.0,-31.0,2.0,0.0
177.0,76.0,9.0,-29.0,-1.0,-6.0,38.0,-19.0,-3.0,46.0,0.0
93.0,-3.0,-54.0,-54.0,-1.0,-5.0,39.0,19.0,54.0,144.0,0.0
3.0,-64.0,-65.0,-52.0,-7.0,12.0,40.0,40.0,69.0,158.0,0.0
-93.0,-31.0,7.0,-5.0,0.0,-1.0,19.0,-6.0,15.0,37.0,0.0
-195.0,-33.0,67.0,41.0,27.0,-14.0,-26.0,-35.0,-48.0,-85.0,0.0
-162.0,-40.0,42.0,33.0,40.0,-5.0,-34.0,-12.0,-46.0,-74.0,0.0
-134.0,-25.0,6.0,14.0,29.0,-2.0,-23.0,-10.0,-42.0,-60.0,0.0
-133.0,-54.0,-12.0,-6.0,18.0,-12.0,-13.0,-23.0,-46.0,-54.0,0.0
-120.0,-77.0,-20.0,-16.0,28.0,-12.0,-14.0,-22.0,-57.0,-53.0,0.0
-74.0,-76.0,-34.0,-20.0,19.0,-3.0,-22.0,-16.0,-64.0,-33.0,0.0
-72.0,-90.0,-41.0,-34.0,25.0,14.0,16.0,1.0,-38.0,-2.0,0.0
-93.0,-80.0,-58.0,-17.0,31.0,22.0,6.0,2.0,-22.0,12.0,0.0
-65.0,-39.0,-76.0,-7.0,32.0,10.0,1.0,2.0,-2.0,21.0,0.0
-33.0,-6.0,4.0,-6.0,21.0,-6.0,-14.0,-19.0,9.0,34.0,0.0
-46.0,-9.0,24.0,6.0,15.0,-6.0,-14.0,-22.0,24.0,30.0,0.0
-53.0,-29.0,0.0,4.0,13.0,8.0,3.0,-3.0,51.0,29.0,0.0
-25.0,-29.0,-23.0,3.0,11.0,25.0,11.0,6.0,65.0,27.0,0.0
-23.0,-34.0,-32.0,-13.0,8.0,34.0,21.0,20.0,55.0,24.0,0.0
-25.0,-46.0,-77.0,-25.0,-1.0,41.0,45.0,30.0,45.0,23.0,0.0
-27.0,-41.0,-61.0,-33.0,-1.0,29.0,58.0,19.0,38.0,13.0,0.0
-23.0,21.0,-21.0,-31.0,-15.0,4.0,35.0,-3.0,7.0,0.0,0.0
3.0,84.0,2.0,-29.0,-25.0,-21.0,14.0,-25.0,-7.0,3.0,0.0
35.0,108.0,17.0,-13.0,-20.0,-33.0,6.0,-27.0,-24.0,-1.0,0.0
49.0,95.0,21.0,-6.0,-17.0,-19.0,7.0,-10.0,-28.0,-1.0,0.0
56.0,44.0,33.0,3.0,-3.0,-15.0,12.0,-15.0,-29.0,0.0,0.0
31.0,-17.0,28.0,12.0,11.0,-9.0,9.0,-7.0,-23.0,5.0,0.0
1.0,-33.0,12.0,0.0,2.0,-7.0,-14.0,10.0,-8.0,-1.0,0.0
-14.0,-33.0,1.0,-8.0,17.0,4.0,-13.0,10.0,-12.0,-36.0,0.0
-14.0,-31.0,-77.0,-9.0,26.0,18.0,-9.0,8.0,-28.0,-31.0,0.0
-2.0,-52.0,-172.0,-21.0,22.0,24.0,-12.0,7.0,-25.0,-14.0,0.0
10.0,-55.0,-160.0,-21.0,13.0,22.0,0.0,22.0,-4.0,-12.0,0.0
-6.0,-37.0,-53.0,-17.0,8.0,16.0,12.0,20.0,-5.0,2.0,0.0
-30.0,-27.0,8.0,-17.0,10.0,13.0,8.0,28.0,-24.0,11.0,0.0
-24.0,-9.0,13.0,-17.0,8.0,0.0,8.0,21.0,-41.0,11.0,0.0
6.0,7.0,17.0,-5.0,3.0,-11.0,-1.0,4.0,-48.0,9.0,0.0
12.0,-2.0,19.0,-4.0,4.0,-14.0,-9.0,10.0,-52.0,2.0,0.0
-5.0,16.0,21.0,-8.0,-4.0,-10.0,4.0,16.0,-33.0,11.0,0.0
5.0,1.0,26.0,-7.0,-14.0,-6.0,10.0,7.0,-15.0,15.0,0.0
25.0,-2.0,25.0,-8.0,-17.0,-4.0,13.0,16.0,-11.0,16.0,0.0
23.0,4.0,22.0,-13.0,-20.0,-1.0,4.0,10.0,-13.0,13.0,0.0
18.0,11.0,27.0,-17.0,-14.0,4.0,11.0,2.0,0.0,15.0,0.0
30.0,9.0,25.0,-12.0,-7.0,7.0,28.0,2.0,24.0,19.0,0.0
15.0,-10.0,20.0,2.0,-10.0,8.0,36.0,-4.0,43.0,16.0,0.0
12.0,-1.0,23.0,8.0,1.0,13.0,21.0,-13.0,47.0,11.0,0.0
27.0,12.0,25.0,20.0,5.0,12.0,14.0,-7.0,23.0,8.0,0.0
32.0,23.0,35.0,17.0,5.0,2.0,28.0,-20.0,3.0,1.0,0.0
35.0,28.0,0.0,14.0,10.0,0.0,29.0,-30.0,-2.0,-2.0,0.0
51.0,26.0,4.0,-4.0,8.0,9.0,32.0,-19.0,0.0,5.0,0.0
65.0,16.0,6.0,-10.0,3.0,1.0,33.0,-16.0,6.0,14.0,0.0
85.0,54.0,5.0,-7.0,-4.0,-6.0,38.0,-15.0,1.0,13.0,0.0
114.0,104.0,-2.0,-13.0,-18.0,-10.0,22.0,-23.0,-25.0,-12.0,0.0
124.0,117.0,31.0,-6.0,-30.0,0.0,8.0,-34.0,-58.0,-31.0,0.0
97.0,86.0,51.0,5.0,-23.0,6.0,1.0,-29.0,-56.0,-37.0,0.0
70.0,50.0,53.0,5.0,-15.0,7.0,-2.0,-26.0,-45.0,-41.0,0.0
35.0,41.0,43.0,-9.0,-15.0,1.0,0.0,-12.0,-32.0,-18.0,0.0
-14.0,15.0,12.0,-13.0,-21.0,-8.0,7.0,-10.0,-9.0,9.0,0.0
-37.0,-19.0,-22.0,-9.0,-18.0,-6.0,11.0,-11.0,-3.0,0.0,0.0
-17.0,-29.0,-30.0,-9.0,-14.0,-18.0,4.0,-7.0,-14.0,4.0,0.0
13.0,-60.0,-35.0,-21.0,-22.0,-14.0,0.0,13.0,9.0,50.0,0.0
-7.0,-74.0,-31.0,2.0,-16.0,1.0,-20.0,12.0,-6.0,41.0,0.0
-46.0,-64.0,-5.0,14.0,-9.0,17.0,-29.0,6.0,-25.0,1.0,0.0
-35.0,-17.0,12.0,6.0,-16.0,18.0,-16.0,5.0,-16.0,9.0,0.0
17.0,54.0,40.0,5.0,-22.0,-3.0,-2.0,-20.0,-15.0,17.0,0.0
27.0,50.0,48.0,4.0,0.0,-14.0,-12.0,-24.0,-3.0,6.0,0.0
52.0,41.0,28.0,0.0,10.0,-22.0,-41.0,-2.0,15.0,17.0,0.0
67.0,34.0,10.0,-4.0,16.0,-28.0,-34.0,2.0,29.0,31.0,0.0
24.0,24.0,10.0,1.0,6.0,-42.0,-32.0,0.0,30.0,2.0,0.0
-26.0,0.0,-78.0,10.0,1.0,-24.0,-5.0,4.0,52.0,7.0,0.0
-59.0,-54.0,-156.0,3.0,8.0,3.0,43.0,35.0,80.0,46.0,0.0
-102.0,-57.0,-97.0,21.0,32.0,12.0,53.0,33.0,41.0,10.0,0.0
-101.0,-57.0,6.0,17.0,32.0,-2.0,41.0,19.0,25.0,-12.0,0.0
-68.0,-61.0,15.0,6.0,3.0,-23.0,41.0,11.0,30.0,7.0,0.0
-62.0,-75.0,9.0,7.0,-7.0,-20.0,25.0,5.0,17.0,-3.0,0.0
-44.0,-84.0,-21.0,8.0,0.0,-5.0,23.0,9.0,23.0,-16.0,0.0
-17.0,-75.0,-6.0,-7.0,1.0,0.0,29.0,18.0,14.0,-7.0,0.0
6.0,-51.0,-3.0,-16.0,-3.0,-15.0,16.0,14.0,8.0,7.0,0.0
5.0,-41.0,-8.0,-16.0,-11.0,-19.0,-23.0,1.0,8.0,5.0,0.0
-33.0,-64.0,-14.0,-6.0,1.0,-22.0,-25.0,16.0,4.0,2.0,0.0
-43.0,-58.0,-16.0,-2.0,7.0,-20.0,-31.0,28.0,8.0,5.0,0.0
-40.0,-27.0,9.0,8.0,3.0,-21.0,-35.0,8.0,-4.0,-18.0,0.0
-34.0,-2.0,23.0,7.0,2.0,-18.0,-39.0,-1.0,-17.0,-28.0,0.0
-7.0,0.0,31.0,8.0,6.0,-6.0,-17.0,13.0,-14.0,-11.0,0.0
5.0,0.0,13.0,20.0,5.0,-4.0,9.0,15.0,-20.0,-1.0,0.0
1.0,-3.0,6.0,30.0,0.0,-12.0,8.0,-4.0,-33.0,-2.0,0.0
-1.0,-3.0,34.0,26.0,-1.0,-21.0,-10.0,-11.0,-38.0,-14.0,0.0
-1.0,2.0,39.0,30.0,5.0,-21.0,-26.0,-9.0,-18.0,-17.0,0.0
1.0,-3.0,20.0,28.0,16.0,-9.0,-4.0,-8.0,4.0,-8.0,0.0
10.0,-3.0,11.0,15.0,10.0,3.0,10.0,-7.0,12.0,-3.0,0.0
20.0,-12.0,13.0,11.0,6.0,7.0,-8.0,2.0,28.0,0.0,0.0
20.0,-16.0,11.0,4.0,4.0,10.0,-13.0,4.0,40.0,-11.0,0.0
19.0,0.0,-6.0,-2.0,6.0,18.0,-4.0,0.0,49.0,-20.0,0.0
0.0,18.0,-41.0,4.0,12.0,13.0,-6.0,0.0,43.0,-29.0,0.0
-4.0,12.0,-143.0,-1.0,9.0,5.0,-6.0,-3.0,32.0,-20.0,0.0
-4.0,17.0,-145.0,-4.0,5.0,5.0,0.0,-16.0,16.0,-30.0,0.0
-3.0,6.0,-29.0,-3.0,6.0,15.0,-1.0,-8.0,14.0,-29.0,0.0
-4.0,25.0,19.0,2.0,2.0,0.0,-2.0,-3.0,15.0,-15.0,0.0
7.0,40.0,11.0,8.0,-6.0,-19.0,0.0,-1.0,12.0,-10.0,0.0
36.0,22.0,13.0,5.0,-1.0,-21.0,5.0,-11.0,-3.0,-3.0,0.0
54.0,34.0,15.0,-7.0,-5.0,-16.0,3.0,-9.0,-23.0,12.0,0.0
82.0,58.0,-1.0,-31.0,-10.0,-2.0,0.0,-2.0,-25.0,31.0,0.0
111.0,66.0,-6.0,-36.0,-5.0,8.0,21.0,-4.0,-31.0,15.0,0.0
139.0,69.0,0.0,-24.0,2.0,7.0,39.0,-7.0,-45.0,5.0,0.0
160.0,85.0,11.0,-4.0,-3.0,3.0,25.0,-31.0,-37.0,0.0,0.0
177.0,107.0,27.0,-10.0,-18.0,-2.0,-28.0,-53.0,-65.0,-10.0,0.0
143.0,79.0,11.0,-35.0,-23.0,-24.0,-44.0,-45.0,-52.0,10.0,0.0
67.0,-7.0,-26.0,-50.0,-26.0,-22.0,3.0,-8.0,-8.0,56.0,0.0
21.0,7.0,-61.0,-42.0,-34.0,-11.0,25.0,-2.0,-1.0,36.0,0.0
-44.0,41.0,-34.0,-17.0,-25.0,-4.0,2.0,-30.0,-62.0,-64.0,0.0
-59.0,12.0,14.0,-13.0,-12.0,12.0,-16.0,-37.0,-65.0,-98.0,0.0
11.0,33.0,36.0,-9.0,0.0,24.0,-18.0,-47.0,-59.0,-78.0,0.0
60.0,63.0,46.0,7.0,9.0,40.0,-8.0,-38.0,-69.0,-86.0,0.0
42.0,60.0,28.0,6.0,13.0,25.0,-13.0,-35.0,-56.0,-64.0,0.0
24.0,62.0,12.0,-2.0,4.0,2.0,-25.0,-17.0,-35.0,-14.0,0.0
16.0,39.0,8.0,-14.0,-12.0,5.0,-14.0,11.0,11.0,33.0,0.0
-54.0,-29.0,-12.0,-23.0,-13.0,18.0,17.0,50.0,82.0,54.0,0.0
-157.0,-124.0,-23.0,-9.0,9.0,22.0,31.0,44.0,98.0,21.0,0.0
-182.0,-175.0,-26.0,16.0,25.0,25.0,25.0,28.0,84.0,-14.0,0.0
-134.0,-152.0,-27.0,20.0,30.0,22.0,39.0,33.0,86.0,-11.0,0.0
-102.0,-121.0,-44.0,8.0,25.0,23.0,50.0,36.0,100.0,21.0,0.0
-89.0,-74.0,-37.0,13.0,34.0,26.0,48.0,30.0,90.0,28.0,0.0
-85.0,-43.0,9.0,31.0,48.0,28.0,25.0,13.0,54.0,2.0,0.0
-83.0,-45.0,-27.0,28.0,36.0,22.0,18.0,4.0,49.0,1.0,0.0
-80.0,-60.0,-9.0,21.0,25.0,1.0,0.0,-7.0,28.0,11.0,0.0
-74.0,-67.0,28.0,33.0,17.0,-2.0,-9.0,-13.0,6.0,8.0,0.0
-59.0,-69.0,16.0,43.0,4.0,3.0,-6.0,-9.0,3.0,17.0,0.0
-45.0,-60.0,-13.0,27.0,2.0,14.0,6.0,0.0,18.0,18.0,0.0
-34.0,-67.0,-26.0,10.0,0.0,18.0,14.0,3.0,8.0,0.0,0.0
-15.0,-46.0,-13.0,8.0,0.0,17.0,15.0,-10.0,-13.0,-2.0,0.0
-10.0,-16.0,-21.0,4.0,1.0,24.0,20.0,-29.0,-18.0,-18.0,0.0
-7.0,4.0,-20.0,10.0,0.0,20.0,0.0,-27.0,-16.0,-12.0,0.0
-10.0,8.0,-19.0,10.0,-2.0,17.0,0.0,-7.0,-8.0,-4.0,0.0
-1.0,6.0,7.0,11.0,-6.0,11.0,-4.0,12.0,-2.0,12.0,0.0
26.0,9.0,9.0,3.0,-3.0,11.0,10.0,8.0,-9.0,11.0,0.0
31.0,10.0,3.0,-4.0,8.0,17.0,26.0,6.0,-2.0,6.0,0.0
29.0,17.0,0.0,-1.0,18.0,24.0,17.0,7.0,-2.0,2.0,0.0
31.0,18.0,1.0,0.0,22.0,21.0,0.0,6.0,3.0,13.0,0.0
32.0,35.0,22.0,6.0,17.0,17.0,-8.0,0.0,1.0,18.0,0.0
21.0,13.0,17.0,11.0,12.0,16.0,-7.0,-5.0,2.0,12.0,0.0
18.0,18.0,12.0,14.0,20.0,5.0,2.0,-16.0,7.0,-8.0,0.0
16.0,18.0,0.0,-2.0,13.0,0.0,0.0,-21.0,3.0,-7.0,0.0
13.0,24.0,-13.0,-3.0,8.0,1.0,-4.0,-11.0,-4.0,0.0,0.0
14.0,26.0,-12.0,10.0,10.0,2.0,22.0,-2.0,11.0,-13.0,0.0
9.0,14.0,-6.0,2.0,-3.0,-4.0,47.0,-17.0,12.0,-22.0,0.0
15.0,28.0,-3.0,0.0,-6.0,-3.0,31.0,-18.0,19.0,-13.0,0.0
24.0,20.0,-13.0,17.0,-8.0,-9.0,32.0,-12.0,33.0,-3.0,0.0
37.0,17.0,-41.0,24.0,-1.0,-3.0,3.0,6.0,43.0,5.0,0.0
33.0,38.0,-9.0,2.0,1.0,5.0,-1.0,2.0,53.0,14.0,0.0
20.0,34.0,17.0,-3.0,-4.0,2.0,-3.0,-12.0,57.0,17.0,0.0
16.0,21.0,14.0,8.0,0.0,0.0,-5.0,-18.0,44.0,11.0,0.0
24.0,43.0,10.0,9.0,-3.0,0.0,-8.0,-16.0,36.0,-1.0,0.0
54.0,84.0,-2.0,11.0,-1.0,-1.0,-14.0,-26.0,33.0,-11.0,0.0
70.0,96.0,-63.0,1.0,-7.0,-11.0,-14.0,-39.0,10.0,0.0,0.0
77.0,73.0,-18.0,-8.0,-6.0,-29.0,2.0,-38.0,6.0,8.0,0.0
48.0,43.0,2.0,-28.0,-8.0,-36.0,23.0,-26.0,14.0,19.0,0.0
33.0,21.0,-5.0,-46.0,-12.0,-13.0,18.0,-16.0,13.0,38.0,0.0
25.0,23.0,5.0,-33.0,0.0,-5.0,-12.0,-2.0,-10.0,8.0,0.0
17.0,35.0,14.0,-14.0,5.0,1.0,-41.0,-2.0,-17.0,-8.0,0.0
19.0,9.0,-2.0,-25.0,-1.0,11.0,-42.0,-7.0,-12.0,9.0,0.0
-3.0,-22.0,-15.0,-32.0,-14.0,12.0,-37.0,1.0,12.0,28.0,0.0
-39.0,-24.0,-6.0,-25.0,-18.0,17.0,-28.0,-13.0,-17.0,3.0,0.0
-69.0,-15.0,20.0,-6.0,-15.0,5.0,-43.0,-41.0,-73.0,-50.0,0.0
-51.0,8.0,8.0,-14.0,-18.0,-5.0,-32.0,-42.0,-76.0,-53.0,0.0
-19.0,26.0,-1.0,-39.0,-3.0,11.0,-9.0,-24.0,-81.0,-38.0,0.0
0.0,10.0,-13.0,-32.0,18.0,26.0,-1.0,-7.0,-70.0,-31.0,0.0
20.0,-11.0,-8.0,-12.0,26.0,36.0,10.0,9.0,-34.0,2.0,0.0
27.0,-24.0,-40.0,-11.0,15.0,36.0,18.0,10.0,-18.0,41.0,0.0
-8.0,-40.0,-21.0,-6.0,22.0,21.0,18.0,10.0,-17.0,27.0,0.0
-5.0,11.0,1.0,-3.0,15.0,2.0,-4.0,9.0,-18.0,16.0,0.0
27.0,66.0,1.0,-10.0,-12.0,-14.0,-34.0,7.0,-30.0,23.0,0.0
30.0,71.0,-47.0,-18.0,-32.0,-23.0,-49.0,-14.0,-40.0,25.0,0.0
23.0,28.0,0.0,-12.0,-20.0,-25.0,-35.0,-17.0,-35.0,14.0,0.0
1.0,-22.0,36.0,7.0,8.0,-5.0,-3.0,-5.0,-5.0,15.0,0.0
-35.0,-53.0,48.0,18.0,24.0,0.0,6.0,5.0,13.0,14.0,0.0
-44.0,-53.0,59.0,3.0,31.0,2.0,5.0,10.0,21.0,0.0,0.0
-52.0,-37.0,46.0,1.0,25.0,8.0,2.0,12.0,9.0,-24.0,0.0
-23.0,-5.0,30.0,-3.0,11.0,2.0,-1.0,11.0,0.0,-29.0,0.0
84.0,60.0,25.0,4.0,-9.0,-12.0,-15.0,-7.0,2.0,-30.0,0.0
169.0,74.0,-18.0,9.0,-26.0,-8.0,-15.0,-1.0,12.0,-5.0,0.0
194.0,44.0,-98.0,-21.0,-32.0,-9.0,-5.0,12.0,52.0,47.0,0.0
146.0,-3.0,-74.0,-44.0,-30.0,-12.0,-2.0,13.0,73.0,65.0,0.0
8.0,-92.0,-76.0,-35.0,-16.0,0.0,20.0,44.0,107.0,90.0,0.0
-133.0,-76.0,-18.0,13.0,10.0,-1.0,30.0,36.0,68.0,29.0,0.0
-191.0,-10.0,44.0,57.0,23.0,-2.0,14.0,17.0,27.0,-59.0,0.0
-164.0,-51.0,11.0,40.0,28.0,6.0,25.0,21.0,37.0,-44.0,0.0
-108.0,-51.0,15.0,10.0,19.0,6.0,25.0,27.0,53.0,2.0,0.0
-84.0,-21.0,20.0,13.0,21.0,0.0,8.0,23.0,36.0,0.0,0.0
-78.0,-11.0,24.0,10.0,31.0,-5.0,-25.0,16.0,5.0,-31.0,0.0
-63.0,-9.0,18.0,10.0,19.0,-5.0,-28.0,12.0,-23.0,-30.0,0.0
-35.0,-27.0,23.0,17.0,10.0,-5.0,-36.0,14.0,-30.0,-7.0,0.0
-37.0,-54.0,27.0,23.0,25.0,-2.0,-37.0,11.0,-15.0,4.0,0.0
-74.0,-91.0,24.0,22.0,19.0,-8.0,-9.0,10.0,-1.0,-4.0,0.0
-78.0,-86.0,4.0,12.0,0.0,-17.0,-16.0,0.0,0.0,-7.0,0.0
-54.0,-54.0,-47.0,10.0,-1.0,-15.0,-27.0,-6.0,-32.0,-17.0,0.0
-19.0,-3.0,13.0,11.0,7.0,-8.0,-36.0,-11.0,-48.0,-30.0,0.0
29.0,22.0,29.0,0.0,-4.0,-5.0,-35.0,-4.0,-56.0,-29.0,0.0
77.0,46.0,15.0,-15.0,-14.0,0.0,-33.0,2.0,-49.0,-17.0,0.0
97.0,61.0,-41.0,-27.0,-11.0,-1.0,-45.0,2.0,-30.0,1.0,0.0
110.0,51.0,-82.0,-41.0,-7.0,-5.0,-27.0,12.0,-3.0,57.0,0.0
63.0,2.0,1.0,-33.0,-3.0,-9.0,-6.0,18.0,2.0,79.0,0.0
-17.0,-4.0,43.0,-10.0,8.0,-13.0,2.0,13.0,-18.0,48.0,0.0
-19.0,-11.0,50.0,7.0,19.0,-6.0,13.0,10.0,-12.0,23.0,0.0
-1.0,10.0,44.0,20.0,23.0,-2.0,19.0,13.0,-8.0,5.0,0.0
-15.0,-3.0,20.0,20.0,13.0,5.0,3.0,37.0,12.0,12.0,0.0
-23.0,-38.0,2.0,8.0,4.0,6.0,-4.0,40.0,18.0,13.0,0.0
-25.0,-25.0,1.0,1.0,2.0,3.0,-11.0,21.0,7.0,2.0,0.0
-47.0,-46.0,-83.0,8.0,7.0,-3.0,-17.0,21.0,8.0,-11.0,0.0
-59.0,-64.0,-120.0,4.0,9.0,-6.0,-23.0,27.0,8.0,-30.0,0.0
-45.0,-52.0,-40.0,3.0,6.0,0.0,-22.0,32.0,21.0,-14.0,0.0
-38.0,-41.0,16.0,-5.0,-2.0,2.0,-20.0,23.0,30.0,1.0,0.0
-38.0,-28.0,5.0,-25.0,7.0,0.0,-17.0,12.0,22.0,-2.0,0.0
-40.0,-13.0,-37.0,-15.0,14.0,5.0,5.0,16.0,38.0,-3.0,0.0
-1.0,-13.0,-7.0,3.0,11.0,-4.0,29.0,20.0,39.0,6.0,0.0
0.0,-19.0,20.0,-8.0,11.0,-3.0,32.0,19.0,38.0,11.0,0.0
3.0,-2.0,22.0,-8.0,9.0,-3.0,38.0,10.0,38.0,17.0,0.0
15.0,36.0,38.0,-4.0,10.0,-13.0,32.0,0.0,12.0,17.0,0.0
11.0,33.0,43.0,-2.0,-1.0,-26.0,10.0,-2.0,-20.0,12.0,0.0
33.0,26.0,28.0,-17.0,-13.0,-37.0,-18.0,-5.0,-27.0,9.0,0.0
40.0,28.0,22.0,-13.0,-18.0,-39.0,-32.0,-17.0,-40.0,3.0,0.0
42.0,29.0,43.0,-2.0,-11.0,-37.0,-29.0,-14.0,-49.0,-1.0,0.0
55.0,34.0,51.0,-9.0,-3.0,-11.0,-15.0,-7.0,-38.0,1.0,0.0
51.0,6.0,32.0,-20.0,-10.0,5.0,1.0,5.0,-21.0,10.0,0.0
39.0,-25.0,7.0,-40.0,-11.0,8.0,-4.0,8.0,-8.0,10.0,0.0
62.0,-27.0,-2.0,-23.0,-8.0,6.0,-8.0,1.0,-17.0,9.0,0.0
55.0,0.0,10.0,-16.0,-6.0,0.0,-21.0,3.0,-37.0,0.0,0.0
35.0,5.0,21.0,-18.0,3.0,4.0,-14.0,0.0,-59.0,-20.0,0.0
10.0,2.0,20.0,-17.0,8.0,0.0,7.0,-3.0,-58.0,-27.0,0.0
14.0,-8.0,12.0,-28.0,1.0,-1.0,24.0,3.0,-48.0,-15.0,0.0
8.0,3.0,17.0,-23.0,-6.0,-18.0,22.0,0.0,-57.0,-15.0,0.0
-5.0,10.0,26.0,-2.0,4.0,-32.0,10.0,-8.0,-72.0,-20.0,0.0
5.0,-18.0,19.0,3.0,-5.0,-27.0,0.0,0.0,-60.0,-18.0,0.0
17.0,-20.0,13.0,0.0,-7.0,-28.0,-16.0,-1.0,-52.0,-7.0,0.0
32.0,24.0,20.0,9.0,-4.0,-27.0,-23.0,-17.0,-43.0,-6.0,0.0
60.0,74.0,20.0,17.0,-5.0,-22.0,-12.0,-19.0,-42.0,-9.0,0.0
63.0,86.0,22.0,13.0,-7.0,-21.0,13.0,-11.0,-29.0,0.0,0.0
59.0,63.0,20.0,5.0,-13.0,-33.0,-4.0,-16.0,-20.0,4.0,0.0
61.0,0.0,0.0,13.0,-25.0,-28.0,-8.0,-7.0,8.0,17.0,0.0
30.0,-34.0,-18.0,4.0,-14.0,-8.0,2.0,0.0,31.0,18.0,0.0
-15.0,-38.0,-15.0,-2.0,3.0,8.0,5.0,-3.0,21.0,-18.0,0.0
-7.0,-27.0,-74.0,-5.0,7.0,5.0,-6.0,0.0,20.0,-13.0,0.0
-4.0,-20.0,-82.0,-3.0,-2.0,5.0,-34.0,-1.0,22.0,-13.0,0.0
5.0,-5.0,-56.0,7.0,-8.0,4.0,-37.0,-9.0,16.0,-23.0,0.0
15.0,7.0,21.0,8.0,-11.0,9.0,-24.0,-23.0,14.0,-14.0,0.0
32.0,28.0,16.0,-5.0,-20.0,10.0,6.0,-31.0,19.0,-2.0,0.0
36.0,19.0,-25.0,-2.0,-19.0,4.0,17.0,-29.0,33.0,-1.0,0.0
30.0,14.0,-40.0,-4.0,-17.0,1.0,17.0,-17.0,34.0,3.0,0.0
-1.0,9.0,-83.0,-10.0,-19.0,8.0,19.0,-3.0,34.0,-4.0,0.0
-7.0,-2.0,-64.0,-8.0,-4.0,3.0,25.0,9.0,32.0,-10.0,0.0
9.0,19.0,26.0,-2.0,9.0,1.0,36.0,18.0,22.0,0.0,0.0
12.0,20.0,32.0,-6.0,-3.0,-2.0,23.0,1.0,5.0,-2.0,0.0
10.0,6.0,38.0,-3.0,3.0,2.0,21.0,3.0,13.0,-9.0,0.0
6.0,17.0,44.0,0.0,12.0,12.0,35.0,8.0,13.0,3.0,0.0
15.0,20.0,44.0,0.0,4.0,12.0,13.0,7.0,-10.0,5.0,0.0
22.0,12.0,34.0,-5.0,-6.0,11.0,-17.0,1.0,-21.0,-9.0,0.0
46.0,9.0,-31.0,-4.0,-1.0,9.0,-35.0,8.0,-17.0,2.0,0.0
47.0,-5.0,-90.0,-2.0,-4.0,7.0,-33.0,2.0,-19.0,-7.0,0.0
28.0,4.0,0.0,6.0,-16.0,8.0,-42.0,-3.0,-36.0,-16.0,0.0
0.0,19.0,40.0,2.0,-17.0,3.0,-44.0,0.0,-37.0,-4.0,0.0
-10.0,31.0,54.0,-3.0,-21.0,-2.0,-52.0,-8.0,-47.0,-6.0,0.0
-36.0,38.0,46.0,-16.0,-19.0,0.0,-49.0,-16.0,-43.0,-12.0,0.0
-52.0,41.0,32.0,-28.0,-14.0,-3.0,-32.0,-11.0,-41.0,-8.0,0.0
-35.0,37.0,31.0,-22.0,-10.0,2.0,-23.0,-7.0,-25.0,-21.0,0.0
-12.0,37.0,20.0,-9.0,0.0,0.0,-15.0,6.0,-11.0,-13.0,0.0
24.0,31.0,23.0,-1.0,0.0,-10.0,-8.0,6.0,-1.0,7.0,0.0
62.0,44.0,6.0,8.0,3.0,-8.0,1.0,-6.0,12.0,17.0,0.0
52.0,60.0,-11.0,16.0,1.0,-10.0,11.0,-4.0,31.0,20.0,0.0
15.0,64.0,37.0,35.0,5.0,5.0,13.0,0.0,46.0,-1.0,0.0
22.0,72.0,30.0,28.0,7.0,20.0,17.0,0.0,46.0,-26.0,0.0
60.0,73.0,-28.0,5.0,-5.0,19.0,10.0,5.0,31.0,-3.0,0.0
53.0,70.0,22.0,7.0,-16.0,-7.0,-14.0,-17.0,13.0,-5.0,0.0
69.0,63.0,43.0,7.0,-34.0,-15.0,-23.0,-20.0,12.0,1.0,0.0
73.0,24.0,-1.0,-20.0,-30.0,7.0,-1.0,0.0,46.0,41.0,0.0
53.0,6.0,-13.0,-23.0,-24.0,7.0,-5.0,0.0,42.0,42.0,0.0
26.0,1.0,-66.0,-12.0,-27.0,-6.0,-23.0,-20.0,9.0,13.0,0.0
1.0,-39.0,-127.0,-7.0,-24.0,-22.0,-27.0,-27.0,-6.0,3.0,0.0
15.0,-49.0,-43.0,2.0,-10.0,-12.0,-15.0,-34.0,-41.0,-42.0,0.0
31.0,-24.0,-2.0,5.0,1.0,10.0,4.0,-28.0,-50.0,-74.0,0.0
46.0,63.0,48.0,8.0,7.0,12.0,-1.0,-26.0,-55.0,-54.0,0.0
13.0,91.0,54.0,-1.0,-9.0,-18.0,-11.0,-14.0,-30.0,-7.0,0.0
-73.0,49.0,20.0,-28.0,-36.0,-18.0,-10.0,11.0,13.0,64.0,0.0
-81.0,2.0,-26.0,-52.0,-62.0,-29.0,-14.0,18.0,10.0,61.0,0.0
-123.0,-102.0,-149.0,-39.0,-41.0,-18.0,-24.0,9.0,-9.0,15.0,0.0
-181.0,-185.0,-161.0,-5.0,-8.0,19.0,-10.0,20.0,-18.0,-26.0,0.0
-156.0,-129.0,-90.0,24.0,6.0,40.0,5.0,23.0,-32.0,-51.0,0.0
-62.0,-55.0,-59.0,8.0,3.0,37.0,35.0,23.0,-10.0,-19.0,0.0
-34.0,-40.0,18.0,1.0,0.0,34.0,62.0,30.0,26.0,3.0,0.0
-74.0,-85.0,58.0,8.0,-2.0,35.0,79.0,40.0,47.0,-7.0,0.0
-102.0,-127.0,39.0,8.0,0.0,35.0,83.0,51.0,65.0,-15.0,0.0
-97.0,-104.0,34.0,15.0,5.0,18.0,68.0,33.0,52.0,-14.0,0.0
-118.0,-73.0,43.0,23.0,12.0,4.0,41.0,14.0,18.0,-56.0,0.0
-142.0,-86.0,31.0,29.0,24.0,11.0,10.0,13.0,25.0,-49.0,0.0
-107.0,-71.0,10.0,6.0,5.0,-1.0,-2.0,17.0,56.0,15.0,0.0
-101.0,-60.0,4.0,6.0,-3.0,-11.0,-12.0,17.0,45.0,27.0,0.0
-91.0,-62.0,12.0,18.0,-9.0,-6.0,-16.0,3.0,26.0,22.0,0.0
-82.0,-41.0,17.0,26.0,-6.0,5.0,-14.0,-6.0,16.0,0.0,0.0
-69.0,-15.0,-15.0,34.0,-1.0,10.0,-10.0,-21.0,16.0,0.0,0.0
-49.0,-2.0,17.0,26.0,-8.0,0.0,-16.0,-10.0,3.0,0.0,0.0
-43.0,25.0,37.0,19.0,-13.0,-14.0,-31.0,-1.0,-14.0,6.0,0.0
-34.0,16.0,44.0,25.0,3.0,-13.0,-22.0,-1.0,-12.0,11.0,0.0
-26.0,-10.0,45.0,18.0,6.0,-14.0,-5.0,12.0,-3.0,5.0,0.0
-21.0,-18.0,20.0,6.0,6.0,-4.0,1.0,24.0,1.0,6.0,0.0
-17.0,-7.0,-66.0,0.0,12.0,9.0,9.0,30.0,5.0,17.0,0.0
-7.0,-8.0,-48.0,-14.0,8.0,10.0,39.0,32.0,-4.0,26.0,0.0
2.0,0.0,-2.0,-21.0,0.0,6.0,47.0,29.0,-5.0,27.0,0.0
5.0,2.0,5.0,-25.0,-10.0,0.0,36.0,16.0,2.0,29.0,0.0
9.0,7.0,-7.0,-36.0,-31.0,-7.0,31.0,7.0,-9.0,23.0,0.0
19.0,-19.0,-41.0,-38.0,-33.0,-22.0,17.0,10.0,-15.0,17.0,0.0
19.0,-25.0,-44.0,-28.0,-34.0,-16.0,-7.0,2.0,-16.0,20.0,0.0
18.0,-13.0,-118.0,-9.0,-23.0,-10.0,-31.0,-6.0,-23.0,22.0,0.0
15.0,-14.0,-59.0,2.0,-14.0,-7.0,-22.0,-16.0,-20.0,10.0,0.0
-3.0,-1.0,29.0,20.0,-1.0,1.0,-20.0,-15.0,-8.0,-12.0,0.0
-5.0,10.0,49.0,31.0,21.0,6.0,-16.0,-20.0,8.0,-8.0,0.0
6.0,44.0,76.0,43.0,11.0,-6.0,-14.0,-35.0,20.0,4.0,0.0
10.0,49.0,87.0,51.0,10.0,-7.0,10.0,-33.0,38.0,15.0,0.0
14.0,45.0,74.0,48.0,12.0,6.0,3.0,-29.0,53.0,15.0,0.0
10.0,52.0,83.0,46.0,28.0,12.0,-5.0,-25.0,53.0,6.0,0.0
10.0,47.0,88.0,48.0,38.0,9.0,23.0,-25.0,38.0,-9.0,0.0
19.0,20.0,81.0,45.0,32.0,14.0,29.0,-12.0,33.0,-8.0,0.0
17.0,34.0,56.0,43.0,25.0,13.0,28.0,-7.0,26.0,-7.0,0.0
28.0,53.0,-10.0,43.0,28.0,22.0,23.0,2.0,12.0,-22.0,0.0
48.0,25.0,6.0,31.0,19.0,22.0,-8.0,-6.0,-6.0,-19.0,0.0
49.0,25.0,-42.0,12.0,16.0,5.0,-33.0,-25.0,-16.0,-14.0,0.0
39.0,25.0,-66.0,12.0,12.0,6.0,-35.0,-15.0,-9.0,3.0,0.0
29.0,9.0,9.0,11.0,5.0,9.0,-30.0,-2.0,-13.0,6.0,0.0
35.0,13.0,14.0,6.0,5.0,2.0,-35.0,-12.0,-21.0,0.0,0.0
19.0,30.0,-24.0,8.0,19.0,-6.0,-35.0,-24.0,-30.0,-2.0,0.0
13.0,3.0,-9.0,11.0,16.0,4.0,-33.0,-26.0,-52.0,2.0,0.0
2.0,-5.0,-3.0,13.0,11.0,3.0,-36.0,-26.0,-50.0,-19.0,0.0
14.0,3.0,-6.0,11.0,11.0,-4.0,-21.0,-11.0,-26.0,-1.0,0.0
22.0,3.0,19.0,5.0,0.0,-12.0,-12.0,12.0,-30.0,7.0,0.0
18.0,11.0,37.0,7.0,-7.0,-17.0,0.0,8.0,-33.0,-4.0,0.0
23.0,13.0,36.0,4.0,-7.0,-11.0,-8.0,5.0,-27.0,11.0,0.0
26.0,21.0,22.0,7.0,-7.0,-10.0,3.0,9.0,-9.0,14.0,0.0
29.0,37.0,13.0,9.0,-8.0,-16.0,39.0,12.0,0.0,6.0,0.0
27.0,34.0,20.0,11.0,-9.0,-10.0,60.0,19.0,10.0,10.0,0.0
26.0,12.0,5.0,2.0,-11.0,-1.0,46.0,24.0,36.0,4.0,0.0
32.0,16.0,-12.0,-6.0,-2.0,0.0,15.0,21.0,37.0,0.0,0.0
28.0,26.0,-2.0,-7.0,-6.0,-2.0,19.0,23.0,46.0,10.0,0.0
29.0,26.0,0.0,-3.0,-6.0,8.0,18.0,14.0,44.0,11.0,0.0
29.0,29.0,0.0,1.0,-6.0,12.0,13.0,10.0,29.0,15.0,0.0
20.0,28.0,1.0,9.0,0.0,7.0,1.0,15.0,13.0,3.0,0.0
22.0,43.0,-4.0,16.0,0.0,10.0,-4.0,-3.0,3.0,-8.0,0.0
22.0,58.0,-41.0,5.0,0.0,-1.0,5.0,-23.0,-10.0,-11.0,0.0
16.0,44.0,-110.0,-2.0,-3.0,2.0,1.0,-15.0,-14.0,-3.0,0.0
21.0,16.0,-30.0,-5.0,-5.0,2.0,-3.0,-5.0,-8.0,-14.0,0.0
19.0,-7.0,2.0,-10.0,-9.0,-4.0,-5.0,3.0,2.0,4.0,0.0
-17.0,-28.0,2.0,-13.0,1.0,-5.0,0.0,11.0,5.0,21.0,0.0
-54.0,-13.0,34.0,10.0,8.0,-5.0,-4.0,3.0,-22.0,-6.0,0.0
-69.0,9.0,39.0,26.0,7.0,-3.0,-10.0,-1.0,-39.0,-16.0,0.0
-41.0,-4.0,-42.0,16.0,-6.0,0.0,-3.0,6.0,-26.0,4.0,0.0
-16.0,-21.0,-16.0,5.0,-10.0,0.0,4.0,13.0,-26.0,18.0,0.0
-13.0,0.0,33.0,0.0,-4.0,-9.0,19.0,11.0,-41.0,21.0,0.0
-13.0,18.0,34.0,1.0,9.0,-11.0,6.0,7.0,-49.0,19.0,0.0
-6.0,-10.0,33.0,-6.0,5.0,-23.0,-16.0,1.0,-50.0,5.0,0.0
-26.0,-24.0,11.0,-13.0,0.0,-19.0,-10.0,9.0,-36.0,-3.0,0.0
-41.0,-14.0,12.0,-9.0,-1.0,-10.0,4.0,12.0,-26.0,0.0,0.0
-31.0,-25.0,17.0,-10.0,-4.0,0.0,34.0,-2.0,-20.0,-11.0,0.0
-21.0,-4.0,10.0,-1.0,-4.0,4.0,39.0,-2.0,-3.0,-11.0,0.0
-19.0,-3.0,3.0,-13.0,6.0,4.0,21.0,9.0,13.0,-1.0,0.0
-16.0,-19.0,-3.0,-15.0,15.0,9.0,33.0,5.0,11.0,-14.0,0.0
