channel0,channel1,channel2,channel3,channel4,channel5,channel6,channel7,channel8,channel9,true_locs
30.0,23.0,333.0,11.0,23.0,11.0,-27.0,15.0,20.0,-4.0,0.0
18.0,28.0,254.0,23.0,18.0,20.0,-11.0,8.0,7.0,-13.0,0.0
11.0,31.0,192.0,14.0,27.0,30.0,7.0,17.0,1.0,-27.0,0.0
9.0,21.0,118.0,2.0,21.0,25.0,5.0,18.0,0.0,-31.0,0.0
21.0,27.0,20.0,7.0,13.0,11.0,1.0,8.0,-3.0,-9.0,0.0
17.0,46.0,-65.0,1.0,21.0,7.0,-2.0,9.0,-10.0,2.0,0.0
-4.0,42.0,-155.0,3.0,22.0,0.0,-2.0,6.0,-3.0,4.0,0.0
-14.0,38.0,-180.0,5.0,11.0,-6.0,-8.0,-1.0,20.0,-1.0,0.0
-15.0,33.0,-168.0,5.0,5.0,-12.0,-8.0,16.0,35.0,1.0,0.0
-9.0,18.0,-115.0,11.0,0.0,-6.0,3.0,24.0,37.0,-4.0,0.0
-20.0,0.0,-51.0,10.0,7.0,2.0,8.0,22.0,31.0,-29.0,0.0
-37.0,-6.0,29.0,6.0,12.0,1.0,-4.0,9.0,47.0,-20.0,0.0
-42.0,0.0,107.0,15.0,11.0,5.0,-20.0,14.0,42.0,1.0,0.0
-9.0,4.0,203.0,20.0,15.0,4.0,-28.0,22.0,26.0,19.0,0.0
27.0,9.0,317.0,23.0,5.0,8.0,-23.0,32.0,21.0,41.0,0.0
28.0,2.0,387.0,26.0,-6.0,12.0,-16.0,27.0,23.0,48.0,0.0
32.0,11.0,405.0,21.0,-17.0,2.0,-14.0,22.0,30.0,45.0,0.0
36.0,21.0,400.0,22.0,-16.0,0.0,-4.0,25.0,42.0,53.0,0.0
28.0,45.0,325.0,23.0,-13.0,5.0,-2.0,10.0,46.0,64.0,0.0
30.0,33.0,186.0,24.0,-14.0,4.0,2.0,1.0,36.0,60.0,0.0
36.0,27.0,82.0,17.0,-13.0,12.0,18.0,3.0,39.0,74.0,0.0
43.0,25.0,-65.0,12.0,-16.0,21.0,22.0,6.0,41.0,72.0,0.0
37.0,19.0,-135.0,10.0,-15.0,23.0,3.0,3.0,23.0,51.0,0.0
27.0,21.0,-131.0,12.0,-12.0,25.0,4.0,8.0,11.0,32.0,0.0
24.0,3.0,-126.0,19.0,-15.0,29.0,21.0,5.0,20.0,24.0,0.0
31.0,0.0,-100.0,34.0,-7.0,18.0,34.0,9.0,20.0,17.0,0.0
8.0,3.0,-63.0,37.0,-4.0,22.0,46.0,11.0,7.0,15.0,0.0
-2.0,14.0,16.0,46.0,7.0,23.0,27.0,0.0,-1.0,16.0,0.0
13.0,14.0,133.0,57.0,16.0,37.0,16.0,-6.0,-5.0,13.0,0.0
20.0,22.0,235.0,53.0,19.0,24.0,7.0,-9.0,-5.0,10.0,0.0
23.0,21.0,288.0,33.0,20.0,7.0,-7.0,-10.0,-10.0,-5.0,0.0
10.0,22.0,335.0,17.0,31.0,17.0,-12.0,-1.0,-16.0,-12.0,0.0
13.0,18.0,394.0,22.0,32.0,21.0,-3.0,0.0,-7.0,-9.0,0.0
8.0,8.0,386.0,7.0,16.0,26.0,14.0,8.0,-3.0,-1.0,0.0
-17.0,0.0,373.0,-17.0,10.0,15.0,40.0,7.0,7.0,-3.0,0.0
-17.0,7.0,284.0,-5.0,16.0,12.0,55.0,11.0,5.0,8.0,0.0
6.0,5.0,163.0,15.0,22.0,16.0,55.0,10.0,3.0,17.0,0.0
13.0,-1.0,52.0,21.0,22.0,25.0,32.0,8.0,-4.0,27.0,0.0
9.0,-10.0,-17.0,-8.0,19.0,37.0,37.0,6.0,-9.0,26.0,0.0
4.0,-4.0,-91.0,0.0,22.0,29.0,46.0,18.0,-6.0,23.0,0.0
14.0,7.0,-105.0,13.0,34.0,27.0,53.0,26.0,12.0,25.0,0.0
15.0,15.0,-113.0,17.0,42.0,31.0,84.0,26.0,31.0,18.0,0.0
-7.0,14.0,-147.0,15.0,35.0,24.0,80.0,26.0,31.0,13.0,0.0
-2.0,13.0,-83.0,18.0,41.0,24.0,56.0,17.0,3.0,0.0,0.0
-9.0,9.0,53.0,13.0,36.0,13.0,48.0,7.0,-9.0,-5.0,0.0
2.0,13.0,139.0,5.0,31.0,14.0,34.0,12.0,2.0,4.0,0.0
8.0,4.0,201.0,2.0,23.0,22.0,26.0,6.0,13.0,19.0,0.0
0.0,0.0,239.0,22.0,12.0,14.0,26.0,7.0,20.0,25.0,0.0
0.0,9.0,349.0,26.0,0.0,2.0,26.0,14.0,24.0,34.0,0.0
5.0,16.0,409.0,0.0,-17.0,-4.0,30.0,23.0,32.0,53.0,0.0
19.0,17.0,394.0,3.0,-25.0,0.0,38.0,18.0,36.0,53.0,0.0
12.0,20.0,280.0,24.0,-14.0,5.0,37.0,22.0,24.0,40.0,0.0
5.0,31.0,149.0,24.0,-4.0,4.0,37.0,19.0,4.0,21.0,0.0
20.0,40.0,85.0,9.0,4.0,12.0,37.0,31.0,-9.0,11.0,0.0
48.0,63.0,50.0,-2.0,0.0,14.0,29.0,35.0,-21.0,9.0,0.0
48.0,82.0,-27.0,-14.0,-3.0,4.0,26.0,26.0,-25.0,13.0,0.0
41.0,90.0,-101.0,-26.0,-20.0,2.0,32.0,17.0,-19.0,16.0,0.0
39.0,94.0,-149.0,-31.0,-23.0,-2.0,26.0,6.0,-13.0,24.0,0.0
30.0,64.0,-160.0,-11.0,-14.0,-6.0,23.0,14.0,-30.0,10.0,0.0
22.0,39.0,-89.0,-4.0,-7.0,7.0,33.0,17.0,-23.0,0.0,0.0
30.0,34.0,2.0,-9.0,-2.0,21.0,33.0,13.0,-28.0,8.0,0.0
14.0,9.0,81.0,-12.0,3.0,21.0,24.0,11.0,-35.0,14.0,0.0
-2.0,-22.0,167.0,-12.0,8.0,17.0,20.0,18.0,-36.0,14.0,0.0
-29.0,-36.0,265.0,-6.0,-10.0,5.0,48.0,11.0,-30.0,1.0,0.0
-15.0,-23.0,361.0,-9.0,-18.0,-12.0,68.0,11.0,-20.0,3.0,0.0
-1.0,-12.0,404.0,9.0,-8.0,-1.0,68.0,23.0,-19.0,13.0,0.0
0.0,-20.0,414.0,16.0,5.0,2.0,66.0,22.0,-26.0,7.0,0.0
-9.0,-40.0,404.0,26.0,12.0,5.0,42.0,18.0,-22.0,-4.0,0.0
-18.0,-51.0,310.0,49.0,10.0,10.0,25.0,18.0,-12.0,-5.0,0.0
-10.0,-41.0,172.0,54.0,0.0,7.0,9.0,24.0,0.0,-7.0,0.0
-13.0,-34.0,40.0,34.0,-7.0,-1.0,0.0,19.0,13.0,-19.0,0.0
-12.0,-18.0,-59.0,-5.0,0.0,-2.0,13.0,19.0,33.0,-15.0,0.0
11.0,9.0,-137.0,-24.0,5.0,14.0,19.0,15.0,39.0,-9.0,0.0
36.0,20.0,-189.0,-21.0,4.0,20.0,9.0,18.0,31.0,-13.0,0.0
47.0,33.0,-195.0,-16.0,5.0,17.0,3.0,22.0,-6.0,-8.0,0.0
49.0,38.0,-169.0,-2.0,4.0,22.0,5.0,13.0,-26.0,-5.0,0.0
49.0,46.0,-114.0,16.0,12.0,19.0,-6.0,0.0,-29.0,-5.0,0.0
39.0,42.0,-47.0,4.0,17.0,16.0,0.0,-4.0,-25.0,5.0,0.0
38.0,26.0,45.0,0.0,22.0,22.0,-9.0,2.0,-22.0,-4.0,0.0
33.0,-4.0,135.0,9.0,19.0,38.0,-6.0,-3.0,-27.0,-21.0,0.0
27.0,-11.0,205.0,8.0,17.0,45.0,-10.0,-6.0,-36.0,-23.0,0.0
17.0,-14.0,292.0,0.0,19.0,52.0,6.0,9.0,-24.0,-19.0,0.0
-4.0,-25.0,331.0,5.0,21.0,52.0,29.0,14.0,-19.0,-16.0,0.0
-13.0,-32.0,337.0,-5.0,26.0,57.0,34.0,18.0,-21.0,-31.0,0.0
-16.0,-18.0,315.0,-17.0,19.0,36.0,27.0,11.0,-20.0,-24.0,0.0
-11.0,-4.0,219.0,-7.0,11.0,29.0,1.0,10.0,-6.0,-11.0,0.0
1.0,1.0,126.0,-10.0,15.0,29.0,-5.0,13.0,8.0,-17.0,0.0
-3.0,-7.0,24.0,2.0,24.0,28.0,-6.0,5.0,7.0,-26.0,0.0
-14.0,-6.0,-92.0,23.0,27.0,31.0,-5.0,7.0,14.0,-28.0,0.0
-6.0,-8.0,-174.0,15.0,24.0,25.0,-6.0,10.0,11.0,-29.0,0.0
-3.0,-16.0,-202.0,8.0,21.0,19.0,-3.0,17.0,9.0,-24.0,0.0
-7.0,-8.0,-193.0,19.0,22.0,22.0,-8.0,22.0,-3.0,-24.0,0.0
-19.0,-5.0,-154.0,31.0,26.0,23.0,-3.0,13.0,-26.0,-39.0,0.0
-31.0,-10.0,-96.0,24.0,27.0,21.0,-10.0,11.0,-35.0,-63.0,0.0
-39.0,-15.0,-5.0,18.0,33.0,14.0,-16.0,11.0,-38.0,-71.0,0.0
-22.0,-18.0,98.0,23.0,37.0,12.0,-20.0,6.0,-35.0,-45.0,0.0
-8.0,-15.0,193.0,21.0,28.0,6.0,-17.0,7.0,-24.0,-7.0,0.0
-1.0,-1.0,281.0,18.0,24.0,5.0,-14.0,14.0,17.0,-12.0,0.0
3.0,-7.0,332.0,7.0,15.0,4.0,-15.0,7.0,41.0,-15.0,0.0
-12.0,-10.0,350.0,3.0,16.0,1.0,-17.0,12.0,48.0,-21.0,0.0
-11.0,0.0,342.0,5.0,11.0,2.0,-3.0,11.0,52.0,-26.0,1.0
1.0,13.0,286.0,2.0,12.0,-2.0,1.0,9.0,53.0,-3.0,1.0
9.0,24.0,193.0,1.0,19.0,-6.0,-20.0,15.0,43.0,26.0,1.0
25.0,33.0,121.0,13.0,21.0,1.0,-32.0,19.0,23.0,44.0,1.0
26.0,28.0,49.0,16.0,12.0,5.0,-48.0,2.0,10.0,48.0,1.0
39.0,27.0,-41.0,-1.0,6.0,1.0,-41.0,-8.0,2.0,45.0,1.0
39.0,25.0,-122.0,-10.0,3.0,-1.0,-24.0,-5.0,-4.0,52.0,1.0
35.0,11.0,-153.0,-6.0,4.0,-7.0,-12.0,8.0,-6.0,54.0,1.0
36.0,18.0,-139.0,1.0,6.0,-12.0,0.0,20.0,4.0,55.0,1.0
31.0,34.0,-110.0,0.0,13.0,-18.0,2.0,21.0,24.0,74.0,1.0
32.0,38.0,-37.0,12.0,21.0,-28.0,2.0,14.0,20.0,81.0,1.0
35.0,33.0,50.0,41.0,23.0,-34.0,-3.0,12.0,10.0,71.0,1.0
41.0,20.0,145.0,61.0,20.0,-25.0,-15.0,12.0,11.0,60.0,1.0
34.0,24.0,235.0,56.0,17.0,-14.0,-20.0,11.0,24.0,57.0,1.0
26.0,29.0,295.0,33.0,7.0,-14.0,-36.0,6.0,27.0,52.0,1.0
26.0,30.0,323.0,18.0,0.0,-13.0,-61.0,11.0,42.0,42.0,1.0
36.0,23.0,328.0,8.0,2.0,-11.0,-66.0,7.0,53.0,42.0,1.0
46.0,40.0,273.0,-14.0,-9.0,-13.0,-49.0,17.0,61.0,49.0,1.0
50.0,73.0,159.0,-33.0,-19.0,-13.0,-37.0,17.0,77.0,49.0,0.0
53.0,68.0,72.0,-18.0,-5.0,-10.0,-32.0,5.0,51.0,31.0,0.0
40.0,41.0,-22.0,7.0,7.0,-7.0,-12.0,-8.0,8.0,15.0,0.0
30.0,33.0,-111.0,27.0,12.0,1.0,-18.0,-15.0,-13.0,3.0,0.0
19.0,37.0,-197.0,44.0,23.0,4.0,-37.0,-9.0,-18.0,-4.0,0.0
25.0,32.0,-242.0,50.0,19.0,5.0,-43.0,-6.0,-43.0,-8.0,0.0
17.0,21.0,-259.0,34.0,6.0,-4.0,-51.0,-12.0,-54.0,-9.0,0.0
-13.0,-1.0,-244.0,29.0,2.0,-12.0,-52.0,-11.0,-57.0,-31.0,0.0
-23.0,-21.0,-180.0,8.0,-9.0,-11.0,-52.0,-7.0,-59.0,-38.0,0.0
-34.0,-30.0,-94.0,-17.0,-18.0,-6.0,-55.0,0.0,-49.0,-36.0,0.0
-42.0,-30.0,-22.0,-26.0,-26.0,1.0,-46.0,10.0,-41.0,-37.0,0.0
-58.0,-42.0,37.0,-12.0,-19.0,5.0,-37.0,17.0,-3.0,-45.0,0.0
-60.0,-42.0,119.0,11.0,-13.0,7.0,-34.0,9.0,25.0,-43.0,0.0
-42.0,-24.0,205.0,24.0,-13.0,9.0,-23.0,8.0,31.0,-28.0,0.0
-17.0,-10.0,245.0,31.0,-13.0,6.0,-12.0,6.0,32.0,-15.0,0.0
-10.0,-5.0,240.0,41.0,-1.0,2.0,10.0,3.0,36.0,-14.0,0.0
-5.0,3.0,201.0,23.0,3.0,13.0,24.0,20.0,31.0,-8.0,0.0
-3.0,5.0,109.0,-2.0,0.0,24.0,21.0,25.0,20.0,-9.0,0.0
-6.0,14.0,1.0,-15.0,6.0,26.0,17.0,31.0,3.0,-24.0,0.0
-6.0,21.0,-122.0,-10.0,18.0,27.0,1.0,19.0,-7.0,-37.0,0.0
2.0,18.0,-236.0,8.0,20.0,31.0,14.0,18.0,-5.0,-41.0,0.0
4.0,-11.0,-266.0,17.0,23.0,22.0,-3.0,23.0,5.0,-25.0,0.0
-5.0,-30.0,-273.0,28.0,26.0,17.0,-10.0,19.0,6.0,-22.0,0.0
-2.0,-23.0,-260.0,36.0,32.0,13.0,-27.0,15.0,-16.0,-20.0,0.0
-4.0,-21.0,-237.0,31.0,26.0,13.0,-40.0,13.0,-29.0,-16.0,0.0
-8.0,-23.0,-175.0,32.0,7.0,9.0,-33.0,14.0,-26.0,-12.0,0.0
5.0,-12.0,-78.0,29.0,-12.0,1.0,-36.0,18.0,0.0,8.0,0.0
25.0,-8.0,17.0,15.0,-18.0,-1.0,-46.0,5.0,16.0,33.0,0.0
21.0,3.0,60.0,6.0,-19.0,-14.0,-39.0,4.0,25.0,29.0,0.0
7.0,-6.0,151.0,-3.0,-14.0,-14.0,-24.0,1.0,19.0,10.0,0.0
8.0,-6.0,230.0,-21.0,-18.0,-14.0,-19.0,-2.0,18.0,11.0,0.0
9.0,-8.0,237.0,-32.0,-14.0,-17.0,-20.0,-11.0,38.0,25.0,0.0
4.0,-10.0,254.0,-36.0,-9.0,-18.0,-21.0,-6.0,53.0,40.0,0.0
17.0,-24.0,205.0,-38.0,-1.0,-13.0,-24.0,1.0,97.0,53.0,0.0
16.0,-35.0,94.0,-15.0,3.0,-16.0,-20.0,18.0,133.0,66.0,0.0
30.0,-16.0,-10.0,0.0,7.0,-13.0,-45.0,26.0,145.0,80.0,0.0
45.0,-8.0,-98.0,14.0,7.0,0.0,-59.0,19.0,142.0,81.0,0.0
37.0,6.0,-170.0,30.0,3.0,7.0,-52.0,16.0,107.0,57.0,0.0
49.0,13.0,-220.0,39.0,6.0,11.0,-48.0,3.0,60.0,35.0,0.0
49.0,32.0,-242.0,37.0,12.0,18.0,-54.0,-6.0,18.0,16.0,0.0
48.0,33.0,-263.0,16.0,9.0,12.0,-46.0,-18.0,-41.0,9.0,0.0
56.0,21.0,-200.0,2.0,7.0,15.0,-43.0,-19.0,-74.0,3.0,0.0
54.0,15.0,-85.0,-12.0,8.0,26.0,-44.0,-8.0,-51.0,3.0,0.0
56.0,9.0,18.0,-14.0,15.0,29.0,-37.0,-5.0,-23.0,19.0,0.0
51.0,5.0,100.0,-3.0,11.0,13.0,-39.0,-8.0,0.0,28.0,0.0
41.0,3.0,171.0,-5.0,4.0,9.0,-36.0,-6.0,16.0,37.0,0.0
39.0,10.0,227.0,-9.0,-7.0,6.0,-28.0,-8.0,10.0,42.0,0.0
35.0,11.0,285.0,9.0,-5.0,0.0,-29.0,-13.0,2.0,40.0,0.0
34.0,11.0,304.0,16.0,4.0,1.0,-30.0,-11.0,4.0,27.0,0.0
31.0,6.0,231.0,16.0,2.0,7.0,-7.0,-17.0,0.0,18.0,0.0
21.0,2.0,145.0,11.0,-5.0,-3.0,2.0,-14.0,-9.0,4.0,0.0
31.0,3.0,40.0,8.0,3.0,-1.0,7.0,-15.0,-24.0,-7.0,0.0
25.0,4.0,-67.0,5.0,9.0,9.0,8.0,-17.0,-17.0,-20.0,0.0
2.0,8.0,-138.0,12.0,19.0,6.0,11.0,-3.0,-30.0,-18.0,0.0
-10.0,9.0,-209.0,15.0,32.0,4.0,-3.0,7.0,-35.0,-27.0,0.0
17.0,11.0,-248.0,10.0,46.0,-9.0,-23.0,1.0,-32.0,-7.0,0.0
35.0,9.0,-251.0,21.0,53.0,-2.0,-35.0,-3.0,-28.0,28.0,0.0
30.0,19.0,-213.0,42.0,64.0,12.0,-49.0,-5.0,-30.0,11.0,0.0
8.0,17.0,-145.0,46.0,65.0,23.0,-47.0,-6.0,-27.0,-29.0,0.0
-12.0,0.0,-65.0,57.0,60.0,24.0,-35.0,-9.0,-19.0,-52.0,0.0
-28.0,-11.0,11.0,68.0,62.0,17.0,-33.0,-5.0,-30.0,-66.0,0.0
-32.0,-17.0,109.0,51.0,68.0,33.0,-34.0,-8.0,-36.0,-63.0,0.0
-41.0,-14.0,190.0,36.0,70.0,36.0,-29.0,-19.0,-28.0,-49.0,0.0
-49.0,-17.0,244.0,34.0,49.0,22.0,-28.0,-22.0,-28.0,-25.0,0.0
-50.0,-21.0,252.0,21.0,22.0,8.0,-17.0,-18.0,-19.0,-14.0,0.0
-45.0,-7.0,189.0,-8.0,-17.0,11.0,21.0,1.0,6.0,1.0,0.0
-31.0,6.0,73.0,-40.0,-42.0,2.0,34.0,7.0,31.0,26.0,0.0
-26.0,-12.0,-10.0,-50.0,-35.0,-4.0,-5.0,6.0,25.0,33.0,0.0
-23.0,-19.0,-87.0,-40.0,-23.0,1.0,-14.0,-2.0,24.0,20.0,0.0
-14.0,-1.0,-172.0,-40.0,-9.0,5.0,-1.0,-2.0,25.0,7.0,0.0
-7.0,17.0,-226.0,-29.0,16.0,7.0,3.0,7.0,18.0,4.0,0.0
17.0,26.0,-277.0,5.0,27.0,9.0,22.0,10.0,15.0,6.0,0.0
23.0,42.0,-301.0,23.0,27.0,14.0,36.0,5.0,17.0,1.0,0.0
25.0,45.0,-295.0,29.0,24.0,14.0,34.0,8.0,12.0,2.0,0.0
34.0,49.0,-279.0,31.0,28.0,2.0,9.0,3.0,4.0,6.0,0.0
27.0,28.0,-165.0,38.0,48.0,7.0,21.0,3.0,8.0,4.0,0.0
29.0,21.0,-53.0,25.0,43.0,9.0,28.0,13.0,23.0,11.0,0.0
26.0,16.0,30.0,0.0,23.0,20.0,1.0,17.0,43.0,35.0,0.0
19.0,11.0,90.0,-11.0,7.0,22.0,-4.0,24.0,54.0,40.0,0.0
23.0,17.0,172.0,-32.0,-17.0,9.0,-16.0,29.0,47.0,40.0,0.0
20.0,24.0,247.0,-35.0,-20.0,-5.0,-28.0,23.0,16.0,42.0,0.0
24.0,20.0,259.0,-52.0,-9.0,0.0,-34.0,6.0,0.0,45.0,0.0
46.0,38.0,232.0,-65.0,-9.0,11.0,-46.0,-13.0,3.0,65.0,0.0
77.0,56.0,143.0,-39.0,-5.0,6.0,-46.0,-20.0,32.0,87.0,0.0
71.0,64.0,13.0,-11.0,10.0,13.0,-39.0,-7.0,46.0,85.0,0.0
51.0,51.0,-90.0,10.0,4.0,21.0,-28.0,-14.0,41.0,58.0,0.0
41.0,60.0,-173.0,45.0,6.0,21.0,-30.0,-14.0,41.0,38.0,0.0
27.0,54.0,-238.0,74.0,-1.0,19.0,-27.0,-12.0,35.0,19.0,0.0
-6.0,20.0,-297.0,67.0,-8.0,12.0,-36.0,-17.0,29.0,7.0,0.0
-34.0,-5.0,-318.0,26.0,6.0,15.0,-25.0,-18.0,1.0,-18.0,0.0
-41.0,-10.0,-303.0,9.0,13.0,27.0,-21.0,-12.0,-7.0,-38.0,0.0
-53.0,-17.0,-238.0,22.0,18.0,31.0,-24.0,-11.0,-7.0,-43.0,0.0
-35.0,-8.0,-146.0,30.0,22.0,28.0,-21.0,-10.0,4.0,-12.0,0.0
-30.0,3.0,-58.0,26.0,21.0,21.0,-30.0,-12.0,5.0,-11.0,0.0
-39.0,16.0,28.0,30.0,16.0,25.0,-27.0,-20.0,-19.0,-28.0,0.0
-48.0,17.0,90.0,34.0,21.0,25.0,7.0,-20.0,-29.0,-33.0,0.0
-48.0,9.0,95.0,28.0,19.0,27.0,16.0,-14.0,-25.0,-28.0,0.0
-37.0,15.0,146.0,30.0,17.0,13.0,-14.0,-17.0,-37.0,-17.0,0.0
-32.0,17.0,191.0,41.0,20.0,3.0,-37.0,-17.0,-43.0,-8.0,0.0
-22.0,21.0,136.0,22.0,19.0,-5.0,-43.0,-7.0,-27.0,5.0,0.0
-12.0,18.0,16.0,-9.0,-2.0,-7.0,-28.0,-4.0,-11.0,-1.0,0.0
-2.0,4.0,-90.0,-25.0,-25.0,-18.0,-6.0,-5.0,9.0,-5.0,0.0
-6.0,-8.0,-162.0,-44.0,-31.0,-8.0,10.0,0.0,35.0,1.0,0.0
-7.0,1.0,-215.0,-65.0,-24.0,-8.0,24.0,13.0,55.0,1.0,0.0
1.0,4.0,-283.0,-54.0,-15.0,-5.0,30.0,19.0,52.0,12.0,0.0
25.0,9.0,-318.0,-29.0,-13.0,3.0,10.0,-1.0,46.0,38.0,0.0
26.0,16.0,-301.0,-17.0,-13.0,8.0,-30.0,-7.0,45.0,48.0,0.0
19.0,0.0,-329.0,-12.0,-10.0,12.0,-31.0,0.0,34.0,33.0,0.0
23.0,-1.0,-257.0,-6.0,-14.0,4.0,-26.0,8.0,12.0,18.0,0.0
-1.0,-6.0,-107.0,2.0,-5.0,-3.0,-28.0,4.0,-19.0,3.0,0.0
-16.0,1.0,-12.0,6.0,0.0,-2.0,-9.0,4.0,-33.0,0.0,0.0
3.0,6.0,54.0,7.0,-3.0,-7.0,-7.0,-1.0,-39.0,11.0,0.0
18.0,5.0,123.0,6.0,0.0,-4.0,-5.0,-1.0,-45.0,12.0,0.0
21.0,12.0,209.0,5.0,3.0,0.0,0.0,5.0,-29.0,13.0,0.0
22.0,21.0,249.0,3.0,6.0,0.0,-3.0,8.0,-9.0,16.0,0.0
0.0,10.0,218.0,-1.0,4.0,-10.0,-3.0,19.0,-3.0,6.0,0.0
-19.0,-3.0,144.0,1.0,-1.0,-13.0,-21.0,19.0,0.0,-12.0,0.0
-8.0,-9.0,26.0,5.0,-6.0,-13.0,-15.0,6.0,11.0,-18.0,0.0
-3.0,3.0,-75.0,1.0,-1.0,-3.0,-22.0,9.0,18.0,-19.0,0.0
-15.0,1.0,-163.0,4.0,-1.0,-5.0,-10.0,3.0,8.0,-22.0,0.0
-23.0,-3.0,-259.0,7.0,-1.0,-7.0,4.0,-7.0,0.0,-24.0,0.0
-11.0,-3.0,-316.0,7.0,-10.0,0.0,-8.0,-5.0,-5.0,-28.0,0.0
-5.0,0.0,-298.0,3.0,-9.0,-7.0,-14.0,4.0,0.0,-19.0,0.0
-6.0,9.0,-294.0,0.0,-6.0,-9.0,-11.0,-4.0,2.0,-17.0,0.0
0.0,13.0,-287.0,-4.0,1.0,-9.0,-5.0,-3.0,-7.0,-22.0,0.0
12.0,22.0,-189.0,5.0,0.0,-6.0,-15.0,7.0,-17.0,-14.0,0.0
11.0,22.0,-64.0,3.0,2.0,-5.0,-20.0,16.0,-27.0,-14.0,0.0
13.0,35.0,36.0,10.0,2.0,-9.0,-4.0,7.0,-27.0,0.0,0.0
29.0,41.0,141.0,8.0,3.0,-13.0,6.0,5.0,-39.0,16.0,0.0
57.0,34.0,211.0,1.0,-2.0,4.0,8.0,9.0,-45.0,30.0,0.0
58.0,13.0,252.0,5.0,-4.0,11.0,28.0,3.0,-40.0,24.0,0.0
40.0,-7.0,243.0,16.0,0.0,14.0,29.0,-2.0,-35.0,17.0,0.0
26.0,2.0,228.0,22.0,15.0,17.0,39.0,5.0,-3.0,7.0,0.0
14.0,2.0,146.0,26.0,19.0,15.0,42.0,17.0,3.0,-4.0,0.0
-5.0,-20.0,27.0,13.0,16.0,18.0,33.0,22.0,-11.0,-7.0,0.0
-14.0,-28.0,-124.0,0.0,10.0,21.0,20.0,25.0,-14.0,-14.0,0.0
-28.0,-39.0,-188.0,0.0,5.0,16.0,10.0,27.0,-8.0,-4.0,0.0
-27.0,-39.0,-250.0,12.0,12.0,8.0,6.0,18.0,-12.0,3.0,0.0
-20.0,-33.0,-294.0,0.0,11.0,1.0,32.0,12.0,-19.0,0.0,0.0
-28.0,-31.0,-287.0,-4.0,9.0,7.0,45.0,15.0,-29.0,-6.0,0.0
-25.0,-24.0,-275.0,0.0,4.0,11.0,34.0,17.0,-44.0,-25.0,0.0
-32.0,-19.0,-231.0,15.0,10.0,16.0,27.0,18.0,-43.0,-25.0,0.0
-26.0,-29.0,-202.0,14.0,12.0,19.0,7.0,14.0,-35.0,6.0,0.0
-6.0,-19.0,-119.0,2.0,-2.0,4.0,-16.0,8.0,-12.0,34.0,0.0
-1.0,-13.0,37.0,-18.0,-21.0,0.0,-27.0,13.0,20.0,42.0,0.0
4.0,-17.0,106.0,-45.0,-27.0,-3.0,-23.0,21.0,47.0,49.0,0.0
3.0,-25.0,201.0,-56.0,-29.0,-7.0,-24.0,17.0,67.0,35.0,0.0
-4.0,-15.0,271.0,-25.0,-26.0,2.0,-19.0,23.0,71.0,33.0,0.0
-3.0,0.0,257.0,-6.0,-14.0,11.0,-4.0,26.0,77.0,24.0,0.0
9.0,0.0,193.0,4.0,1.0,4.0,-23.0,27.0,65.0,20.0,0.0
16.0,9.0,86.0,12.0,20.0,12.0,-27.0,32.0,29.0,14.0,0.0
14.0,16.0,-4.0,15.0,30.0,14.0,-21.0,22.0,-10.0,5.0,0.0
19.0,28.0,-104.0,3.0,20.0,18.0,-6.0,22.0,-36.0,-2.0,0.0
9.0,25.0,-185.0,0.0,0.0,9.0,16.0,36.0,-37.0,4.0,0.0
-3.0,18.0,-244.0,-11.0,-10.0,24.0,26.0,46.0,-19.0,11.0,0.0
-3.0,15.0,-301.0,-16.0,-8.0,30.0,30.0,51.0,-8.0,-2.0,0.0
-13.0,33.0,-263.0,-3.0,1.0,26.0,16.0,47.0,-16.0,-13.0,0.0
-28.0,28.0,-210.0,8.0,13.0,41.0,9.0,42.0,-25.0,-14.0,0.0
-33.0,31.0,-153.0,11.0,19.0,41.0,-2.0,42.0,-18.0,-16.0,0.0
-29.0,28.0,-51.0,22.0,18.0,30.0,-38.0,56.0,-13.0,-7.0,0.0
-9.0,31.0,47.0,18.0,10.0,18.0,-43.0,56.0,0.0,-4.0,0.0
0.0,24.0,138.0,22.0,0.0,26.0,-42.0,53.0,19.0,7.0,0.0
-10.0,23.0,214.0,28.0,-2.0,20.0,-38.0,50.0,33.0,2.0,0.0
-9.0,18.0,258.0,26.0,5.0,12.0,-28.0,49.0,33.0,-10.0,0.0
-2.0,8.0,241.0,31.0,7.0,9.0,-35.0,43.0,17.0,-4.0,0.0
-16.0,9.0,145.0,20.0,0.0,9.0,-25.0,50.0,13.0,-13.0,0.0
-28.0,21.0,58.0,16.0,5.0,12.0,-31.0,49.0,3.0,-18.0,0.0
-12.0,22.0,-42.0,11.0,3.0,13.0,-39.0,24.0,0.0,-8.0,0.0
1.0,10.0,-161.0,16.0,-13.0,8.0,-44.0,13.0,19.0,-2.0,0.0
9.0,9.0,-212.0,28.0,-1.0,2.0,-49.0,15.0,42.0,8.0,0.0
28.0,36.0,-270.0,24.0,13.0,0.0,-51.0,20.0,54.0,38.0,0.0
35.0,41.0,-312.0,18.0,21.0,1.0,-50.0,20.0,61.0,65.0,0.0
36.0,38.0,-311.0,11.0,23.0,0.0,-51.0,20.0,65.0,75.0,0.0
30.0,29.0,-278.0,4.0,22.0,5.0,-47.0,26.0,41.0,76.0,0.0
-3.0,19.0,-208.0,8.0,6.0,9.0,-49.0,22.0,28.0,72.0,0.0
-20.0,16.0,-124.0,12.0,5.0,6.0,-44.0,27.0,22.0,44.0,0.0
-27.0,25.0,-32.0,23.0,1.0,7.0,-37.0,27.0,7.0,18.0,0.0
-15.0,25.0,35.0,38.0,-12.0,14.0,-24.0,26.0,4.0,17.0,0.0
1.0,16.0,124.0,15.0,-47.0,-9.0,-17.0,39.0,29.0,24.0,0.0
21.0,13.0,201.0,-15.0,-81.0,-15.0,-4.0,58.0,33.0,31.0,0.0
19.0,4.0,208.0,-16.0,-71.0,-7.0,0.0,61.0,32.0,26.0,0.0
4.0,-5.0,181.0,0.0,-51.0,-20.0,-18.0,43.0,17.0,6.0,0.0
1.0,-5.0,146.0,21.0,-40.0,-27.0,-28.0,22.0,2.0,0.0,0.0
1.0,-7.0,75.0,4.0,-38.0,-40.0,-33.0,3.0,-3.0,3.0,0.0
-3.0,-7.0,-26.0,-18.0,-34.0,-31.0,-35.0,-3.0,-12.0,-10.0,0.0
-29.0,5.0,-155.0,-15.0,-25.0,-17.0,-43.0,0.0,-35.0,-25.0,0.0
-37.0,-4.0,-238.0,-15.0,-8.0,-10.0,-35.0,-8.0,-56.0,-43.0,0.0
-20.0,6.0,-313.0,-5.0,4.0,-4.0,-30.0,-8.0,-46.0,-43.0,0.0
-19.0,5.0,-367.0,4.0,14.0,1.0,-13.0,-16.0,-44.0,-42.0,0.0
-22.0,-15.0,-368.0,8.0,23.0,10.0,-8.0,-14.0,-43.0,-48.0,0.0
-25.0,-18.0,-359.0,13.0,19.0,16.0,0.0,-8.0,-26.0,-46.0,0.0
-32.0,-8.0,-257.0,9.0,20.0,22.0,17.0,-8.0,-26.0,-59.0,0.0
-39.0,-22.0,-122.0,10.0,22.0,27.0,11.0,-12.0,-28.0,-57.0,0.0
-13.0,-13.0,-43.0,16.0,25.0,26.0,1.0,-11.0,-31.0,-36.0,0.0
19.0,2.0,80.0,5.0,19.0,15.0,2.0,-15.0,-30.0,-23.0,0.0
21.0,1.0,175.0,17.0,26.0,7.0,-4.0,-14.0,-42.0,-28.0,0.0
9.0,-7.0,204.0,29.0,34.0,-2.0,-4.0,-15.0,-50.0,-30.0,0.0
-3.0,-10.0,220.0,21.0,28.0,-10.0,-17.0,-17.0,-49.0,-24.0,0.0
-3.0,-13.0,213.0,13.0,9.0,-23.0,-28.0,-14.0,-32.0,-11.0,0.0
-13.0,-9.0,170.0,-1.0,-6.0,-26.0,-37.0,-20.0,-33.0,-5.0,0.0
-21.0,-5.0,61.0,-23.0,-16.0,-34.0,-39.0,-25.0,-25.0,6.0,0.0
-9.0,-6.0,-66.0,-30.0,-20.0,-28.0,-25.0,-18.0,5.0,16.0,0.0
-11.0,-10.0,-202.0,-37.0,-26.0,-23.0,19.0,-4.0,32.0,17.0,0.0
-14.0,-6.0,-261.0,-34.0,-29.0,-31.0,33.0,-7.0,67.0,33.0,0.0
8.0,9.0,-300.0,-16.0,-15.0,-33.0,30.0,0.0,89.0,49.0,0.0
25.0,34.0,-300.0,3.0,0.0,-23.0,28.0,0.0,85.0,54.0,0.0
26.0,37.0,-287.0,8.0,5.0,-13.0,30.0,-2.0,67.0,52.0,0.0
12.0,21.0,-280.0,8.0,16.0,-7.0,30.0,-3.0,33.0,39.0,0.0
12.0,22.0,-161.0,2.0,15.0,2.0,36.0,3.0,-3.0,26.0,0.0
19.0,17.0,-50.0,3.0,22.0,1.0,48.0,5.0,-43.0,8.0,0.0
13.0,10.0,48.0,-1.0,27.0,0.0,50.0,-1.0,-70.0,-2.0,0.0
2.0,3.0,134.0,-2.0,25.0,1.0,33.0,-1.0,-60.0,-4.0,0.0
1.0,-6.0,207.0,2.0,8.0,3.0,0.0,-8.0,-35.0,8.0,0.0
-12.0,-10.0,263.0,-2.0,8.0,-3.0,-18.0,-12.0,-31.0,13.0,0.0
-13.0,1.0,262.0,-8.0,8.0,-3.0,-18.0,-9.0,-4.0,24.0,0.0
-14.0,-5.0,176.0,-10.0,0.0,-7.0,-26.0,-15.0,36.0,35.0,0.0
-13.0,-18.0,95.0,-15.0,2.0,-23.0,-29.0,-13.0,74.0,31.0,0.0
-7.0,-5.0,-2.0,-3.0,14.0,-18.0,-26.0,-6.0,98.0,28.0,0.0
2.0,10.0,-99.0,-2.0,19.0,-3.0,-24.0,-7.0,88.0,24.0,0.0
2.0,40.0,-171.0,0.0,17.0,0.0,13.0,-4.0,63.0,9.0,0.0
-5.0,62.0,-260.0,0.0,24.0,-3.0,40.0,0.0,29.0,-1.0,0.0
-12.0,66.0,-321.0,5.0,38.0,-4.0,32.0,2.0,-7.0,-23.0,0.0
-11.0,38.0,-339.0,-1.0,25.0,-7.0,39.0,-1.0,-45.0,-43.0,0.0
-10.0,24.0,-293.0,0.0,18.0,-1.0,21.0,-2.0,-63.0,-36.0,0.0
-16.0,-9.0,-198.0,7.0,21.0,0.0,20.0,-7.0,-65.0,-24.0,0.0
-21.0,-24.0,-115.0,8.0,31.0,0.0,26.0,-5.0,-66.0,-30.0,0.0
0.0,-15.0,-19.0,6.0,27.0,0.0,18.0,-8.0,-70.0,-2.0,0.0
-4.0,-16.0,46.0,27.0,25.0,1.0,18.0,-14.0,-81.0,9.0,0.0
-14.0,-21.0,147.0,15.0,37.0,-1.0,26.0,-5.0,-71.0,-9.0,0.0
-16.0,-20.0,225.0,4.0,39.0,-1.0,22.0,-4.0,-46.0,-4.0,0.0
19.0,-15.0,260.0,7.0,26.0,-2.0,7.0,-14.0,-15.0,25.0,0.0
42.0,-16.0,252.0,0.0,25.0,0.0,4.0,-8.0,-1.0,35.0,0.0
31.0,-7.0,177.0,-3.0,23.0,0.0,10.0,10.0,-4.0,23.0,0.0
5.0,-15.0,51.0,-4.0,24.0,3.0,9.0,4.0,-14.0,-7.0,0.0
-10.0,-28.0,-70.0,-8.0,29.0,14.0,21.0,7.0,-18.0,-16.0,0.0
-7.0,-18.0,-158.0,2.0,33.0,11.0,10.0,5.0,-9.0,-6.0,0.0
8.0,2.0,-223.0,20.0,35.0,6.0,-3.0,4.0,3.0,0.0,0.0
13.0,-7.0,-280.0,18.0,31.0,10.0,-1.0,6.0,16.0,0.0,0.0
-5.0,-19.0,-294.0,10.0,23.0,14.0,-2.0,-3.0,9.0,-3.0,0.0
-21.0,-15.0,-272.0,9.0,19.0,11.0,0.0,-8.0,10.0,7.0,0.0
-22.0,-8.0,-240.0,8.0,12.0,12.0,0.0,-11.0,23.0,41.0,0.0
-15.0,-5.0,-170.0,-7.0,13.0,19.0,-14.0,-6.0,38.0,65.0,0.0
-18.0,-15.0,-126.0,-33.0,9.0,17.0,-31.0,4.0,49.0,30.0,0.0
-15.0,-25.0,0.0,-28.0,-1.0,17.0,-19.0,13.0,47.0,-1.0,0.0
-17.0,-24.0,125.0,-6.0,-1.0,14.0,-7.0,15.0,26.0,-18.0,0.0
-23.0,-20.0,191.0,5.0,4.0,8.0,0.0,6.0,10.0,-15.0,0.0
-34.0,-9.0,194.0,12.0,6.0,4.0,-3.0,0.0,10.0,-24.0,0.0
-25.0,11.0,212.0,10.0,4.0,0.0,-11.0,-6.0,4.0,-19.0,0.0
-16.0,23.0,221.0,13.0,0.0,-6.0,-18.0,-16.0,-8.0,23.0,0.0
-21.0,30.0,136.0,0.0,-9.0,-14.0,-26.0,-17.0,-9.0,35.0,0.0
1.0,26.0,32.0,-15.0,-3.0,-10.0,-62.0,-11.0,0.0,35.0,0.0
17.0,13.0,-76.0,-13.0,-4.0,-7.0,-58.0,1.0,-6.0,36.0,0.0
19.0,23.0,-193.0,-11.0,-4.0,-3.0,-50.0,7.0,-21.0,26.0,0.0
14.0,33.0,-236.0,-3.0,0.0,9.0,-25.0,-1.0,-22.0,20.0,0.0
25.0,30.0,-272.0,9.0,1.0,17.0,-5.0,-9.0,-17.0,21.0,0.0
28.0,32.0,-302.0,22.0,11.0,24.0,-24.0,-12.0,-7.0,19.0,0.0
34.0,39.0,-244.0,34.0,4.0,17.0,-39.0,-16.0,-4.0,28.0,0.0
35.0,18.0,-189.0,24.0,1.0,6.0,-18.0,-18.0,-5.0,35.0,0.0
20.0,-7.0,-102.0,17.0,0.0,16.0,11.0,-16.0,-20.0,6.0,0.0
6.0,-32.0,-2.0,3.0,-6.0,13.0,-7.0,-23.0,-27.0,-2.0,0.0
0.0,-36.0,94.0,-20.0,-8.0,17.0,-36.0,-19.0,-16.0,-5.0,0.0
-9.0,-51.0,186.0,-44.0,-15.0,25.0,-45.0,-10.0,-1.0,-20.0,0.0
-14.0,-61.0,240.0,-35.0,-12.0,31.0,-52.0,-8.0,8.0,-27.0,0.0
-7.0,-59.0,257.0,-24.0,-3.0,30.0,-42.0,-16.0,5.0,-25.0,0.0
-5.0,-54.0,280.0,-24.0,2.0,29.0,-41.0,-32.0,-5.0,-16.0,0.0
7.0,-45.0,229.0,-11.0,5.0,25.0,-34.0,-34.0,-18.0,-13.0,0.0
23.0,-34.0,103.0,-2.0,-1.0,24.0,-38.0,-11.0,3.0,3.0,0.0
41.0,-26.0,-51.0,-3.0,-18.0,15.0,-15.0,8.0,36.0,23.0,0.0
37.0,-42.0,-155.0,-15.0,-24.0,4.0,9.0,17.0,29.0,10.0,0.0
29.0,-41.0,-166.0,-24.0,-20.0,3.0,2.0,7.0,6.0,-18.0,0.0
13.0,-34.0,-239.0,-20.0,-13.0,4.0,0.0,5.0,-21.0,-16.0,0.0
9.0,-27.0,-289.0,-14.0,-10.0,-5.0,-6.0,11.0,-19.0,-4.0,0.0
6.0,-29.0,-302.0,-12.0,-13.0,-17.0,0.0,-3.0,-11.0,-8.0,0.0
0.0,-28.0,-324.0,-23.0,-18.0,-24.0,-5.0,-7.0,-14.0,-16.0,0.0
-4.0,-36.0,-218.0,-25.0,-23.0,-33.0,-14.0,0.0,0.0,-19.0,0.0
-13.0,-29.0,-67.0,-29.0,-18.0,-29.0,-31.0,3.0,22.0,-19.0,0.0
-15.0,-17.0,38.0,-22.0,-14.0,-26.0,-40.0,2.0,45.0,-8.0,0.0
-6.0,-23.0,117.0,-15.0,-12.0,-21.0,-34.0,9.0,60.0,-8.0,0.0
-1.0,-18.0,199.0,-4.0,-12.0,-21.0,-35.0,11.0,48.0,-13.0,0.0
24.0,0.0,265.0,3.0,2.0,-17.0,-44.0,16.0,35.0,6.0,0.0
39.0,17.0,295.0,2.0,18.0,-8.0,-32.0,11.0,24.0,27.0,0.0
51.0,43.0,301.0,9.0,9.0,-9.0,-11.0,5.0,25.0,32.0,0.0
48.0,52.0,226.0,9.0,1.0,-7.0,10.0,15.0,30.0,26.0,0.0
47.0,48.0,83.0,3.0,4.0,1.0,15.0,6.0,16.0,25.0,0.0
42.0,32.0,-58.0,16.0,-5.0,6.0,13.0,9.0,-11.0,14.0,0.0
28.0,24.0,-100.0,23.0,-3.0,9.0,-8.0,7.0,-40.0,1.0,0.0
24.0,28.0,-143.0,24.0,0.0,-2.0,-25.0,11.0,-49.0,-10.0,0.0
13.0,20.0,-190.0,4.0,-3.0,-15.0,-15.0,28.0,-27.0,-10.0,0.0
-5.0,19.0,-256.0,-2.0,-10.0,-8.0,-1.0,24.0,-15.0,0.0,0.0
-18.0,12.0,-264.0,-1.0,-8.0,-2.0,11.0,8.0,-4.0,-4.0,0.0
-24.0,10.0,-215.0,-17.0,-14.0,-11.0,21.0,4.0,12.0,-10.0,0.0
-28.0,-3.0,-118.0,-35.0,-3.0,-14.0,28.0,0.0,27.0,2.0,0.0
-31.0,-9.0,-34.0,-36.0,5.0,-20.0,23.0,-8.0,51.0,1.0,0.0
-32.0,-13.0,68.0,-22.0,11.0,-26.0,3.0,0.0,62.0,1.0,0.0
-26.0,-6.0,167.0,-11.0,11.0,-25.0,-8.0,12.0,67.0,14.0,0.0
-5.0,-7.0,240.0,-11.0,14.0,-22.0,-26.0,8.0,69.0,17.0,0.0
0.0,-8.0,284.0,-9.0,19.0,-17.0,-1.0,4.0,59.0,18.0,0.0
-12.0,10.0,278.0,10.0,28.0,-12.0,5.0,2.0,33.0,7.0,0.0
-7.0,34.0,215.0,25.0,33.0,-9.0,-13.0,-1.0,11.0,-7.0,0.0
26.0,50.0,149.0,35.0,30.0,-13.0,-35.0,-6.0,-17.0,-6.0,0.0
73.0,61.0,68.0,43.0,17.0,-18.0,-32.0,0.0,-46.0,22.0,0.0
75.0,54.0,-30.0,39.0,11.0,-4.0,-13.0,4.0,-53.0,25.0,0.0
31.0,38.0,-128.0,20.0,14.0,5.0,16.0,0.0,-20.0,5.0,0.0
3.0,35.0,-215.0,3.0,15.0,10.0,13.0,10.0,-7.0,6.0,0.0
-11.0,23.0,-270.0,1.0,1.0,6.0,1.0,21.0,1.0,1.0,0.0
-31.0,16.0,-279.0,15.0,-3.0,6.0,-12.0,19.0,2.0,-30.0,0.0
-42.0,19.0,-252.0,13.0,-1.0,6.0,-10.0,13.0,-6.0,-39.0,0.0
-39.0,10.0,-182.0,5.0,4.0,10.0,-15.0,5.0,-2.0,-20.0,0.0
-33.0,-8.0,-100.0,1.0,3.0,3.0,-27.0,8.0,10.0,-15.0,0.0
-37.0,-15.0,-6.0,2.0,1.0,-3.0,-23.0,5.0,2.0,-17.0,0.0
-36.0,-6.0,95.0,-8.0,1.0,2.0,18.0,4.0,-15.0,-13.0,0.0
-27.0,5.0,197.0,-6.0,4.0,10.0,18.0,10.0,-29.0,5.0,0.0
-9.0,6.0,269.0,8.0,14.0,8.0,3.0,11.0,-12.0,24.0,0.0
-6.0,13.0,285.0,8.0,20.0,14.0,11.0,12.0,14.0,14.0,0.0
-22.0,4.0,259.0,13.0,15.0,15.0,20.0,5.0,8.0,0.0,0.0
-30.0,13.0,190.0,21.0,4.0,13.0,26.0,7.0,7.0,-11.0,0.0
-19.0,30.0,65.0,18.0,17.0,9.0,39.0,13.0,12.0,-15.0,0.0
-22.0,25.0,-52.0,18.0,18.0,17.0,43.0,18.0,-19.0,-24.0,0.0
-19.0,21.0,-149.0,19.0,22.0,17.0,31.0,16.0,-25.0,-23.0,0.0
-11.0,23.0,-210.0,20.0,20.0,24.0,39.0,12.0,-23.0,-30.0,0.0
-1.0,11.0,-291.0,22.0,24.0,24.0,45.0,-1.0,-28.0,-38.0,0.0
11.0,27.0,-324.0,13.0,7.0,14.0,35.0,-17.0,-17.0,-19.0,0.0
35.0,28.0,-239.0,17.0,2.0,9.0,7.0,-12.0,-16.0,-9.0,0.0
45.0,30.0,-179.0,25.0,4.0,12.0,-29.0,-9.0,-27.0,-3.0,0.0
46.0,33.0,-114.0,17.0,0.0,7.0,-38.0,-5.0,-21.0,-6.0,0.0
44.0,27.0,-32.0,23.0,1.0,-1.0,-39.0,-2.0,-32.0,-18.0,0.0
39.0,18.0,53.0,20.0,-1.0,-10.0,-35.0,-2.0,-36.0,-12.0,0.0
38.0,26.0,132.0,7.0,3.0,-15.0,-44.0,-7.0,-26.0,-27.0,0.0
29.0,38.0,182.0,7.0,-12.0,-12.0,-29.0,-4.0,-12.0,-22.0,0.0
22.0,27.0,186.0,3.0,-34.0,-17.0,-26.0,11.0,-6.0,-10.0,0.0
18.0,14.0,209.0,-4.0,-40.0,-14.0,-17.0,15.0,0.0,-7.0,0.0
15.0,2.0,194.0,-3.0,-32.0,-11.0,-10.0,11.0,6.0,2.0,0.0
20.0,-7.0,148.0,3.0,-29.0,-11.0,9.0,17.0,31.0,7.0,0.0
18.0,-17.0,46.0,-4.0,-24.0,-12.0,8.0,9.0,52.0,12.0,0.0
16.0,-18.0,-30.0,0.0,-25.0,-7.0,18.0,-3.0,48.0,26.0,0.0
19.0,-18.0,-110.0,14.0,-23.0,1.0,34.0,-8.0,47.0,44.0,0.0
31.0,0.0,-171.0,25.0,-26.0,14.0,27.0,-1.0,60.0,61.0,0.0
50.0,10.0,-209.0,16.0,-35.0,25.0,18.0,0.0,56.0,65.0,0.0
50.0,17.0,-222.0,1.0,-32.0,28.0,27.0,12.0,31.0,68.0,0.0
27.0,9.0,-227.0,10.0,-18.0,24.0,42.0,29.0,7.0,36.0,0.0
11.0,-7.0,-177.0,13.0,-10.0,26.0,36.0,20.0,2.0,40.0,0.0
9.0,-17.0,-93.0,7.0,-9.0,23.0,26.0,14.0,1.0,77.0,0.0
9.0,-9.0,-50.0,-8.0,-11.0,30.0,11.0,6.0,0.0,52.0,0.0
12.0,-3.0,67.0,-11.0,-1.0,31.0,12.0,-11.0,11.0,48.0,0.0
-7.0,0.0,157.0,1.0,4.0,30.0,30.0,-7.0,27.0,37.0,0.0
-3.0,12.0,229.0,-4.0,-7.0,32.0,22.0,3.0,46.0,46.0,0.0
26.0,15.0,272.0,-4.0,-7.0,33.0,3.0,1.0,47.0,52.0,0.0
40.0,24.0,278.0,-7.0,-1.0,23.0,13.0,6.0,55.0,40.0,0.0
51.0,28.0,231.0,-10.0,0.0,22.0,19.0,7.0,55.0,30.0,0.0
47.0,21.0,78.0,3.0,9.0,25.0,23.0,0.0,40.0,13.0,0.0
42.0,9.0,-38.0,6.0,9.0,19.0,22.0,6.0,38.0,7.0,0.0
27.0,8.0,-137.0,7.0,10.0,22.0,21.0,9.0,28.0,-1.0,0.0
6.0,-3.0,-199.0,23.0,18.0,37.0,23.0,5.0,0.0,-16.0,0.0
-2.0,-14.0,-245.0,29.0,15.0,45.0,15.0,2.0,-10.0,-26.0,0.0
4.0,-9.0,-278.0,19.0,9.0,44.0,-7.0,2.0,-7.0,-16.0,0.0
9.0,-14.0,-277.0,16.0,15.0,36.0,-11.0,10.0,-4.0,-31.0,0.0
15.0,-20.0,-277.0,26.0,8.0,32.0,-11.0,11.0,1.0,-31.0,0.0
24.0,-5.0,-265.0,13.0,5.0,31.0,-5.0,12.0,-10.0,-3.0,0.0
51.0,19.0,-143.0,4.0,0.0,36.0,-17.0,13.0,-17.0,18.0,0.0
63.0,56.0,9.0,0.0,-12.0,27.0,-18.0,7.0,-29.0,23.0,0.0
81.0,86.0,111.0,4.0,-14.0,15.0,-25.0,-1.0,-27.0,18.0,0.0
84.0,96.0,195.0,3.0,-9.0,14.0,-19.0,-1.0,-14.0,13.0,0.0
78.0,98.0,236.0,0.0,-19.0,12.0,-4.0,-6.0,-11.0,-2.0,0.0
77.0,85.0,279.0,-8.0,-15.0,18.0,-3.0,-4.0,-3.0,0.0,0.0
54.0,47.0,261.0,-2.0,-6.0,21.0,-1.0,7.0,16.0,7.0,0.0
3.0,-4.0,161.0,10.0,-9.0,23.0,-10.0,7.0,17.0,5.0,0.0
-32.0,-50.0,48.0,7.0,-12.0,22.0,16.0,24.0,11.0,5.0,0.0
-43.0,-65.0,-61.0,1.0,-2.0,16.0,56.0,40.0,20.0,13.0,0.0
-34.0,-42.0,-166.0,-1.0,-8.0,13.0,63.0,42.0,35.0,35.0,0.0
-49.0,-36.0,-251.0,11.0,-9.0,17.0,53.0,53.0,31.0,42.0,0.0
-48.0,-41.0,-317.0,17.0,-12.0,17.0,46.0,53.0,33.0,49.0,0.0
-30.0,-23.0,-323.0,12.0,-15.0,4.0,28.0,36.0,36.0,39.0,0.0
-12.0,-9.0,-268.0,14.0,-12.0,-7.0,25.0,27.0,31.0,34.0,0.0
-16.0,-2.0,-198.0,10.0,-10.0,-9.0,14.0,30.0,35.0,27.0,0.0
-27.0,-2.0,-111.0,6.0,-6.0,0.0,-18.0,26.0,36.0,9.0,0.0
-11.0,5.0,-30.0,0.0,-9.0,-1.0,-39.0,25.0,37.0,4.0,0.0
-6.0,24.0,26.0,14.0,-2.0,-3.0,-29.0,25.0,45.0,9.0,0.0
-14.0,28.0,106.0,14.0,12.0,0.0,-36.0,36.0,44.0,5.0,0.0
-23.0,22.0,206.0,11.0,26.0,0.0,-27.0,29.0,42.0,-9.0,0.0
-14.0,22.0,259.0,11.0,31.0,5.0,-30.0,28.0,8.0,-26.0,0.0
-8.0,30.0,274.0,13.0,37.0,17.0,-23.0,31.0,-10.0,-50.0,0.0
-15.0,24.0,226.0,15.0,42.0,20.0,-6.0,25.0,-26.0,-62.0,0.0
-9.0,33.0,109.0,16.0,41.0,8.0,4.0,23.0,-30.0,-47.0,0.0
0.0,34.0,-62.0,18.0,41.0,0.0,1.0,20.0,-19.0,-32.0,0.0
2.0,29.0,-186.0,15.0,31.0,-1.0,23.0,12.0,-26.0,-28.0,0.0
2.0,21.0,-246.0,12.0,21.0,-6.0,37.0,11.0,-24.0,-38.0,0.0
13.0,17.0,-290.0,0.0,18.0,-2.0,22.0,13.0,-18.0,-34.0,0.0
45.0,17.0,-294.0,-4.0,11.0,-1.0,-13.0,8.0,-9.0,9.0,0.0
59.0,29.0,-322.0,-8.0,12.0,-3.0,-35.0,4.0,-16.0,61.0,0.0
42.0,27.0,-271.0,2.0,7.0,-1.0,-31.0,0.0,-18.0,47.0,0.0
22.0,13.0,-164.0,0.0,7.0,0.0,-31.0,2.0,-6.0,13.0,0.0
16.0,11.0,-66.0,-1.0,8.0,2.0,-27.0,11.0,2.0,4.0,0.0
4.0,3.0,4.0,1.0,0.0,0.0,-18.0,5.0,12.0,-3.0,0.0
3.0,2.0,57.0,-3.0,-1.0,-14.0,-27.0,-8.0,25.0,-12.0,0.0
20.0,5.0,98.0,4.0,6.0,-22.0,-31.0,-7.0,23.0,9.0,0.0
23.0,5.0,213.0,13.0,20.0,-17.0,-33.0,3.0,10.0,17.0,0.0
18.0,8.0,255.0,24.0,32.0,-11.0,-30.0,-2.0,20.0,19.0,0.0
15.0,-5.0,251.0,30.0,45.0,-4.0,-28.0,-12.0,29.0,11.0,0.0
13.0,-26.0,186.0,25.0,52.0,-1.0,-14.0,-12.0,1.0,-5.0,0.0
3.0,-29.0,58.0,21.0,57.0,-2.0,-4.0,-10.0,-5.0,-6.0,0.0
-6.0,-19.0,-37.0,28.0,50.0,8.0,8.0,-3.0,-5.0,-18.0,0.0
-6.0,-20.0,-115.0,26.0,42.0,26.0,19.0,-5.0,-2.0,-38.0,0.0
-19.0,-6.0,-182.0,30.0,40.0,28.0,47.0,-4.0,-21.0,-45.0,0.0
-14.0,-6.0,-266.0,36.0,34.0,22.0,51.0,5.0,-38.0,-48.0,0.0
-21.0,-23.0,-369.0,27.0,8.0,15.0,39.0,4.0,-41.0,-59.0,0.0
-40.0,-33.0,-396.0,13.0,-18.0,19.0,17.0,5.0,-33.0,-63.0,0.0
-40.0,-30.0,-331.0,-10.0,-43.0,15.0,0.0,12.0,-8.0,-48.0,0.0
-30.0,-34.0,-213.0,-30.0,-50.0,7.0,8.0,18.0,18.0,-30.0,0.0
-8.0,-23.0,-115.0,-58.0,-52.0,4.0,28.0,16.0,56.0,-15.0,0.0
-3.0,-19.0,35.0,-71.0,-55.0,-8.0,0.0,3.0,101.0,12.0,0.0
-1.0,-28.0,164.0,-53.0,-55.0,-15.0,-14.0,9.0,129.0,21.0,0.0
10.0,-8.0,250.0,-26.0,-39.0,-17.0,-11.0,12.0,124.0,21.0,0.0
42.0,11.0,288.0,-18.0,-18.0,-6.0,-10.0,8.0,88.0,24.0,0.0
39.0,29.0,291.0,-9.0,-7.0,-3.0,-12.0,7.0,44.0,44.0,0.0
36.0,31.0,265.0,11.0,-1.0,-1.0,-11.0,3.0,2.0,28.0,0.0
41.0,29.0,158.0,19.0,-3.0,-9.0,-9.0,-2.0,-39.0,16.0,0.0
45.0,40.0,19.0,7.0,-15.0,-18.0,-16.0,-4.0,-48.0,23.0,0.0
45.0,36.0,-96.0,-6.0,-29.0,-26.0,-18.0,0.0,-24.0,41.0,0.0
34.0,20.0,-161.0,-5.0,-24.0,-18.0,-13.0,19.0,-23.0,50.0,0.0
24.0,7.0,-219.0,-3.0,-5.0,-6.0,15.0,25.0,-1.0,65.0,0.0
21.0,10.0,-254.0,11.0,6.0,-2.0,11.0,25.0,20.0,70.0,0.0
7.0,11.0,-263.0,23.0,10.0,1.0,13.0,25.0,4.0,37.0,0.0
2.0,5.0,-240.0,16.0,17.0,2.0,12.0,18.0,-10.0,3.0,0.0
-8.0,-3.0,-182.0,19.0,23.0,2.0,11.0,11.0,-7.0,-3.0,0.0
0.0,-7.0,-96.0,20.0,20.0,5.0,2.0,7.0,-11.0,3.0,0.0
-3.0,-2.0,-6.0,12.0,11.0,14.0,6.0,21.0,-32.0,6.0,0.0
-13.0,6.0,72.0,2.0,8.0,17.0,29.0,32.0,-36.0,-8.0,0.0
-11.0,0.0,144.0,14.0,11.0,19.0,35.0,23.0,-31.0,-16.0,0.0
-13.0,-2.0,200.0,13.0,10.0,24.0,7.0,12.0,-32.0,-19.0,0.0
-6.0,-4.0,171.0,2.0,5.0,23.0,-2.0,17.0,-36.0,-9.0,0.0
3.0,-11.0,185.0,-14.0,5.0,26.0,-1.0,24.0,-26.0,-6.0,0.0
7.0,-9.0,178.0,-24.0,7.0,24.0,2.0,39.0,-27.0,-10.0,0.0
2.0,-8.0,98.0,-28.0,15.0,12.0,4.0,42.0,-25.0,3.0,0.0
30.0,10.0,10.0,-16.0,10.0,-4.0,-3.0,14.0,-16.0,25.0,0.0
49.0,28.0,-83.0,-5.0,3.0,-7.0,-12.0,1.0,-19.0,46.0,0.0
26.0,31.0,-164.0,-15.0,-4.0,-12.0,-4.0,9.0,-7.0,35.0,0.0
12.0,36.0,-249.0,-12.0,3.0,-11.0,14.0,21.0,13.0,53.0,0.0
1.0,46.0,-268.0,-4.0,0.0,-14.0,9.0,25.0,31.0,33.0,0.0
3.0,40.0,-255.0,-8.0,2.0,-11.0,1.0,12.0,23.0,38.0,0.0
-2.0,26.0,-218.0,-4.0,8.0,-16.0,8.0,5.0,1.0,37.0,0.0
-21.0,11.0,-144.0,-2.0,9.0,-15.0,37.0,3.0,-1.0,24.0,0.0
-33.0,-13.0,-63.0,-8.0,15.0,-4.0,26.0,4.0,5.0,19.0,0.0
-16.0,-9.0,24.0,-5.0,12.0,2.0,1.0,5.0,9.0,31.0,0.0
-17.0,4.0,139.0,-4.0,9.0,3.0,0.0,12.0,7.0,35.0,0.0
-4.0,19.0,241.0,-2.0,9.0,5.0,10.0,14.0,34.0,19.0,0.0
7.0,37.0,297.0,1.0,4.0,7.0,10.0,15.0,48.0,0.0,0.0
14.0,34.0,319.0,0.0,6.0,0.0,-2.0,9.0,15.0,-6.0,0.0
26.0,29.0,315.0,-12.0,6.0,3.0,-5.0,5.0,2.0,7.0,0.0
33.0,22.0,194.0,-1.0,12.0,5.0,0.0,10.0,-1.0,13.0,0.0
29.0,25.0,83.0,18.0,22.0,-3.0,12.0,19.0,-20.0,-1.0,0.0
23.0,38.0,-1.0,26.0,27.0,6.0,25.0,21.0,-28.0,-6.0,0.0
12.0,11.0,-98.0,34.0,20.0,12.0,15.0,12.0,-27.0,-4.0,0.0
19.0,-8.0,-179.0,29.0,30.0,10.0,19.0,11.0,-12.0,-10.0,0.0
21.0,-26.0,-263.0,16.0,27.0,21.0,45.0,15.0,-3.0,-17.0,0.0
2.0,-42.0,-332.0,3.0,28.0,29.0,50.0,8.0,11.0,-24.0,0.0
-17.0,-40.0,-321.0,-6.0,31.0,24.0,49.0,5.0,33.0,-30.0,0.0
-34.0,-42.0,-196.0,1.0,24.0,18.0,26.0,2.0,43.0,-30.0,0.0
-29.0,-40.0,-74.0,8.0,17.0,19.0,29.0,1.0,46.0,-26.0,0.0
-22.0,-13.0,2.0,10.0,6.0,15.0,28.0,10.0,43.0,-27.0,0.0
-17.0,1.0,66.0,27.0,8.0,-5.0,19.0,12.0,40.0,-19.0,0.0
17.0,8.0,139.0,34.0,17.0,-8.0,12.0,11.0,34.0,-7.0,0.0
16.0,8.0,235.0,32.0,15.0,2.0,11.0,12.0,-1.0,-11.0,0.0
10.0,11.0,227.0,37.0,6.0,19.0,8.0,2.0,-26.0,-17.0,0.0
3.0,8.0,256.0,46.0,10.0,30.0,-3.0,-2.0,-42.0,-8.0,0.0
-13.0,-2.0,245.0,40.0,10.0,30.0,6.0,4.0,-39.0,-8.0,0.0
-16.0,5.0,128.0,21.0,6.0,31.0,14.0,7.0,-21.0,-8.0,0.0
-1.0,12.0,17.0,8.0,8.0,28.0,19.0,6.0,-29.0,-18.0,0.0
-21.0,1.0,-101.0,11.0,17.0,31.0,-2.0,-6.0,-30.0,-35.0,0.0
-44.0,-10.0,-216.0,4.0,32.0,35.0,13.0,5.0,-30.0,-42.0,0.0
-41.0,-3.0,-243.0,19.0,38.0,51.0,31.0,8.0,-31.0,-44.0,0.0
-51.0,1.0,-286.0,34.0,29.0,47.0,34.0,14.0,-25.0,-37.0,0.0
-47.0,19.0,-307.0,29.0,31.0,37.0,5.0,12.0,-10.0,-36.0,0.0
-15.0,23.0,-241.0,17.0,29.0,23.0,-20.0,1.0,8.0,-6.0,0.0
11.0,9.0,-157.0,5.0,19.0,7.0,-12.0,0.0,25.0,9.0,0.0
1.0,-9.0,-63.0,-7.0,7.0,-1.0,-8.0,18.0,43.0,15.0,0.0
0.0,-14.0,-1.0,-10.0,7.0,5.0,-4.0,17.0,58.0,11.0,0.0
-5.0,-10.0,50.0,-8.0,14.0,24.0,11.0,23.0,41.0,9.0,0.0
-4.0,-11.0,183.0,-5.0,22.0,23.0,1.0,19.0,17.0,18.0,0.0
13.0,-2.0,262.0,-3.0,25.0,16.0,-18.0,4.0,4.0,19.0,0.0
14.0,13.0,287.0,1.0,7.0,6.0,-19.0,5.0,2.0,29.0,0.0
12.0,4.0,287.0,18.0,9.0,0.0,-21.0,10.0,1.0,35.0,0.0
11.0,-13.0,231.0,28.0,10.0,3.0,0.0,13.0,-21.0,19.0,0.0
14.0,-9.0,112.0,29.0,1.0,20.0,31.0,8.0,-41.0,8.0,0.0
16.0,4.0,0.0,26.0,-2.0,25.0,37.0,0.0,-45.0,17.0,0.0
14.0,14.0,-90.0,19.0,0.0,30.0,31.0,7.0,-37.0,6.0,0.0
8.0,14.0,-180.0,23.0,6.0,28.0,31.0,22.0,-25.0,-10.0,0.0
-1.0,18.0,-251.0,18.0,0.0,16.0,40.0,27.0,-7.0,-11.0,0.0
-4.0,28.0,-280.0,15.0,-2.0,5.0,41.0,24.0,9.0,-9.0,0.0
9.0,33.0,-289.0,9.0,-4.0,5.0,31.0,13.0,27.0,-2.0,0.0
-5.0,11.0,-243.0,3.0,-2.0,4.0,20.0,5.0,32.0,-17.0,0.0
-27.0,-5.0,-166.0,-5.0,-1.0,4.0,9.0,-5.0,16.0,-37.0,0.0
-25.0,-2.0,-75.0,-21.0,3.0,5.0,-11.0,-3.0,13.0,-36.0,0.0
-33.0,5.0,15.0,-16.0,11.0,4.0,-29.0,9.0,3.0,-43.0,0.0
-38.0,16.0,107.0,-2.0,18.0,11.0,-1.0,13.0,-8.0,-29.0,0.0
-25.0,19.0,199.0,7.0,20.0,10.0,-9.0,1.0,-9.0,-13.0,0.0
-2.0,11.0,255.0,5.0,11.0,10.0,-50.0,-3.0,-16.0,35.0,0.0
22.0,10.0,299.0,9.0,6.0,1.0,-60.0,-2.0,-9.0,47.0,0.0
25.0,-4.0,274.0,0.0,2.0,-6.0,-32.0,0.0,1.0,43.0,0.0
22.0,-45.0,182.0,-1.0,-2.0,-2.0,-19.0,0.0,-15.0,55.0,0.0
31.0,-35.0,78.0,-4.0,-7.0,7.0,-4.0,0.0,-2.0,64.0,0.0
30.0,-16.0,-13.0,-8.0,-1.0,-3.0,14.0,-5.0,11.0,65.0,0.0
25.0,-16.0,-88.0,-12.0,4.0,-5.0,-4.0,6.0,-9.0,48.0,0.0
14.0,-12.0,-173.0,2.0,20.0,-3.0,-23.0,8.0,-1.0,24.0,0.0
16.0,2.0,-230.0,2.0,23.0,-1.0,-20.0,10.0,5.0,6.0,0.0
13.0,10.0,-257.0,-8.0,16.0,-5.0,4.0,17.0,-1.0,2.0,0.0
2.0,3.0,-258.0,-16.0,4.0,-4.0,15.0,6.0,-21.0,-3.0,0.0
-14.0,-4.0,-191.0,-8.0,9.0,2.0,13.0,-4.0,-37.0,-18.0,0.0
-20.0,0.0,-93.0,1.0,17.0,9.0,25.0,-11.0,-52.0,-33.0,0.0
-31.0,-13.0,-5.0,-4.0,21.0,10.0,27.0,-19.0,-60.0,-35.0,0.0
-45.0,-32.0,88.0,-4.0,19.0,15.0,19.0,-20.0,-54.0,-54.0,0.0
-47.0,-31.0,159.0,-9.0,20.0,9.0,6.0,-19.0,-51.0,-57.0,0.0
-30.0,-27.0,179.0,-10.0,10.0,-3.0,-5.0,-28.0,-40.0,-48.0,0.0
-14.0,-34.0,220.0,-20.0,-6.0,-19.0,-25.0,-28.0,-28.0,-17.0,0.0
-16.0,-26.0,214.0,-25.0,-16.0,-17.0,-63.0,-22.0,-6.0,5.0,0.0
-12.0,-41.0,190.0,-23.0,-25.0,-11.0,-68.0,-20.0,21.0,14.0,0.0
-11.0,-40.0,115.0,-25.0,-25.0,-5.0,-54.0,-19.0,43.0,7.0,0.0
-8.0,-10.0,9.0,-9.0,-23.0,-6.0,-16.0,-19.0,87.0,9.0,0.0
7.0,5.0,-74.0,-8.0,-20.0,-5.0,0.0,0.0,126.0,10.0,0.0
9.0,0.0,-139.0,0.0,0.0,3.0,5.0,6.0,113.0,13.0,0.0
19.0,-4.0,-204.0,7.0,8.0,14.0,17.0,-5.0,91.0,-5.0,0.0
30.0,2.0,-244.0,16.0,7.0,9.0,15.0,-1.0,64.0,-13.0,0.0
34.0,5.0,-220.0,4.0,-4.0,11.0,8.0,2.0,43.0,-1.0,0.0
27.0,0.0,-181.0,-15.0,-1.0,11.0,2.0,2.0,9.0,-3.0,0.0
19.0,-1.0,-111.0,2.0,8.0,12.0,-16.0,-3.0,-36.0,-3.0,0.0
24.0,8.0,-32.0,14.0,5.0,-2.0,-36.0,-11.0,-42.0,10.0,0.0
33.0,2.0,58.0,19.0,-7.0,-9.0,-12.0,-4.0,-30.0,14.0,0.0
41.0,9.0,146.0,14.0,-14.0,-13.0,-8.0,-6.0,-34.0,6.0,0.0
50.0,21.0,219.0,10.0,-16.0,-8.0,-17.0,-13.0,-28.0,1.0,0.0
28.0,17.0,270.0,-1.0,-23.0,-7.0,-11.0,-14.0,-17.0,-8.0,0.0
12.0,8.0,286.0,-7.0,-20.0,-17.0,0.0,-14.0,-1.0,-17.0,0.0
3.0,5.0,271.0,-4.0,-9.0,-17.0,-7.0,-18.0,4.0,-18.0,0.0
9.0,7.0,194.0,1.0,-10.0,-8.0,-13.0,-22.0,0.0,-18.0,0.0
22.0,13.0,93.0,7.0,-12.0,-12.0,-12.0,-15.0,-3.0,-4.0,0.0
18.0,6.0,-25.0,9.0,-9.0,-19.0,-11.0,-6.0,-4.0,-10.0,0.0
2.0,-8.0,-133.0,2.0,-2.0,-14.0,7.0,-1.0,-3.0,-19.0,0.0
2.0,-21.0,-205.0,2.0,3.0,-4.0,13.0,-2.0,-14.0,-33.0,0.0
1.0,-6.0,-261.0,9.0,-3.0,4.0,8.0,-7.0,-27.0,-33.0,0.0
4.0,4.0,-274.0,16.0,-4.0,4.0,4.0,-18.0,-38.0,-15.0,0.0
9.0,2.0,-275.0,11.0,-1.0,4.0,6.0,-22.0,-38.0,-4.0,0.0
0.0,-6.0,-278.0,11.0,6.0,6.0,8.0,-7.0,-29.0,-2.0,0.0
-24.0,-11.0,-156.0,7.0,12.0,2.0,-18.0,3.0,-32.0,1.0,0.0
-34.0,4.0,4.0,7.0,12.0,-1.0,-34.0,-6.0,-16.0,-3.0,0.0
-46.0,6.0,99.0,15.0,7.0,-1.0,-25.0,-11.0,-15.0,-10.0,0.0
-45.0,2.0,186.0,18.0,-4.0,-4.0,-27.0,-4.0,-4.0,-8.0,0.0
-50.0,-14.0,256.0,15.0,-4.0,-3.0,-23.0,-4.0,23.0,-11.0,0.0
-59.0,-16.0,291.0,-5.0,11.0,1.0,-16.0,-5.0,29.0,-30.0,0.0
-54.0,-6.0,289.0,-3.0,13.0,2.0,-1.0,-8.0,30.0,-44.0,0.0
-44.0,-10.0,255.0,-11.0,5.0,15.0,0.0,-10.0,18.0,-35.0,0.0
-8.0,-2.0,160.0,-17.0,-28.0,23.0,-6.0,-2.0,35.0,-13.0,0.0
9.0,5.0,52.0,-27.0,-52.0,19.0,-4.0,8.0,45.0,0.0,0.0
-9.0,-13.0,-58.0,-22.0,-44.0,20.0,-1.0,13.0,12.0,-8.0,0.0
-10.0,-22.0,-145.0,-14.0,-22.0,15.0,0.0,14.0,-5.0,-24.0,0.0
-13.0,-24.0,-250.0,0.0,-1.0,11.0,28.0,12.0,-25.0,-37.0,0.0
-21.0,-17.0,-353.0,16.0,13.0,25.0,19.0,18.0,-47.0,-34.0,0.0
-19.0,-11.0,-306.0,12.0,4.0,15.0,-7.0,26.0,-49.0,-23.0,0.0
-19.0,-16.0,-208.0,-1.0,-18.0,1.0,-3.0,22.0,-32.0,-16.0,0.0
-24.0,-27.0,-147.0,-4.0,-29.0,-1.0,-14.0,11.0,-23.0,-16.0,0.0
-26.0,-26.0,-67.0,-8.0,-33.0,-19.0,-9.0,10.0,-2.0,4.0,0.0
-13.0,-27.0,35.0,-10.0,-41.0,-38.0,-29.0,11.0,13.0,32.0,0.0
13.0,-16.0,129.0,-6.0,-31.0,-44.0,-41.0,13.0,15.0,62.0,0.0
24.0,-6.0,198.0,-24.0,-32.0,-41.0,-45.0,5.0,18.0,66.0,0.0
26.0,-4.0,276.0,-21.0,-26.0,-34.0,-44.0,14.0,19.0,58.0,0.0
23.0,2.0,304.0,-15.0,-13.0,-33.0,-45.0,19.0,15.0,48.0,0.0
20.0,14.0,289.0,-4.0,-12.0,-37.0,-49.0,19.0,19.0,38.0,0.0
24.0,11.0,226.0,-3.0,-9.0,-32.0,-48.0,11.0,13.0,22.0,0.0
28.0,7.0,120.0,-2.0,-7.0,-23.0,-8.0,8.0,7.0,20.0,0.0
19.0,-4.0,-1.0,0.0,-12.0,-18.0,3.0,10.0,0.0,24.0,0.0
12.0,5.0,-96.0,-5.0,-16.0,-22.0,-9.0,7.0,-10.0,24.0,0.0
7.0,11.0,-171.0,-18.0,-18.0,-24.0,-13.0,0.0,-9.0,26.0,0.0
5.0,9.0,-230.0,-21.0,-9.0,-25.0,-26.0,-17.0,-12.0,20.0,0.0
32.0,10.0,-245.0,-21.0,-6.0,-19.0,-22.0,-26.0,-28.0,38.0,0.0
51.0,11.0,-212.0,-31.0,-11.0,-1.0,-9.0,-11.0,-24.0,44.0,0.0
56.0,9.0,-173.0,-34.0,-6.0,5.0,0.0,-3.0,-10.0,32.0,0.0
33.0,6.0,-101.0,-26.0,-3.0,3.0,-13.0,1.0,-13.0,28.0,0.0
20.0,5.0,-16.0,-13.0,5.0,2.0,-14.0,9.0,12.0,21.0,0.0
17.0,10.0,76.0,-10.0,9.0,-6.0,-31.0,3.0,31.0,18.0,0.0
31.0,12.0,174.0,-12.0,-5.0,-13.0,-31.0,-8.0,55.0,34.0,0.0
39.0,1.0,251.0,-20.0,-5.0,-21.0,-32.0,-4.0,66.0,38.0,0.0
21.0,-11.0,272.0,-27.0,6.0,-19.0,-8.0,-8.0,68.0,15.0,0.0
12.0,-20.0,292.0,-30.0,8.0,-19.0,17.0,-7.0,72.0,10.0,0.0
5.0,-23.0,272.0,-27.0,18.0,-12.0,11.0,-2.0,60.0,13.0,0.0
-8.0,-32.0,159.0,6.0,31.0,-8.0,-18.0,10.0,46.0,7.0,0.0
-27.0,-50.0,28.0,14.0,40.0,-4.0,-28.0,26.0,26.0,3.0,0.0
-22.0,-54.0,-64.0,17.0,42.0,13.0,-18.0,22.0,-12.0,3.0,0.0
-27.0,-67.0,-159.0,25.0,35.0,16.0,-12.0,17.0,-31.0,-1.0,0.0
-42.0,-73.0,-234.0,10.0,28.0,2.0,-4.0,21.0,-15.0,-10.0,0.0
-34.0,-79.0,-284.0,7.0,34.0,-10.0,28.0,29.0,15.0,-15.0,0.0
-21.0,-73.0,-297.0,17.0,33.0,-7.0,39.0,28.0,28.0,-21.0,0.0
-17.0,-48.0,-274.0,20.0,23.0,8.0,28.0,25.0,18.0,-27.0,0.0
-27.0,-34.0,-210.0,24.0,16.0,20.0,24.0,17.0,8.0,-36.0,0.0
-39.0,-32.0,-125.0,25.0,13.0,20.0,14.0,7.0,0.0,-37.0,0.0
-31.0,-34.0,-71.0,30.0,8.0,22.0,4.0,4.0,-8.0,-31.0,0.0
-39.0,-32.0,21.0,24.0,0.0,15.0,3.0,0.0,-1.0,-35.0,0.0
-26.0,-27.0,137.0,6.0,-7.0,14.0,10.0,-5.0,4.0,-27.0,0.0
-16.0,-15.0,223.0,4.0,-9.0,8.0,4.0,-14.0,-1.0,-11.0,0.0
-11.0,-17.0,265.0,19.0,-6.0,2.0,-5.0,-17.0,5.0,9.0,0.0
-18.0,-7.0,262.0,12.0,3.0,-3.0,-10.0,-20.0,9.0,17.0,0.0
-14.0,-3.0,220.0,9.0,6.0,-13.0,-3.0,-13.0,8.0,19.0,0.0
-2.0,16.0,131.0,4.0,9.0,-13.0,1.0,0.0,9.0,9.0,0.0
5.0,39.0,13.0,12.0,24.0,-2.0,2.0,-1.0,-1.0,11.0,0.0
20.0,43.0,-93.0,29.0,31.0,6.0,3.0,3.0,-12.0,9.0,0.0
17.0,25.0,-180.0,23.0,20.0,19.0,2.0,9.0,-14.0,2.0,0.0
9.0,23.0,-242.0,19.0,20.0,12.0,0.0,7.0,-21.0,-10.0,0.0
3.0,32.0,-270.0,25.0,8.0,1.0,16.0,10.0,-2.0,-10.0,0.0
7.0,20.0,-247.0,27.0,-8.0,-5.0,25.0,8.0,17.0,2.0,0.0
0.0,-3.0,-190.0,26.0,-12.0,-10.0,19.0,3.0,12.0,3.0,0.0
-3.0,-5.0,-115.0,14.0,-13.0,-17.0,9.0,0.0,18.0,6.0,0.0
-17.0,-19.0,-41.0,2.0,-19.0,-10.0,0.0,8.0,22.0,-5.0,0.0
-23.0,-22.0,47.0,-7.0,-17.0,-10.0,21.0,7.0,33.0,-7.0,0.0
-33.0,-19.0,132.0,-24.0,-13.0,-5.0,16.0,0.0,53.0,-6.0,0.0
-22.0,-13.0,198.0,-45.0,-15.0,4.0,-8.0,-5.0,68.0,2.0,0.0
-10.0,-9.0,243.0,-36.0,-3.0,1.0,-1.0,-3.0,83.0,13.0,0.0
-6.0,-4.0,263.0,-12.0,2.0,-4.0,20.0,3.0,76.0,23.0,0.0
4.0,7.0,242.0,2.0,5.0,-6.0,34.0,10.0,81.0,33.0,0.0
3.0,3.0,174.0,7.0,8.0,0.0,37.0,1.0,60.0,42.0,0.0
-21.0,9.0,50.0,8.0,7.0,4.0,15.0,0.0,27.0,39.0,0.0
0.0,34.0,-26.0,7.0,13.0,1.0,-1.0,6.0,-17.0,26.0,0.0
27.0,34.0,-100.0,1.0,14.0,-8.0,-20.0,21.0,-36.0,22.0,0.0
34.0,27.0,-193.0,4.0,0.0,-4.0,-2.0,17.0,-29.0,12.0,0.0
41.0,35.0,-245.0,13.0,-7.0,-7.0,7.0,13.0,-29.0,14.0,0.0
45.0,52.0,-250.0,4.0,-10.0,-6.0,4.0,16.0,-31.0,28.0,0.0
28.0,51.0,-234.0,2.0,4.0,1.0,11.0,10.0,-46.0,24.0,0.0
18.0,40.0,-193.0,13.0,12.0,4.0,11.0,13.0,-55.0,10.0,0.0
17.0,32.0,-114.0,9.0,6.0,15.0,0.0,-3.0,-42.0,5.0,0.0
14.0,24.0,-15.0,10.0,17.0,22.0,-27.0,-12.0,-27.0,-4.0,0.0
9.0,24.0,80.0,17.0,34.0,31.0,-39.0,-8.0,-38.0,-16.0,0.0
-7.0,15.0,146.0,29.0,39.0,38.0,-23.0,-8.0,-58.0,-27.0,0.0
-16.0,-14.0,222.0,32.0,34.0,32.0,-17.0,-15.0,-65.0,-42.0,0.0
-26.0,-17.0,280.0,26.0,32.0,30.0,-14.0,-6.0,-48.0,-46.0,0.0
-26.0,5.0,273.0,30.0,20.0,23.0,-13.0,2.0,-7.0,-32.0,0.0
-10.0,-38.0,-133.0,-25.0,-45.0,-1.0,-23.0,14.0,14.0,6.0,0.0
17.0,-39.0,-266.0,-41.0,-52.0,-16.0,-16.0,19.0,27.0,17.0,0.0
30.0,-34.0,-306.0,-41.0,-56.0,-20.0,-27.0,6.0,30.0,28.0,0.0
24.0,-29.0,-245.0,-36.0,-48.0,-16.0,-4.0,0.0,47.0,47.0,0.0
18.0,-26.0,-143.0,-22.0,-26.0,-4.0,-11.0,7.0,74.0,72.0,0.0
24.0,-27.0,-102.0,12.0,7.0,10.0,-6.0,28.0,88.0,73.0,0.0
9.0,-22.0,-34.0,27.0,38.0,23.0,5.0,30.0,79.0,43.0,0.0
-5.0,1.0,96.0,16.0,41.0,21.0,13.0,33.0,36.0,15.0,0.0
2.0,22.0,191.0,9.0,39.0,29.0,2.0,34.0,0.0,-2.0,0.0
9.0,16.0,267.0,4.0,32.0,24.0,9.0,20.0,-26.0,-8.0,0.0
19.0,20.0,327.0,1.0,24.0,19.0,11.0,14.0,-34.0,-7.0,0.0
6.0,25.0,354.0,-8.0,12.0,14.0,0.0,8.0,-42.0,-7.0,0.0
-6.0,20.0,359.0,-19.0,-8.0,16.0,-4.0,-1.0,-33.0,-2.0,0.0
-5.0,0.0,293.0,-21.0,-19.0,19.0,-3.0,-12.0,-33.0,3.0,0.0
-5.0,-23.0,179.0,-3.0,-12.0,7.0,-8.0,-17.0,-32.0,11.0,0.0
-7.0,-23.0,49.0,2.0,-8.0,-6.0,-11.0,-16.0,-28.0,13.0,0.0
-3.0,-23.0,-62.0,-1.0,-15.0,-7.0,-25.0,-10.0,-15.0,5.0,0.0
-16.0,-8.0,-169.0,-2.0,-3.0,-6.0,-17.0,-4.0,-4.0,-3.0,0.0
-29.0,-5.0,-265.0,8.0,3.0,-8.0,-14.0,-1.0,6.0,-5.0,0.0
-24.0,0.0,-250.0,10.0,15.0,-1.0,4.0,0.0,29.0,-14.0,0.0
-30.0,3.0,-194.0,4.0,25.0,12.0,24.0,-6.0,14.0,-9.0,0.0
-43.0,-2.0,-175.0,8.0,15.0,10.0,31.0,-8.0,0.0,-12.0,0.0
-29.0,7.0,-72.0,16.0,-2.0,2.0,11.0,-16.0,-5.0,-12.0,0.0
-8.0,10.0,46.0,9.0,-10.0,4.0,8.0,-15.0,-10.0,-4.0,0.0
2.0,5.0,101.0,-10.0,-29.0,-3.0,3.0,-9.0,-9.0,-1.0,0.0
12.0,1.0,166.0,-19.0,-38.0,-17.0,-6.0,-9.0,-9.0,-12.0,0.0
3.0,-33.0,272.0,-21.0,-35.0,-4.0,-8.0,-7.0,-7.0,-19.0,0.0
-4.0,-38.0,335.0,-15.0,-46.0,-2.0,1.0,-6.0,0.0,-12.0,0.0
7.0,-12.0,342.0,-14.0,-59.0,-6.0,1.0,5.0,-11.0,-7.0,0.0
4.0,-19.0,312.0,-10.0,-39.0,-1.0,-12.0,8.0,-26.0,-18.0,0.0
13.0,-19.0,224.0,-5.0,-29.0,-1.0,-28.0,3.0,-20.0,-6.0,0.0
30.0,-11.0,100.0,-5.0,-39.0,-3.0,-64.0,-10.0,-10.0,16.0,0.0
28.0,-10.0,5.0,0.0,-56.0,3.0,-56.0,-15.0,-7.0,26.0,0.0
20.0,-9.0,-101.0,-1.0,-63.0,0.0,-9.0,-11.0,-2.0,6.0,0.0
11.0,-2.0,-229.0,4.0,-53.0,4.0,13.0,-6.0,-2.0,-9.0,0.0
18.0,5.0,-324.0,-5.0,-40.0,5.0,0.0,-15.0,-1.0,-12.0,0.0
21.0,10.0,-288.0,5.0,-26.0,7.0,-17.0,-17.0,-15.0,-12.0,0.0
19.0,12.0,-243.0,13.0,-10.0,13.0,-18.0,-6.0,-30.0,-14.0,0.0
19.0,14.0,-210.0,15.0,-1.0,19.0,-41.0,-10.0,-39.0,-10.0,0.0
20.0,12.0,-123.0,16.0,-3.0,21.0,-50.0,-17.0,-27.0,-15.0,0.0
6.0,16.0,-1.0,9.0,-3.0,11.0,-29.0,-17.0,-13.0,-17.0,0.0
-18.0,-1.0,90.0,18.0,4.0,2.0,-13.0,-13.0,-23.0,-10.0,0.0
-12.0,-4.0,171.0,12.0,7.0,6.0,-34.0,-3.0,-26.0,-3.0,0.0
-7.0,-9.0,243.0,-3.0,11.0,16.0,-26.0,-9.0,-30.0,-11.0,0.0
15.0,-33.0,285.0,-8.0,10.0,7.0,-9.0,-14.0,-35.0,0.0,0.0
34.0,-33.0,276.0,-7.0,1.0,1.0,-19.0,-7.0,-34.0,12.0,0.0
17.0,-27.0,224.0,-12.0,-17.0,11.0,-1.0,-8.0,-31.0,2.0,0.0
-18.0,-31.0,110.0,-3.0,-19.0,19.0,-16.0,-24.0,-33.0,-7.0,0.0
-42.0,-29.0,-3.0,0.0,-11.0,15.0,-39.0,-32.0,-18.0,-4.0,0.0
-32.0,-10.0,-108.0,-3.0,0.0,11.0,-15.0,-30.0,18.0,6.0,0.0
-24.0,-10.0,-245.0,3.0,10.0,13.0,6.0,-21.0,19.0,15.0,0.0
-15.0,-2.0,-306.0,1.0,14.0,17.0,14.0,-14.0,17.0,25.0,0.0
3.0,19.0,-283.0,-7.0,7.0,14.0,7.0,-13.0,14.0,32.0,0.0
20.0,19.0,-248.0,-13.0,6.0,10.0,14.0,-24.0,2.0,27.0,0.0
24.0,27.0,-198.0,-10.0,7.0,8.0,14.0,-24.0,-1.0,19.0,0.0
22.0,33.0,-136.0,-18.0,14.0,-3.0,9.0,-10.0,0.0,10.0,0.0
0.0,24.0,-70.0,-24.0,9.0,-14.0,0.0,-6.0,-10.0,7.0,0.0
-19.0,17.0,-2.0,-32.0,0.0,-18.0,-7.0,2.0,-13.0,9.0,0.0
-33.0,-3.0,87.0,-25.0,0.0,-17.0,-19.0,-9.0,-23.0,-2.0,0.0
-41.0,-14.0,193.0,-18.0,-4.0,-19.0,12.0,-16.0,-43.0,-8.0,0.0
-34.0,-7.0,271.0,-17.0,-5.0,-15.0,23.0,-18.0,-46.0,-4.0,0.0
-14.0,-2.0,298.0,-12.0,-2.0,-21.0,23.0,-13.0,-16.0,4.0,0.0
-4.0,-2.0,250.0,-5.0,2.0,-28.0,22.0,1.0,11.0,12.0,0.0
-5.0,10.0,150.0,-8.0,0.0,-21.0,11.0,14.0,16.0,14.0,0.0
17.0,8.0,72.0,-6.0,9.0,-22.0,20.0,3.0,18.0,8.0,0.0
25.0,15.0,-33.0,0.0,14.0,-14.0,20.0,1.0,-2.0,15.0,0.0
14.0,29.0,-119.0,-5.0,18.0,-4.0,8.0,-9.0,-16.0,4.0,0.0
15.0,28.0,-197.0,2.0,13.0,-11.0,-2.0,-13.0,-4.0,2.0,0.0
3.0,24.0,-262.0,12.0,3.0,-14.0,-15.0,-10.0,-2.0,1.0,0.0
2.0,27.0,-262.0,11.0,0.0,-20.0,-22.0,-19.0,4.0,7.0,0.0
13.0,31.0,-224.0,0.0,-8.0,-19.0,-29.0,-28.0,2.0,10.0,0.0
32.0,30.0,-166.0,0.0,-10.0,-28.0,-46.0,-27.0,5.0,17.0,0.0
45.0,28.0,-87.0,6.0,-12.0,-35.0,-38.0,-24.0,0.0,28.0,0.0
47.0,23.0,-15.0,-3.0,-1.0,-29.0,-11.0,-27.0,-8.0,25.0,0.0
31.0,29.0,53.0,-3.0,11.0,-18.0,6.0,-21.0,-15.0,16.0,0.0
9.0,33.0,132.0,9.0,18.0,-16.0,17.0,-14.0,-36.0,1.0,0.0
11.0,35.0,215.0,10.0,12.0,-13.0,-8.0,-7.0,-36.0,-9.0,0.0
12.0,25.0,244.0,12.0,14.0,-18.0,-16.0,-5.0,-31.0,-14.0,0.0
0.0,2.0,256.0,31.0,22.0,-11.0,-4.0,-1.0,-15.0,-32.0,0.0
-26.0,-1.0,233.0,37.0,30.0,-5.0,22.0,-10.0,-7.0,-49.0,0.0
-28.0,7.0,122.0,25.0,31.0,0.0,-29.0,-18.0,4.0,-53.0,0.0
-31.0,5.0,12.0,19.0,40.0,9.0,-42.0,-14.0,7.0,-55.0,0.0
-29.0,-3.0,-80.0,15.0,42.0,1.0,-30.0,-16.0,10.0,-57.0,0.0
-16.0,-1.0,-166.0,15.0,35.0,0.0,-31.0,-17.0,5.0,-55.0,0.0
-8.0,-11.0,-266.0,18.0,36.0,7.0,-35.0,-11.0,-9.0,-50.0,0.0
-16.0,-24.0,-279.0,6.0,30.0,8.0,-29.0,-9.0,-17.0,-44.0,0.0
-14.0,-37.0,-263.0,14.0,21.0,-2.0,-47.0,-13.0,-21.0,-22.0,0.0
-15.0,-56.0,-227.0,10.0,5.0,-1.0,-71.0,-12.0,-16.0,1.0,0.0
-13.0,-47.0,-148.0,1.0,2.0,-2.0,-64.0,-8.0,8.0,18.0,0.0
-33.0,-49.0,-64.0,3.0,10.0,-9.0,-42.0,-7.0,37.0,21.0,0.0
-25.0,-44.0,26.0,10.0,18.0,-2.0,-28.0,-2.0,49.0,26.0,0.0
-15.0,-39.0,130.0,5.0,17.0,4.0,-38.0,1.0,55.0,21.0,0.0
3.0,-25.0,241.0,3.0,7.0,-4.0,-56.0,-7.0,54.0,32.0,0.0
23.0,-12.0,318.0,0.0,-7.0,-6.0,-42.0,-10.0,44.0,49.0,0.0
24.0,2.0,344.0,-10.0,-15.0,-3.0,-26.0,-3.0,33.0,40.0,0.0
0.0,11.0,323.0,2.0,-6.0,-4.0,-21.0,-6.0,5.0,20.0,0.0
-22.0,8.0,246.0,0.0,4.0,-4.0,-25.0,-11.0,-28.0,-5.0,0.0
-34.0,9.0,127.0,-15.0,10.0,-3.0,-26.0,-3.0,-29.0,-12.0,0.0
-45.0,23.0,26.0,-13.0,12.0,3.0,-8.0,0.0,8.0,-15.0,0.0
-46.0,16.0,-60.0,11.0,11.0,6.0,3.0,4.0,17.0,-21.0,0.0
-41.0,0.0,-150.0,24.0,13.0,3.0,-14.0,9.0,5.0,-17.0,0.0
-35.0,-4.0,-263.0,4.0,7.0,2.0,-12.0,9.0,9.0,-21.0,0.0
-34.0,-9.0,-338.0,0.0,11.0,5.0,-4.0,10.0,11.0,-34.0,0.0
-37.0,1.0,-274.0,9.0,16.0,7.0,-7.0,5.0,0.0,-39.0,0.0
10.0,-1.0,-186.0,27.0,21.0,5.0,-7.0,1.0,-25.0,-24.0,0.0
46.0,8.0,-102.0,28.0,19.0,3.0,2.0,1.0,-22.0,-4.0,0.0
33.0,13.0,-8.0,20.0,13.0,0.0,4.0,6.0,-9.0,-14.0,0.0
13.0,-3.0,82.0,24.0,12.0,10.0,-7.0,0.0,-10.0,-18.0,0.0
2.0,-11.0,168.0,27.0,9.0,16.0,3.0,-11.0,-13.0,-6.0,0.0
11.0,-4.0,247.0,12.0,6.0,16.0,13.0,-11.0,-11.0,0.0,0.0
31.0,5.0,300.0,9.0,0.0,12.0,1.0,-11.0,-13.0,15.0,0.0
39.0,-2.0,319.0,16.0,-3.0,7.0,-3.0,-2.0,-19.0,24.0,0.0
14.0,-7.0,287.0,8.0,-9.0,3.0,0.0,8.0,-13.0,26.0,0.0
3.0,-17.0,194.0,-6.0,-14.0,2.0,12.0,15.0,-14.0,15.0,0.0
6.0,-25.0,76.0,-10.0,-18.0,5.0,39.0,11.0,-12.0,17.0,0.0
9.0,-14.0,-35.0,-20.0,-19.0,0.0,42.0,9.0,14.0,26.0,0.0
0.0,4.0,-111.0,-28.0,-32.0,-11.0,38.0,10.0,32.0,27.0,0.0
-1.0,17.0,-206.0,-33.0,-40.0,-13.0,40.0,4.0,35.0,19.0,0.0
-5.0,9.0,-289.0,-33.0,-45.0,-9.0,35.0,0.0,39.0,10.0,0.0
12.0,18.0,-310.0,-22.0,-50.0,-7.0,37.0,1.0,51.0,20.0,0.0
17.0,31.0,-270.0,-15.0,-28.0,-5.0,36.0,0.0,52.0,17.0,0.0
12.0,37.0,-187.0,-4.0,-19.0,7.0,21.0,11.0,42.0,14.0,0.0
22.0,30.0,-69.0,-5.0,-22.0,6.0,3.0,21.0,44.0,19.0,0.0
22.0,32.0,35.0,1.0,-13.0,12.0,0.0,16.0,15.0,10.0,0.0
27.0,35.0,144.0,4.0,2.0,10.0,-7.0,14.0,-53.0,0.0,0.0
14.0,14.0,231.0,4.0,0.0,5.0,-5.0,13.0,-69.0,-23.0,0.0
-6.0,-12.0,279.0,7.0,-8.0,5.0,-9.0,7.0,-57.0,-32.0,0.0
0.0,-21.0,330.0,-1.0,-13.0,-9.0,-28.0,-5.0,-43.0,-26.0,0.0
0.0,-7.0,341.0,-21.0,-21.0,-8.0,-31.0,0.0,-36.0,-9.0,0.0
0.0,-7.0,278.0,-27.0,-38.0,-11.0,-14.0,8.0,-14.0,2.0,0.0
-1.0,-7.0,164.0,-14.0,-38.0,-14.0,-13.0,14.0,16.0,18.0,0.0
-18.0,-9.0,49.0,-10.0,-30.0,-7.0,-17.0,4.0,29.0,29.0,0.0
-22.0,-16.0,-32.0,-16.0,-20.0,-7.0,-14.0,1.0,27.0,17.0,0.0
-22.0,-8.0,-117.0,-12.0,-21.0,-17.0,-8.0,2.0,38.0,10.0,0.0
-10.0,-6.0,-210.0,-7.0,-28.0,-22.0,-15.0,9.0,40.0,11.0,0.0
-19.0,-4.0,-232.0,1.0,-33.0,-18.0,-4.0,21.0,27.0,4.0,0.0
-19.0,3.0,-215.0,0.0,-32.0,-15.0,18.0,7.0,3.0,-3.0,0.0
-15.0,12.0,-151.0,3.0,-19.0,-13.0,-7.0,0.0,-25.0,-4.0,0.0
-18.0,16.0,-86.0,1.0,-18.0,-20.0,-13.0,-2.0,-40.0,-3.0,0.0
-12.0,34.0,25.0,5.0,-19.0,-27.0,-8.0,0.0,-38.0,-4.0,0.0
-9.0,29.0,127.0,-3.0,-21.0,-13.0,-16.0,0.0,-32.0,-5.0,0.0
-10.0,22.0,193.0,-29.0,-20.0,-2.0,-20.0,-6.0,-23.0,0.0,0.0
-7.0,30.0,274.0,-35.0,-16.0,-11.0,-12.0,-18.0,-9.0,5.0,0.0
0.0,29.0,332.0,-14.0,-25.0,-18.0,-8.0,-21.0,2.0,5.0,0.0
-6.0,29.0,352.0,-15.0,-27.0,-14.0,-14.0,-24.0,7.0,3.0,0.0
-8.0,31.0,325.0,-21.0,-19.0,-9.0,9.0,-32.0,5.0,7.0,0.0
-8.0,33.0,250.0,-6.0,-2.0,0.0,35.0,-30.0,-11.0,8.0,0.0
-7.0,21.0,155.0,-1.0,-3.0,0.0,14.0,-17.0,-25.0,11.0,0.0
-10.0,19.0,40.0,11.0,0.0,-2.0,0.0,-23.0,-31.0,5.0,0.0
-13.0,20.0,-68.0,14.0,2.0,1.0,-7.0,-29.0,-30.0,-9.0,0.0
-8.0,27.0,-133.0,20.0,3.0,3.0,-5.0,-27.0,-30.0,-14.0,0.0
-1.0,53.0,-178.0,27.0,-3.0,-1.0,9.0,-37.0,-23.0,-7.0,0.0
-4.0,57.0,-181.0,38.0,-10.0,-3.0,12.0,-30.0,-32.0,-11.0,0.0
-7.0,63.0,-146.0,39.0,-3.0,-1.0,34.0,-31.0,-40.0,-17.0,0.0
-8.0,54.0,-97.0,10.0,0.0,6.0,46.0,-27.0,-42.0,-27.0,0.0
-20.0,28.0,-30.0,-37.0,-1.0,2.0,37.0,-20.0,-50.0,-34.0,0.0
-43.0,-11.0,51.0,-55.0,1.0,-4.0,41.0,-14.0,-45.0,-41.0,0.0
-72.0,-49.0,129.0,-43.0,2.0,4.0,35.0,-14.0,-23.0,-55.0,0.0
-94.0,-61.0,219.0,-24.0,11.0,17.0,2.0,-20.0,-21.0,-51.0,0.0
-80.0,-66.0,284.0,-7.0,5.0,12.0,7.0,-11.0,-21.0,-34.0,0.0
-63.0,-60.0,326.0,5.0,0.0,11.0,12.0,-10.0,-15.0,-11.0,0.0
-44.0,-46.0,348.0,4.0,-1.0,0.0,2.0,-14.0,2.0,7.0,0.0
-30.0,-31.0,322.0,12.0,-13.0,0.0,2.0,-11.0,27.0,29.0,0.0
-14.0,0.0,233.0,7.0,-13.0,3.0,-4.0,-13.0,47.0,59.0,0.0
0.0,17.0,129.0,5.0,-16.0,1.0,-33.0,-6.0,50.0,64.0,0.0
23.0,17.0,33.0,3.0,-18.0,-9.0,-23.0,-14.0,35.0,48.0,0.0
22.0,14.0,-54.0,-11.0,-17.0,-4.0,5.0,-15.0,18.0,25.0,0.0
9.0,11.0,-142.0,-16.0,-25.0,8.0,12.0,-11.0,-14.0,10.0,0.0
0.0,2.0,-232.0,5.0,-25.0,7.0,19.0,-10.0,-52.0,2.0,0.0
8.0,-4.0,-204.0,17.0,-13.0,11.0,20.0,-15.0,-73.0,-5.0,0.0
5.0,-13.0,-136.0,13.0,4.0,6.0,22.0,-21.0,-52.0,-14.0,0.0
-5.0,-21.0,-86.0,11.0,3.0,4.0,23.0,-20.0,-20.0,-11.0,0.0
-1.0,-39.0,4.0,13.0,0.0,12.0,36.0,-10.0,-14.0,-14.0,0.0
-2.0,-34.0,98.0,3.0,9.0,17.0,42.0,-14.0,-18.0,-13.0,0.0
-6.0,-20.0,194.0,1.0,6.0,11.0,36.0,-18.0,-16.0,-10.0,0.0
-7.0,-25.0,261.0,14.0,0.0,5.0,22.0,-12.0,-10.0,-28.0,0.0
-3.0,-7.0,313.0,14.0,4.0,-5.0,6.0,-15.0,-12.0,-37.0,0.0
-7.0,-9.0,347.0,9.0,-3.0,-11.0,-3.0,-17.0,-26.0,-37.0,0.0
-32.0,-17.0,318.0,0.0,-1.0,-14.0,9.0,-14.0,-15.0,-45.0,0.0
-40.0,-29.0,253.0,-15.0,-10.0,-18.0,0.0,-10.0,-39.0,-54.0,0.0
-10.0,-43.0,155.0,-27.0,-15.0,-24.0,-2.0,-15.0,-26.0,-31.0,0.0
7.0,-48.0,46.0,-35.0,-16.0,-30.0,-28.0,-13.0,-10.0,3.0,0.0
18.0,-39.0,-40.0,-31.0,-19.0,-39.0,-56.0,-17.0,4.0,7.0,0.0
37.0,-30.0,-108.0,-37.0,-22.0,-51.0,-50.0,-29.0,29.0,10.0,0.0
30.0,-17.0,-173.0,-34.0,-23.0,-41.0,-53.0,-31.0,48.0,32.0,0.0
33.0,-14.0,-206.0,-31.0,-8.0,-29.0,-58.0,-29.0,66.0,39.0,0.0
40.0,-3.0,-188.0,-28.0,1.0,-21.0,-57.0,-22.0,76.0,36.0,0.0
44.0,14.0,-138.0,-13.0,21.0,-14.0,-55.0,-9.0,80.0,41.0,0.0
35.0,11.0,-64.0,-6.0,38.0,-3.0,-30.0,-9.0,53.0,34.0,0.0
46.0,21.0,27.0,6.0,36.0,10.0,-12.0,-11.0,7.0,19.0,0.0
48.0,24.0,101.0,5.0,29.0,10.0,-12.0,-12.0,-9.0,4.0,0.0
52.0,30.0,181.0,-4.0,24.0,2.0,-4.0,-17.0,-32.0,-10.0,0.0
54.0,45.0,279.0,1.0,13.0,-7.0,4.0,-20.0,-58.0,-11.0,0.0
42.0,41.0,290.0,3.0,14.0,-3.0,2.0,-23.0,-71.0,-13.0,0.0
27.0,31.0,314.0,18.0,29.0,2.0,-8.0,-32.0,-69.0,-31.0,0.0
17.0,23.0,271.0,32.0,36.0,13.0,0.0,-27.0,-61.0,-49.0,0.0
-14.0,7.0,212.0,41.0,43.0,13.0,14.0,-20.0,-66.0,-65.0,0.0
-24.0,-8.0,118.0,37.0,49.0,12.0,9.0,-19.0,-70.0,-72.0,0.0
-19.0,-12.0,-7.0,24.0,52.0,17.0,7.0,-28.0,-66.0,-68.0,0.0
-21.0,-20.0,-110.0,25.0,38.0,9.0,17.0,-25.0,-42.0,-64.0,0.0
-24.0,-22.0,-230.0,8.0,7.0,0.0,42.0,-16.0,-18.0,-54.0,0.0
-12.0,-18.0,-308.0,-5.0,-23.0,-6.0,47.0,-18.0,-4.0,-41.0,0.0
4.0,-12.0,-267.0,-13.0,-37.0,-27.0,42.0,-24.0,34.0,-22.0,0.0
5.0,5.0,-200.0,-14.0,-48.0,-36.0,25.0,-21.0,28.0,-2.0,0.0
4.0,12.0,-127.0,-26.0,-69.0,-41.0,39.0,-10.0,25.0,23.0,0.0
12.0,15.0,-101.0,-31.0,-77.0,-52.0,34.0,-6.0,41.0,42.0,0.0
1.0,4.0,-41.0,-34.0,-59.0,-43.0,29.0,-9.0,34.0,30.0,0.0
-10.0,-1.0,49.0,-14.0,-41.0,-29.0,19.0,-3.0,46.0,14.0,0.0
-6.0,-4.0,139.0,-11.0,-33.0,-25.0,13.0,0.0,60.0,30.0,0.0
1.0,0.0,269.0,-34.0,-35.0,-28.0,10.0,9.0,52.0,43.0,0.0
4.0,-10.0,345.0,-33.0,-34.0,-35.0,13.0,12.0,38.0,45.0,0.0
8.0,-22.0,348.0,-31.0,-17.0,-22.0,12.0,16.0,28.0,40.0,0.0
3.0,-16.0,297.0,-26.0,3.0,-2.0,25.0,12.0,19.0,35.0,0.0
-10.0,-7.0,188.0,-22.0,-1.0,0.0,35.0,14.0,14.0,20.0,0.0
-11.0,-4.0,63.0,-28.0,-7.0,-4.0,54.0,12.0,10.0,12.0,0.0
5.0,8.0,-27.0,-8.0,-13.0,-3.0,54.0,9.0,10.0,20.0,0.0
4.0,3.0,-131.0,9.0,-9.0,-1.0,70.0,17.0,16.0,9.0,0.0
0.0,-10.0,-241.0,13.0,0.0,-3.0,39.0,17.0,26.0,0.0,0.0
-5.0,-15.0,-223.0,4.0,2.0,-9.0,10.0,9.0,13.0,1.0,0.0
-10.0,-15.0,-191.0,-1.0,2.0,-9.0,26.0,4.0,6.0,2.0,0.0
-7.0,-4.0,-184.0,3.0,4.0,-10.0,44.0,-15.0,-2.0,-6.0,0.0
-9.0,10.0,-96.0,1.0,16.0,1.0,12.0,-20.0,-16.0,-18.0,0.0
-11.0,2.0,44.0,3.0,9.0,3.0,-19.0,-16.0,-18.0,-12.0,0.0
-17.0,-6.0,129.0,6.0,0.0,-7.0,-1.0,-20.0,-10.0,4.0,0.0
-28.0,-10.0,189.0,-7.0,0.0,-20.0,-1.0,-20.0,-12.0,-1.0,0.0
-24.0,-7.0,274.0,-29.0,-2.0,-18.0,-21.0,-14.0,-20.0,-8.0,0.0
-23.0,-5.0,341.0,-37.0,-3.0,-5.0,-23.0,-9.0,-9.0,-9.0,0.0
-27.0,9.0,371.0,-19.0,-1.0,-1.0,-31.0,-9.0,5.0,-18.0,0.0
-25.0,-3.0,351.0,-9.0,12.0,4.0,-12.0,2.0,-5.0,-30.0,0.0
-18.0,-13.0,276.0,-12.0,19.0,13.0,-13.0,-3.0,-6.0,-40.0,0.0
-21.0,-8.0,161.0,1.0,24.0,16.0,-17.0,-9.0,-8.0,-46.0,0.0
-27.0,-9.0,47.0,13.0,32.0,7.0,-13.0,-8.0,-4.0,-55.0,0.0
-23.0,-10.0,-52.0,3.0,27.0,0.0,-34.0,-12.0,-7.0,-52.0,0.0
-9.0,-14.0,-118.0,0.0,14.0,2.0,-27.0,-6.0,-22.0,-28.0,0.0
1.0,-13.0,-166.0,-14.0,5.0,3.0,-25.0,0.0,-28.0,-3.0,0.0
0.0,-14.0,-196.0,-8.0,3.0,6.0,-35.0,3.0,-29.0,-5.0,0.0
-8.0,-30.0,-181.0,-4.0,18.0,11.0,-22.0,-6.0,-43.0,-28.0,0.0
-6.0,-25.0,-119.0,-11.0,34.0,14.0,-8.0,-16.0,-53.0,-45.0,0.0
7.0,-16.0,-29.0,-6.0,32.0,11.0,-9.0,-10.0,-53.0,-37.0,0.0
3.0,-7.0,55.0,-11.0,24.0,-4.0,10.0,-6.0,-51.0,-38.0,0.0
0.0,-3.0,137.0,-8.0,18.0,-9.0,20.0,-11.0,-62.0,-43.0,0.0
-15.0,-6.0,231.0,-3.0,9.0,-8.0,24.0,-17.0,-63.0,-49.0,0.0
-29.0,-4.0,248.0,-1.0,1.0,-11.0,24.0,-15.0,-52.0,-52.0,0.0
-42.0,-8.0,246.0,-7.0,-4.0,-16.0,14.0,-9.0,-37.0,-49.0,0.0
-42.0,-5.0,299.0,-21.0,-13.0,-29.0,22.0,-11.0,-14.0,-42.0,0.0
-67.0,-39.0,274.0,-23.0,-17.0,-22.0,23.0,-4.0,5.0,-33.0,0.0
-99.0,-74.0,170.0,-19.0,-15.0,-19.0,17.0,0.0,20.0,-28.0,0.0
-99.0,-56.0,71.0,-16.0,-6.0,-19.0,0.0,2.0,68.0,-3.0,0.0
-68.0,-38.0,-11.0,-14.0,-9.0,-20.0,-5.0,-6.0,69.0,18.0,0.0
-24.0,-22.0,-89.0,-2.0,-11.0,-9.0,-26.0,-9.0,66.0,41.0,0.0
37.0,1.0,-158.0,2.0,-26.0,0.0,-34.0,-5.0,88.0,77.0,0.0
46.0,0.0,-205.0,13.0,-21.0,5.0,-4.0,3.0,93.0,74.0,0.0
28.0,7.0,-199.0,14.0,-6.0,13.0,32.0,14.0,84.0,54.0,0.0
20.0,2.0,-173.0,20.0,6.0,23.0,33.0,14.0,69.0,42.0,0.0
14.0,9.0,-122.0,25.0,17.0,29.0,32.0,4.0,39.0,27.0,0.0
21.0,6.0,-29.0,19.0,22.0,23.0,35.0,11.0,15.0,10.0,0.0
17.0,20.0,69.0,14.0,15.0,24.0,30.0,5.0,-16.0,2.0,0.0
14.0,36.0,168.0,27.0,28.0,34.0,11.0,2.0,-33.0,2.0,0.0
33.0,40.0,234.0,41.0,43.0,37.0,-17.0,5.0,-49.0,-1.0,0.0
45.0,30.0,285.0,34.0,35.0,23.0,-58.0,-5.0,-43.0,18.0,0.0
36.0,35.0,353.0,28.0,26.0,21.0,-57.0,1.0,-8.0,35.0,0.0
51.0,19.0,337.0,19.0,13.0,23.0,-28.0,9.0,-9.0,34.0,0.0
39.0,-5.0,254.0,10.0,11.0,34.0,-29.0,18.0,-17.0,23.0,0.0
17.0,-2.0,128.0,0.0,12.0,31.0,-49.0,19.0,0.0,27.0,0.0
1.0,-4.0,19.0,-5.0,7.0,21.0,-42.0,18.0,10.0,39.0,0.0
0.0,7.0,-76.0,-6.0,13.0,28.0,-37.0,23.0,6.0,37.0,0.0
16.0,16.0,-154.0,-19.0,10.0,30.0,-55.0,22.0,14.0,41.0,0.0
37.0,6.0,-226.0,-28.0,14.0,29.0,-60.0,22.0,25.0,63.0,0.0
31.0,14.0,-247.0,-17.0,8.0,21.0,-40.0,19.0,42.0,78.0,0.0
19.0,12.0,-230.0,-11.0,0.0,13.0,-39.0,8.0,51.0,72.0,0.0
1.0,0.0,-202.0,-11.0,-2.0,8.0,-52.0,1.0,65.0,66.0,0.0
-17.0,-10.0,-122.0,2.0,12.0,24.0,-46.0,5.0,72.0,48.0,0.0
-14.0,-3.0,-29.0,23.0,29.0,31.0,-39.0,9.0,59.0,24.0,0.0
-1.0,7.0,48.0,30.0,26.0,31.0,-18.0,17.0,43.0,20.0,0.0
-10.0,20.0,114.0,22.0,25.0,28.0,-14.0,9.0,34.0,16.0,0.0
-33.0,24.0,187.0,7.0,22.0,17.0,-22.0,6.0,13.0,6.0,0.0
-36.0,20.0,228.0,11.0,25.0,24.0,-19.0,19.0,-5.0,-2.0,0.0
-35.0,29.0,196.0,8.0,19.0,24.0,0.0,24.0,-5.0,-15.0,0.0
-5.0,42.0,208.0,23.0,9.0,9.0,-5.0,8.0,10.0,7.0,0.0
22.0,44.0,213.0,35.0,6.0,-6.0,-21.0,0.0,47.0,31.0,0.0
-3.0,0.0,102.0,22.0,2.0,4.0,-15.0,0.0,9.0,13.0,0.0
-25.0,-23.0,-25.0,14.0,7.0,26.0,-5.0,7.0,-15.0,4.0,0.0
-31.0,-19.0,-140.0,11.0,13.0,25.0,-8.0,9.0,-7.0,1.0,0.0
-50.0,-27.0,-245.0,3.0,8.0,12.0,0.0,14.0,-16.0,0.0,0.0
-43.0,-43.0,-359.0,0.0,11.0,-1.0,33.0,6.0,-19.0,-5.0,0.0
-40.0,-43.0,-333.0,8.0,22.0,6.0,35.0,-1.0,-25.0,-8.0,0.0
-52.0,-46.0,-249.0,14.0,18.0,20.0,43.0,3.0,-26.0,-13.0,0.0
-55.0,-41.0,-183.0,22.0,10.0,16.0,32.0,0.0,-14.0,-9.0,0.0
-37.0,-32.0,-111.0,7.0,14.0,14.0,14.0,-5.0,1.0,-1.0,0.0
-37.0,-23.0,-23.0,2.0,18.0,4.0,-18.0,-1.0,10.0,0.0,0.0
-26.0,-18.0,69.0,-3.0,15.0,3.0,-14.0,2.0,5.0,0.0,0.0
-22.0,-7.0,165.0,0.0,13.0,9.0,24.0,14.0,-3.0,2.0,0.0
-13.0,-15.0,232.0,-6.0,9.0,6.0,25.0,15.0,-7.0,1.0,0.0
4.0,-7.0,257.0,1.0,-4.0,-2.0,16.0,11.0,-1.0,8.0,0.0
11.0,0.0,243.0,13.0,-15.0,1.0,15.0,18.0,12.0,12.0,0.0
-3.0,-4.0,196.0,21.0,-3.0,1.0,6.0,31.0,14.0,7.0,0.0
-2.0,-13.0,103.0,17.0,2.0,-6.0,18.0,25.0,4.0,-3.0,0.0
6.0,-1.0,1.0,15.0,0.0,-8.0,6.0,13.0,2.0,-5.0,0.0
8.0,21.0,-94.0,3.0,-9.0,-5.0,7.0,7.0,12.0,5.0,0.0
10.0,26.0,-160.0,1.0,-7.0,-8.0,0.0,1.0,14.0,12.0,0.0
14.0,30.0,-215.0,-11.0,-16.0,-18.0,-4.0,6.0,25.0,7.0,0.0
6.0,32.0,-264.0,-15.0,-24.0,-22.0,2.0,4.0,39.0,-2.0,0.0
-4.0,35.0,-274.0,0.0,-21.0,-19.0,-1.0,5.0,40.0,-3.0,0.0
-9.0,31.0,-216.0,13.0,-3.0,-20.0,4.0,0.0,45.0,3.0,0.0
-10.0,21.0,-131.0,7.0,16.0,-18.0,1.0,1.0,47.0,4.0,0.0
-14.0,18.0,-48.0,11.0,19.0,-8.0,-1.0,3.0,48.0,-4.0,0.0
-7.0,10.0,32.0,14.0,6.0,1.0,5.0,7.0,47.0,-7.0,0.0
17.0,0.0,124.0,4.0,-9.0,5.0,-5.0,11.0,20.0,4.0,0.0
22.0,0.0,206.0,-15.0,-5.0,0.0,-41.0,19.0,-10.0,6.0,0.0
15.0,-3.0,263.0,-22.0,-9.0,0.0,-33.0,18.0,-10.0,1.0,0.0
-2.0,-5.0,288.0,-3.0,-11.0,4.0,-26.0,12.0,-13.0,-7.0,0.0
-27.0,5.0,254.0,-2.0,3.0,18.0,-22.0,8.0,-14.0,-20.0,0.0
-37.0,-5.0,163.0,-15.0,9.0,10.0,-13.0,7.0,-19.0,-26.0,0.0
-15.0,2.0,47.0,-17.0,5.0,4.0,8.0,6.0,-4.0,-21.0,0.0
26.0,23.0,-56.0,-6.0,1.0,6.0,27.0,1.0,20.0,12.0,0.0
41.0,15.0,-136.0,8.0,-7.0,5.0,16.0,-7.0,13.0,14.0,0.0
34.0,16.0,-213.0,11.0,-12.0,8.0,7.0,4.0,22.0,12.0,0.0
28.0,32.0,-275.0,18.0,-7.0,-1.0,-6.0,13.0,34.0,22.0,0.0
22.0,30.0,-284.0,25.0,-1.0,-1.0,-1.0,18.0,45.0,30.0,0.0
22.0,7.0,-265.0,13.0,7.0,4.0,3.0,10.0,37.0,19.0,0.0
26.0,2.0,-227.0,0.0,5.0,6.0,-3.0,0.0,20.0,13.0,0.0
22.0,-3.0,-149.0,0.0,-9.0,11.0,8.0,-10.0,14.0,15.0,0.0
12.0,-11.0,-77.0,-4.0,-6.0,17.0,29.0,-6.0,7.0,13.0,0.0
6.0,3.0,32.0,-12.0,-1.0,18.0,39.0,-7.0,-1.0,4.0,0.0
-10.0,12.0,101.0,0.0,0.0,27.0,36.0,-9.0,0.0,1.0,0.0
-16.0,11.0,145.0,-2.0,1.0,20.0,37.0,-11.0,11.0,8.0,0.0
-14.0,11.0,210.0,-13.0,6.0,11.0,20.0,-14.0,19.0,-1.0,0.0
9.0,19.0,199.0,-2.0,6.0,-3.0,17.0,-22.0,24.0,-4.0,0.0
34.0,36.0,202.0,11.0,10.0,-14.0,8.0,-15.0,56.0,5.0,0.0
38.0,51.0,146.0,18.0,12.0,-9.0,1.0,-5.0,60.0,13.0,0.0
39.0,50.0,27.0,30.0,8.0,-3.0,-11.0,-8.0,53.0,11.0,0.0
31.0,52.0,-95.0,27.0,10.0,6.0,-18.0,-7.0,57.0,-4.0,0.0
26.0,39.0,-204.0,32.0,14.0,13.0,-9.0,-8.0,22.0,-20.0,0.0
20.0,32.0,-270.0,28.0,25.0,25.0,-2.0,3.0,-2.0,-25.0,0.0
27.0,44.0,-354.0,34.0,35.0,27.0,-3.0,11.0,-19.0,-29.0,0.0
26.0,38.0,-354.0,41.0,33.0,24.0,14.0,11.0,-16.0,-19.0,0.0
27.0,31.0,-273.0,19.0,23.0,18.0,22.0,8.0,-25.0,-19.0,0.0
23.0,23.0,-255.0,21.0,24.0,15.0,22.0,0.0,-29.0,-26.0,0.0
17.0,21.0,-207.0,23.0,23.0,18.0,1.0,-2.0,-26.0,-31.0,0.0
27.0,33.0,-44.0,27.0,20.0,19.0,-1.0,4.0,-18.0,-21.0,0.0
49.0,52.0,70.0,25.0,29.0,10.0,25.0,6.0,15.0,-14.0,0.0
45.0,36.0,139.0,26.0,24.0,12.0,44.0,2.0,-11.0,-6.0,0.0
35.0,20.0,174.0,24.0,16.0,18.0,31.0,-8.0,-37.0,-5.0,0.0
20.0,20.0,201.0,11.0,9.0,24.0,23.0,-13.0,-38.0,-15.0,0.0
14.0,16.0,197.0,6.0,5.0,20.0,9.0,0.0,-35.0,-9.0,0.0
5.0,17.0,130.0,8.0,8.0,14.0,-5.0,8.0,-24.0,1.0,0.0
-2.0,11.0,5.0,-2.0,11.0,12.0,1.0,3.0,-18.0,-10.0,0.0
-16.0,2.0,-70.0,0.0,22.0,20.0,24.0,8.0,-15.0,-22.0,0.0
-13.0,-5.0,-167.0,-1.0,26.0,26.0,38.0,12.0,-14.0,-29.0,0.0
-3.0,-1.0,-301.0,-2.0,13.0,15.0,34.0,14.0,-1.0,-22.0,0.0
-1.0,7.0,-398.0,-4.0,12.0,12.0,6.0,9.0,12.0,-18.0,0.0
9.0,8.0,-388.0,-4.0,11.0,14.0,-8.0,-3.0,13.0,-13.0,0.0
6.0,-14.0,-331.0,-15.0,2.0,16.0,-5.0,-9.0,6.0,-9.0,0.0
-27.0,-46.0,-282.0,-21.0,-1.0,22.0,2.0,-4.0,6.0,-20.0,0.0
-30.0,-37.0,-202.0,-20.0,0.0,19.0,46.0,-5.0,15.0,-13.0,0.0
-12.0,-8.0,-73.0,-21.0,10.0,22.0,64.0,4.0,39.0,12.0,0.0
0.0,9.0,30.0,-28.0,8.0,16.0,47.0,18.0,63.0,39.0,0.0
15.0,18.0,103.0,-20.0,6.0,12.0,37.0,21.0,66.0,47.0,0.0
17.0,25.0,179.0,-10.0,7.0,13.0,32.0,17.0,44.0,34.0,0.0
19.0,17.0,224.0,4.0,7.0,8.0,22.0,11.0,17.0,22.0,0.0
16.0,21.0,229.0,18.0,16.0,12.0,2.0,3.0,0.0,12.0,0.0
15.0,30.0,214.0,24.0,29.0,13.0,8.0,2.0,-27.0,10.0,0.0
0.0,36.0,128.0,26.0,24.0,31.0,7.0,3.0,-48.0,8.0,0.0
0.0,34.0,4.0,20.0,12.0,38.0,8.0,0.0,-44.0,6.0,0.0
2.0,21.0,-115.0,16.0,-6.0,38.0,1.0,-2.0,-4.0,15.0,0.0
18.0,22.0,-190.0,26.0,-1.0,34.0,7.0,7.0,0.0,27.0,0.0
32.0,27.0,-256.0,28.0,18.0,21.0,17.0,4.0,-2.0,32.0,0.0
27.0,28.0,-314.0,24.0,24.0,11.0,25.0,-2.0,-9.0,22.0,0.0
32.0,29.0,-325.0,17.0,21.0,15.0,19.0,-17.0,-20.0,14.0,0.0
25.0,10.0,-291.0,7.0,14.0,13.0,8.0,-12.0,-20.0,2.0,0.0
0.0,-10.0,-229.0,12.0,7.0,9.0,-5.0,-8.0,-19.0,-3.0,0.0
-13.0,-19.0,-145.0,10.0,0.0,18.0,-16.0,-4.0,-28.0,-3.0,0.0
-26.0,-23.0,-64.0,1.0,-2.0,9.0,-21.0,-12.0,-11.0,-8.0,0.0
-23.0,-23.0,12.0,0.0,-5.0,9.0,-37.0,-22.0,-6.0,-3.0,0.0
-24.0,-25.0,101.0,9.0,-1.0,11.0,-33.0,-23.0,-7.0,7.0,0.0
-17.0,-9.0,157.0,5.0,6.0,3.0,-22.0,-18.0,4.0,9.0,0.0
-9.0,6.0,128.0,-1.0,10.0,3.0,-22.0,-14.0,6.0,10.0,0.0
1.0,12.0,129.0,0.0,9.0,-4.0,-8.0,-10.0,19.0,8.0,0.0
10.0,16.0,104.0,6.0,7.0,-6.0,24.0,1.0,21.0,14.0,0.0
25.0,27.0,56.0,18.0,1.0,-3.0,47.0,12.0,-2.0,12.0,0.0
31.0,26.0,-29.0,15.0,-2.0,-9.0,41.0,14.0,-18.0,18.0,0.0
19.0,10.0,-139.0,0.0,2.0,-14.0,21.0,1.0,-14.0,17.0,0.0
10.0,2.0,-212.0,-5.0,1.0,-18.0,0.0,-2.0,-10.0,22.0,0.0
-5.0,-2.0,-299.0,2.0,-4.0,-20.0,-2.0,0.0,-22.0,17.0,0.0
-19.0,13.0,-340.0,5.0,-4.0,-20.0,-5.0,-9.0,-20.0,19.0,0.0
-11.0,17.0,-275.0,-4.0,-2.0,-20.0,-17.0,-15.0,-8.0,32.0,0.0
-19.0,26.0,-227.0,-12.0,-10.0,-21.0,-10.0,-15.0,25.0,37.0,0.0
-12.0,22.0,-172.0,-12.0,-11.0,-23.0,-9.0,-9.0,13.0,28.0,0.0
10.0,23.0,-129.0,-6.0,-11.0,-20.0,1.0,-1.0,4.0,34.0,0.0
17.0,26.0,-5.0,-6.0,-12.0,-4.0,0.0,7.0,0.0,27.0,0.0
6.0,19.0,118.0,-15.0,-11.0,-9.0,-9.0,3.0,11.0,21.0,0.0
-2.0,18.0,194.0,-9.0,-8.0,-15.0,-2.0,0.0,31.0,12.0,0.0
-9.0,14.0,230.0,0.0,1.0,0.0,-12.0,-7.0,24.0,-1.0,0.0
15.0,14.0,243.0,1.0,0.0,4.0,-6.0,-10.0,-1.0,11.0,0.0
53.0,22.0,235.0,0.0,0.0,-9.0,2.0,-7.0,-18.0,46.0,0.0
75.0,25.0,189.0,1.0,-4.0,-17.0,-3.0,-7.0,0.0,75.0,0.0
57.0,23.0,75.0,5.0,-3.0,-23.0,-22.0,-5.0,8.0,61.0,0.0
26.0,27.0,-45.0,-8.0,-8.0,-23.0,-21.0,4.0,0.0,44.0,0.0
0.0,8.0,-136.0,-10.0,-15.0,-17.0,15.0,9.0,-11.0,23.0,0.0
-17.0,6.0,-225.0,-5.0,-9.0,-2.0,41.0,10.0,-28.0,2.0,0.0
-28.0,3.0,-290.0,-4.0,3.0,-3.0,41.0,3.0,-43.0,-14.0,0.0
-39.0,-8.0,-324.0,17.0,-2.0,-9.0,27.0,-12.0,-34.0,-8.0,0.0
-27.0,-13.0,-314.0,25.0,-7.0,-1.0,32.0,-8.0,-6.0,10.0,0.0
-13.0,-17.0,-239.0,16.0,-2.0,-4.0,24.0,5.0,24.0,26.0,0.0
-15.0,-41.0,-129.0,5.0,3.0,-7.0,16.0,3.0,35.0,26.0,0.0
-10.0,-49.0,-32.0,-3.0,0.0,-9.0,18.0,1.0,56.0,31.0,0.0
-2.0,-29.0,43.0,-14.0,-11.0,-16.0,17.0,8.0,66.0,37.0,0.0
5.0,-10.0,113.0,-19.0,-16.0,-23.0,-11.0,3.0,47.0,42.0,0.0
17.0,1.0,212.0,-2.0,-6.0,-17.0,-33.0,15.0,22.0,31.0,0.0
17.0,9.0,251.0,13.0,-5.0,-1.0,-6.0,17.0,-2.0,-2.0,0.0
14.0,29.0,272.0,28.0,-2.0,7.0,-15.0,6.0,0.0,-18.0,0.0
27.0,42.0,239.0,30.0,15.0,9.0,-21.0,2.0,-5.0,-23.0,0.0
32.0,27.0,138.0,35.0,26.0,10.0,-19.0,-3.0,-25.0,-26.0,0.0
28.0,9.0,-20.0,37.0,27.0,4.0,-18.0,-5.0,-34.0,-23.0,0.0
26.0,8.0,-127.0,36.0,25.0,0.0,-16.0,-6.0,-31.0,-26.0,0.0
15.0,6.0,-164.0,18.0,19.0,-5.0,-18.0,-5.0,-41.0,-34.0,0.0
24.0,4.0,-230.0,17.0,5.0,-7.0,-5.0,-7.0,-34.0,-24.0,0.0
22.0,12.0,-259.0,16.0,-4.0,-12.0,-10.0,-17.0,-18.0,-21.0,0.0
17.0,8.0,-257.0,6.0,-9.0,-17.0,-13.0,-18.0,0.0,-16.0,0.0
18.0,-17.0,-228.0,0.0,-12.0,-15.0,-1.0,-12.0,-1.0,0.0,0.0
14.0,-23.0,-196.0,-7.0,-13.0,-10.0,5.0,-14.0,6.0,11.0,0.0
6.0,-10.0,-136.0,-24.0,-27.0,0.0,4.0,-9.0,23.0,-2.0,0.0
-9.0,-11.0,-70.0,-23.0,-34.0,-4.0,-5.0,-10.0,19.0,-24.0,0.0
-13.0,-24.0,24.0,-6.0,-25.0,-15.0,-8.0,-16.0,3.0,-28.0,0.0
-26.0,-30.0,128.0,-1.0,-21.0,-10.0,-5.0,-10.0,0.0,-19.0,0.0
-42.0,-38.0,200.0,-9.0,-25.0,-13.0,5.0,-8.0,-4.0,-20.0,0.0
-38.0,-47.0,246.0,-16.0,-21.0,-19.0,8.0,3.0,3.0,-4.0,0.0
-29.0,-51.0,246.0,-15.0,-16.0,-10.0,4.0,-1.0,-4.0,22.0,0.0
-28.0,-47.0,184.0,-33.0,-23.0,-10.0,-4.0,-8.0,2.0,38.0,0.0
-34.0,-54.0,68.0,-36.0,-25.0,-11.0,-7.0,2.0,12.0,39.0,0.0
-42.0,-48.0,-38.0,-33.0,-17.0,-15.0,-23.0,7.0,12.0,28.0,0.0
-30.0,-25.0,-131.0,-30.0,-9.0,-14.0,-2.0,15.0,13.0,28.0,0.0
-6.0,-8.0,-243.0,-21.0,-8.0,-15.0,32.0,19.0,34.0,24.0,0.0
27.0,-6.0,-269.0,-9.0,-3.0,-11.0,50.0,22.0,49.0,25.0,0.0
38.0,20.0,-269.0,-1.0,-4.0,-6.0,53.0,17.0,32.0,21.0,0.0
39.0,50.0,-272.0,4.0,-8.0,-4.0,55.0,5.0,14.0,13.0,0.0
30.0,28.0,-234.0,8.0,-5.0,-3.0,57.0,3.0,-16.0,6.0,0.0
15.0,19.0,-150.0,12.0,0.0,-3.0,62.0,13.0,-14.0,6.0,0.0
1.0,13.0,-72.0,3.0,4.0,0.0,56.0,0.0,-22.0,-1.0,0.0
11.0,2.0,18.0,6.0,3.0,6.0,35.0,-7.0,-29.0,-26.0,0.0
22.0,-13.0,125.0,14.0,4.0,11.0,17.0,-5.0,-32.0,-37.0,0.0
22.0,-20.0,199.0,9.0,6.0,6.0,19.0,-7.0,-36.0,-40.0,0.0
10.0,-19.0,225.0,5.0,6.0,5.0,14.0,-3.0,-34.0,-31.0,0.0
22.0,-14.0,240.0,-9.0,4.0,3.0,5.0,1.0,-44.0,-35.0,0.0
31.0,0.0,248.0,-17.0,0.0,-5.0,0.0,6.0,-47.0,-30.0,0.0
21.0,16.0,161.0,-19.0,7.0,-19.0,-19.0,4.0,-38.0,-13.0,0.0
18.0,19.0,37.0,-28.0,14.0,-22.0,-43.0,9.0,-25.0,-15.0,0.0
10.0,12.0,-73.0,-40.0,11.0,-30.0,-40.0,4.0,-11.0,-17.0,0.0
-13.0,13.0,-172.0,-28.0,-1.0,-42.0,-32.0,5.0,3.0,-17.0,0.0
-36.0,-3.0,-300.0,-23.0,-1.0,-36.0,-27.0,4.0,8.0,-18.0,0.0
-32.0,-22.0,-392.0,-31.0,-1.0,-31.0,-18.0,-5.0,7.0,-22.0,0.0
-20.0,-30.0,-374.0,-23.0,0.0,-23.0,-15.0,-11.0,0.0,-34.0,0.0
-24.0,-29.0,-278.0,-25.0,12.0,-16.0,-7.0,-11.0,-2.0,-26.0,0.0
-32.0,-13.0,-181.0,-20.0,23.0,-2.0,-8.0,-8.0,12.0,-25.0,0.0
-40.0,1.0,-91.0,-9.0,30.0,4.0,-11.0,-8.0,28.0,-26.0,0.0
-29.0,10.0,3.0,-5.0,22.0,9.0,2.0,-3.0,23.0,-36.0,0.0
-26.0,5.0,101.0,3.0,15.0,14.0,34.0,1.0,21.0,-39.0,0.0
-22.0,11.0,189.0,8.0,18.0,3.0,38.0,-5.0,3.0,-37.0,0.0
-21.0,23.0,270.0,3.0,27.0,3.0,29.0,2.0,-2.0,-37.0,0.0
-16.0,20.0,288.0,7.0,23.0,17.0,18.0,-5.0,-18.0,-41.0,0.0
-19.0,0.0,238.0,21.0,26.0,19.0,24.0,-16.0,-54.0,-52.0,0.0
-29.0,-14.0,201.0,27.0,21.0,23.0,20.0,-16.0,-46.0,-46.0,0.0
2.0,-21.0,120.0,21.0,11.0,19.0,14.0,-20.0,-21.0,-8.0,0.0
34.0,-28.0,18.0,13.0,12.0,9.0,23.0,-19.0,4.0,15.0,0.0
34.0,-31.0,-71.0,0.0,15.0,3.0,17.0,-12.0,17.0,15.0,0.0
44.0,-15.0,-151.0,-10.0,7.0,-5.0,16.0,2.0,45.0,16.0,0.0
44.0,5.0,-200.0,1.0,-14.0,-18.0,22.0,18.0,69.0,30.0,0.0
38.0,6.0,-238.0,8.0,-21.0,-23.0,13.0,18.0,33.0,25.0,0.0
35.0,16.0,-238.0,3.0,-14.0,-26.0,-3.0,16.0,21.0,16.0,0.0
32.0,28.0,-214.0,12.0,-10.0,-19.0,-23.0,19.0,24.0,10.0,0.0
27.0,16.0,-159.0,16.0,5.0,-6.0,-26.0,9.0,8.0,6.0,0.0
19.0,4.0,-57.0,10.0,12.0,-9.0,-26.0,11.0,-12.0,6.0,0.0
6.0,4.0,48.0,1.0,15.0,-6.0,-40.0,15.0,-1.0,10.0,0.0
6.0,8.0,143.0,11.0,17.0,-5.0,-36.0,14.0,15.0,34.0,0.0
18.0,16.0,202.0,32.0,15.0,0.0,-8.0,15.0,16.0,38.0,0.0
21.0,29.0,245.0,33.0,19.0,14.0,-14.0,19.0,15.0,40.0,0.0
27.0,41.0,236.0,18.0,19.0,22.0,-31.0,20.0,22.0,37.0,0.0
28.0,51.0,188.0,22.0,24.0,21.0,-42.0,17.0,8.0,35.0,0.0
37.0,52.0,161.0,28.0,25.0,18.0,-38.0,8.0,4.0,25.0,0.0
39.0,47.0,82.0,26.0,27.0,17.0,-36.0,9.0,-7.0,15.0,0.0
31.0,48.0,-27.0,14.0,9.0,19.0,-38.0,9.0,-4.0,15.0,0.0
29.0,55.0,-150.0,8.0,-1.0,24.0,-20.0,1.0,7.0,7.0,0.0
37.0,47.0,-214.0,15.0,-10.0,26.0,-3.0,-1.0,-5.0,-1.0,0.0
29.0,40.0,-216.0,18.0,3.0,21.0,-1.0,1.0,-18.0,-4.0,0.0
12.0,23.0,-249.0,15.0,3.0,29.0,16.0,3.0,-28.0,-13.0,0.0
1.0,6.0,-269.0,3.0,-6.0,17.0,22.0,10.0,-27.0,-23.0,0.0
1.0,-3.0,-201.0,-1.0,-11.0,13.0,23.0,8.0,-22.0,-41.0,0.0
0.0,1.0,-86.0,3.0,2.0,26.0,18.0,-13.0,-28.0,-51.0,0.0
-24.0,-6.0,3.0,5.0,11.0,38.0,4.0,-10.0,-32.0,-48.0,0.0
-29.0,-32.0,90.0,5.0,9.0,33.0,-21.0,-12.0,-34.0,-35.0,0.0
-23.0,-33.0,147.0,5.0,13.0,42.0,-15.0,-7.0,-12.0,-21.0,0.0
-35.0,-24.0,180.0,19.0,8.0,47.0,1.0,1.0,-11.0,-9.0,0.0
-44.0,-17.0,272.0,23.0,-7.0,31.0,1.0,7.0,-3.0,-25.0,0.0
-30.0,-18.0,302.0,10.0,-14.0,18.0,-6.0,4.0,12.0,-35.0,0.0
-9.0,-12.0,270.0,-4.0,-28.0,12.0,-25.0,2.0,32.0,-23.0,0.0
13.0,-13.0,180.0,-4.0,-39.0,11.0,-26.0,16.0,42.0,-8.0,0.0
32.0,-26.0,67.0,-23.0,-39.0,-7.0,-27.0,9.0,39.0,2.0,0.0
31.0,-24.0,-30.0,-30.0,-30.0,-13.0,-25.0,6.0,43.0,6.0,0.0
23.0,-24.0,-102.0,-39.0,-35.0,-13.0,-25.0,3.0,44.0,18.0,0.0
27.0,-29.0,-163.0,-35.0,-25.0,-9.0,-18.0,2.0,24.0,35.0,0.0
26.0,-16.0,-195.0,-32.0,-10.0,-7.0,-11.0,8.0,19.0,39.0,0.0
19.0,-8.0,-207.0,-24.0,-10.0,-4.0,-19.0,22.0,21.0,39.0,0.0
13.0,-14.0,-192.0,-14.0,-23.0,-7.0,-5.0,21.0,17.0,43.0,0.0
5.0,-4.0,-130.0,-4.0,-15.0,0.0,22.0,21.0,22.0,50.0,0.0
6.0,-13.0,-18.0,8.0,-6.0,2.0,45.0,24.0,20.0,48.0,0.0
-2.0,-16.0,77.0,10.0,-1.0,-5.0,39.0,27.0,31.0,45.0,0.0
1.0,-7.0,156.0,0.0,-8.0,-1.0,21.0,23.0,40.0,38.0,0.0
3.0,-15.0,262.0,4.0,-18.0,-1.0,29.0,19.0,42.0,32.0,0.0
-1.0,-28.0,324.0,10.0,-12.0,-2.0,11.0,24.0,19.0,27.0,0.0
-13.0,-28.0,345.0,3.0,-11.0,6.0,16.0,23.0,5.0,28.0,0.0
-7.0,-24.0,349.0,7.0,-1.0,18.0,21.0,17.0,5.0,22.0,0.0
-1.0,-21.0,285.0,-7.0,6.0,22.0,-7.0,11.0,0.0,17.0,0.0
8.0,-13.0,156.0,-7.0,23.0,14.0,-1.0,5.0,-1.0,25.0,0.0
18.0,-13.0,41.0,5.0,17.0,16.0,32.0,12.0,-7.0,30.0,0.0
16.0,-17.0,-35.0,3.0,8.0,0.0,32.0,16.0,6.0,23.0,0.0
9.0,-15.0,-129.0,3.0,15.0,0.0,9.0,7.0,-2.0,11.0,0.0
-4.0,-14.0,-252.0,1.0,15.0,3.0,7.0,8.0,-16.0,5.0,0.0
-13.0,-7.0,-239.0,6.0,18.0,1.0,22.0,11.0,-16.0,-2.0,0.0
-15.0,4.0,-199.0,9.0,22.0,-6.0,29.0,5.0,-14.0,-16.0,0.0
-23.0,-1.0,-152.0,10.0,23.0,5.0,15.0,1.0,-13.0,-15.0,0.0
-33.0,-4.0,-69.0,12.0,23.0,11.0,21.0,7.0,-14.0,-28.0,0.0
-44.0,0.0,9.0,11.0,25.0,14.0,23.0,1.0,-16.0,-38.0,0.0
-47.0,3.0,85.0,19.0,28.0,13.0,10.0,-1.0,-28.0,-36.0,0.0
-45.0,1.0,171.0,17.0,31.0,9.0,14.0,-14.0,-27.0,-29.0,0.0
-42.0,4.0,263.0,8.0,20.0,-4.0,22.0,-21.0,-31.0,-36.0,0.0
-31.0,14.0,322.0,14.0,19.0,0.0,21.0,-25.0,-35.0,-50.0,0.0
-34.0,4.0,333.0,19.0,32.0,-1.0,16.0,-25.0,-32.0,-49.0,0.0
-45.0,4.0,305.0,19.0,29.0,-6.0,9.0,-29.0,-22.0,-38.0,0.0
-38.0,1.0,228.0,14.0,21.0,0.0,2.0,-16.0,-10.0,-24.0,0.0
-19.0,-10.0,107.0,7.0,10.0,9.0,2.0,-13.0,-14.0,-7.0,0.0
0.0,-25.0,5.0,5.0,5.0,10.0,12.0,-17.0,-18.0,0.0,0.0
4.0,-35.0,-77.0,10.0,5.0,11.0,26.0,-10.0,-22.0,-5.0,0.0
0.0,-29.0,-148.0,17.0,20.0,13.0,32.0,-14.0,-29.0,-6.0,0.0
-1.0,-5.0,-219.0,10.0,14.0,11.0,25.0,-2.0,-25.0,-16.0,0.0
10.0,7.0,-294.0,0.0,-1.0,3.0,16.0,1.0,-6.0,-20.0,0.0
19.0,29.0,-245.0,-1.0,-1.0,0.0,-6.0,-12.0,2.0,-21.0,0.0
28.0,58.0,-143.0,1.0,2.0,0.0,-21.0,-14.0,-16.0,-32.0,0.0
13.0,77.0,-71.0,-1.0,5.0,0.0,-33.0,-15.0,-16.0,-18.0,0.0
9.0,84.0,33.0,0.0,7.0,-3.0,-25.0,-21.0,3.0,-2.0,0.0
40.0,97.0,127.0,3.0,12.0,-12.0,-6.0,-30.0,39.0,2.0,0.0
66.0,86.0,218.0,11.0,3.0,-15.0,1.0,-26.0,46.0,7.0,0.0
57.0,37.0,303.0,15.0,13.0,-7.0,0.0,-18.0,47.0,1.0,0.0
41.0,3.0,339.0,19.0,19.0,11.0,-6.0,-8.0,15.0,1.0,0.0
27.0,-3.0,312.0,19.0,12.0,14.0,10.0,-7.0,-8.0,0.0,0.0
10.0,-9.0,249.0,9.0,9.0,22.0,8.0,0.0,-13.0,3.0,0.0
-19.0,-43.0,131.0,-2.0,7.0,14.0,-7.0,5.0,-12.0,3.0,0.0
-27.0,-80.0,28.0,0.0,0.0,17.0,-18.0,15.0,-14.0,19.0,0.0
-20.0,-80.0,-69.0,6.0,5.0,15.0,-5.0,13.0,-18.0,32.0,0.0
-19.0,-68.0,-152.0,5.0,2.0,12.0,25.0,12.0,-4.0,32.0,0.0
3.0,-44.0,-235.0,-7.0,-12.0,21.0,13.0,21.0,8.0,29.0,0.0
2.0,-21.0,-315.0,2.0,-6.0,20.0,-8.0,19.0,-5.0,20.0,0.0
-12.0,-18.0,-325.0,7.0,-4.0,9.0,-14.0,22.0,-20.0,15.0,0.0
-4.0,-17.0,-263.0,8.0,-6.0,15.0,-26.0,15.0,-24.0,14.0,0.0
0.0,-14.0,-174.0,0.0,-2.0,5.0,-28.0,16.0,-19.0,16.0,0.0
9.0,-14.0,-79.0,6.0,6.0,7.0,-17.0,12.0,-18.0,10.0,0.0
11.0,-21.0,29.0,3.0,14.0,11.0,-11.0,-2.0,-18.0,-7.0,0.0
0.0,-32.0,130.0,0.0,8.0,4.0,-11.0,-6.0,-29.0,-12.0,0.0
4.0,-25.0,205.0,7.0,-4.0,7.0,17.0,0.0,-29.0,-8.0,0.0
7.0,-1.0,246.0,5.0,-11.0,-3.0,35.0,3.0,-31.0,-7.0,0.0
17.0,-6.0,247.0,0.0,-15.0,-12.0,39.0,-4.0,-36.0,-11.0,0.0
20.0,-17.0,253.0,-1.0,-16.0,-21.0,25.0,-9.0,-29.0,-9.0,0.0
18.0,-18.0,185.0,4.0,-8.0,-6.0,22.0,-2.0,-26.0,0.0,0.0
8.0,-9.0,83.0,0.0,-7.0,-18.0,16.0,-5.0,-10.0,17.0,0.0
0.0,-5.0,-35.0,4.0,-10.0,-29.0,17.0,2.0,38.0,9.0,0.0
2.0,-13.0,-142.0,11.0,-3.0,-23.0,16.0,17.0,72.0,2.0,0.0
7.0,-29.0,-212.0,13.0,-7.0,-18.0,-2.0,6.0,77.0,6.0,0.0
16.0,-30.0,-272.0,4.0,-18.0,-20.0,-10.0,1.0,69.0,12.0,0.0
19.0,-12.0,-280.0,-13.0,-12.0,-16.0,27.0,12.0,60.0,8.0,0.0
21.0,-6.0,-263.0,-17.0,-9.0,-6.0,40.0,26.0,41.0,11.0,0.0
34.0,13.0,-210.0,-11.0,-3.0,13.0,43.0,9.0,13.0,8.0,0.0
45.0,41.0,-117.0,3.0,-7.0,19.0,34.0,3.0,-11.0,4.0,0.0
36.0,48.0,-30.0,2.0,-24.0,14.0,27.0,9.0,-32.0,-5.0,0.0
10.0,22.0,35.0,-3.0,-26.0,0.0,18.0,6.0,-30.0,-12.0,0.0
-17.0,10.0,128.0,2.0,-17.0,-8.0,6.0,8.0,-22.0,-11.0,0.0
-18.0,10.0,197.0,-6.0,-10.0,-2.0,-22.0,12.0,-4.0,10.0,0.0
-6.0,1.0,246.0,-13.0,-2.0,8.0,-30.0,11.0,3.0,24.0,0.0
-3.0,-19.0,258.0,-11.0,-12.0,5.0,-31.0,19.0,4.0,40.0,0.0
-6.0,-39.0,201.0,-11.0,-12.0,12.0,-21.0,22.0,2.0,29.0,0.0
-20.0,-41.0,103.0,-3.0,5.0,24.0,-8.0,24.0,9.0,12.0,0.0
-31.0,-40.0,-12.0,-1.0,12.0,20.0,-6.0,18.0,4.0,-1.0,0.0
-22.0,-17.0,-128.0,0.0,25.0,24.0,-14.0,14.0,-3.0,-5.0,0.0
-20.0,-10.0,-203.0,13.0,23.0,24.0,-18.0,11.0,-7.0,4.0,0.0
-3.0,-6.0,-270.0,7.0,7.0,21.0,-8.0,18.0,11.0,9.0,0.0
1.0,8.0,-296.0,-7.0,-2.0,16.0,-6.0,13.0,15.0,15.0,0.0
-2.0,6.0,-287.0,-12.0,0.0,12.0,0.0,6.0,0.0,4.0,0.0
-14.0,-3.0,-270.0,-17.0,0.0,10.0,15.0,14.0,-11.0,-10.0,0.0
-19.0,-9.0,-189.0,-20.0,1.0,16.0,23.0,14.0,-13.0,-22.0,0.0
-8.0,-15.0,-95.0,-6.0,6.0,22.0,25.0,8.0,-15.0,-26.0,0.0
-3.0,-8.0,-13.0,-6.0,9.0,17.0,17.0,4.0,-10.0,-20.0,0.0
-11.0,8.0,71.0,1.0,9.0,16.0,22.0,-1.0,-12.0,-17.0,0.0
0.0,0.0,168.0,0.0,8.0,25.0,19.0,-1.0,-30.0,6.0,0.0
13.0,-5.0,230.0,7.0,16.0,21.0,5.0,-8.0,-41.0,14.0,0.0
18.0,-3.0,254.0,8.0,9.0,14.0,-2.0,-10.0,-30.0,2.0,0.0
29.0,2.0,264.0,11.0,7.0,11.0,10.0,-8.0,-13.0,7.0,0.0
34.0,3.0,220.0,8.0,0.0,8.0,11.0,-11.0,1.0,10.0,0.0
20.0,-7.0,108.0,13.0,5.0,9.0,13.0,-19.0,-12.0,-6.0,0.0
-1.0,-18.0,-21.0,24.0,24.0,4.0,27.0,-19.0,-19.0,-14.0,0.0
-8.0,-17.0,-144.0,23.0,17.0,-8.0,17.0,-18.0,-11.0,-14.0,0.0
-14.0,-8.0,-264.0,11.0,5.0,0.0,1.0,-16.0,1.0,-3.0,0.0
-35.0,-12.0,-322.0,4.0,8.0,4.0,2.0,-13.0,17.0,-6.0,0.0
-48.0,-18.0,-313.0,4.0,5.0,-9.0,7.0,-10.0,30.0,-4.0,0.0
-44.0,-17.0,-291.0,5.0,-14.0,-17.0,7.0,-3.0,34.0,1.0,0.0
-35.0,-18.0,-245.0,0.0,-24.0,-29.0,9.0,-4.0,30.0,4.0,0.0
-36.0,-14.0,-166.0,-10.0,-31.0,-31.0,9.0,-13.0,33.0,4.0,0.0
-28.0,-5.0,-55.0,-24.0,-48.0,-35.0,-3.0,-14.0,50.0,15.0,0.0
9.0,8.0,36.0,-35.0,-50.0,-27.0,-11.0,-11.0,45.0,43.0,0.0
54.0,13.0,134.0,-48.0,-65.0,-29.0,-9.0,0.0,35.0,71.0,0.0
58.0,27.0,229.0,-56.0,-61.0,-30.0,-5.0,17.0,27.0,64.0,0.0
36.0,36.0,276.0,-29.0,-49.0,-19.0,20.0,16.0,4.0,46.0,0.0
40.0,27.0,289.0,-15.0,-38.0,-2.0,57.0,16.0,-31.0,23.0,0.0
42.0,32.0,267.0,-5.0,-28.0,15.0,77.0,12.0,-68.0,7.0,0.0
36.0,47.0,182.0,7.0,-15.0,23.0,99.0,13.0,-79.0,5.0,0.0
35.0,45.0,66.0,7.0,-11.0,30.0,101.0,11.0,-71.0,0.0,0.0
36.0,28.0,-48.0,0.0,-12.0,29.0,83.0,11.0,-58.0,-11.0,0.0
34.0,19.0,-162.0,4.0,-13.0,21.0,80.0,17.0,-48.0,-25.0,0.0
8.0,17.0,-234.0,7.0,-2.0,17.0,76.0,18.0,-43.0,-19.0,0.0
-6.0,20.0,-257.0,6.0,-3.0,10.0,71.0,13.0,-19.0,-10.0,0.0
1.0,13.0,-271.0,17.0,2.0,2.0,68.0,8.0,-8.0,-10.0,0.0
18.0,6.0,-263.0,16.0,6.0,-3.0,54.0,4.0,10.0,0.0,0.0
17.0,1.0,-207.0,9.0,8.0,-20.0,37.0,-7.0,17.0,9.0,0.0
13.0,-8.0,-128.0,6.0,0.0,-22.0,2.0,-12.0,14.0,11.0,0.0
0.0,-2.0,-40.0,8.0,-12.0,-14.0,-7.0,-6.0,23.0,7.0,0.0
-15.0,-6.0,41.0,-9.0,-9.0,-11.0,-6.0,-11.0,25.0,3.0,0.0
-17.0,-18.0,116.0,-14.0,-2.0,-23.0,-38.0,-11.0,24.0,0.0,0.0
-24.0,-22.0,177.0,-9.0,0.0,-21.0,-25.0,1.0,29.0,5.0,0.0
-30.0,-16.0,223.0,-7.0,5.0,-13.0,-15.0,13.0,43.0,20.0,0.0
-12.0,-9.0,234.0,2.0,13.0,-19.0,-19.0,15.0,42.0,60.0,0.0
-6.0,-1.0,194.0,10.0,18.0,-9.0,-51.0,9.0,17.0,61.0,0.0
-12.0,1.0,107.0,26.0,13.0,15.0,-44.0,10.0,2.0,31.0,0.0
-23.0,-8.0,2.0,20.0,2.0,11.0,-28.0,5.0,0.0,12.0,0.0
-30.0,-12.0,-117.0,5.0,-1.0,11.0,-26.0,4.0,1.0,-8.0,0.0
-25.0,-10.0,-189.0,7.0,-3.0,19.0,-8.0,4.0,-3.0,-23.0,0.0
-19.0,-19.0,-248.0,2.0,1.0,29.0,25.0,-5.0,-11.0,-26.0,0.0
-28.0,-17.0,-308.0,3.0,-1.0,25.0,31.0,-19.0,-13.0,-21.0,0.0
-26.0,-1.0,-346.0,0.0,-1.0,23.0,18.0,-29.0,-16.0,-20.0,0.0
-17.0,28.0,-267.0,-1.0,-2.0,16.0,4.0,-32.0,-13.0,-29.0,0.0
-19.0,40.0,-145.0,-12.0,-10.0,6.0,-7.0,-28.0,-8.0,-31.0,0.0
5.0,54.0,-42.0,-7.0,-21.0,-11.0,-2.0,-13.0,-1.0,-13.0,0.0
50.0,96.0,36.0,-2.0,-31.0,-28.0,-2.0,2.0,15.0,13.0,0.0
86.0,130.0,118.0,7.0,-32.0,-34.0,-7.0,-4.0,30.0,28.0,0.0
98.0,146.0,204.0,16.0,-15.0,-30.0,-6.0,-9.0,32.0,40.0,0.0
93.0,133.0,273.0,27.0,-8.0,-27.0,-22.0,0.0,11.0,34.0,0.0
75.0,119.0,304.0,33.0,-1.0,-21.0,-33.0,-4.0,7.0,30.0,0.0
29.0,97.0,270.0,53.0,7.0,-8.0,-29.0,-21.0,18.0,14.0,0.0
-8.0,23.0,169.0,49.0,12.0,10.0,-26.0,-30.0,-8.0,-14.0,0.0
-19.0,-22.0,39.0,38.0,15.0,17.0,-33.0,-23.0,-23.0,-13.0,0.0
-24.0,-39.0,-69.0,21.0,14.0,24.0,-28.0,-9.0,-26.0,-17.0,0.0
-44.0,-67.0,-162.0,0.0,4.0,31.0,2.0,-1.0,-27.0,-23.0,0.0
-62.0,-100.0,-256.0,-24.0,17.0,32.0,35.0,1.0,-21.0,-33.0,0.0
-68.0,-97.0,-301.0,-23.0,28.0,27.0,29.0,2.0,-25.0,-41.0,0.0
-64.0,-89.0,-291.0,-19.0,17.0,17.0,20.0,-6.0,-35.0,-54.0,0.0
-51.0,-72.0,-281.0,-19.0,3.0,14.0,0.0,-5.0,-25.0,-52.0,0.0
-42.0,-73.0,-299.0,-26.0,1.0,16.0,-30.0,6.0,-9.0,-48.0,0.0
-48.0,-85.0,-218.0,-32.0,2.0,16.0,-42.0,6.0,11.0,-43.0,0.0
-71.0,-80.0,-78.0,-20.0,-4.0,12.0,-38.0,9.0,32.0,-34.0,0.0
-63.0,-64.0,32.0,-12.0,-1.0,12.0,-25.0,7.0,51.0,-21.0,0.0
-26.0,-41.0,102.0,-1.0,0.0,8.0,0.0,6.0,64.0,-6.0,0.0
-6.0,-22.0,191.0,-6.0,0.0,7.0,6.0,-1.0,56.0,-11.0,0.0
16.0,-10.0,274.0,-7.0,3.0,7.0,-3.0,-2.0,33.0,-11.0,0.0
21.0,2.0,268.0,-5.0,8.0,12.0,-17.0,-8.0,1.0,3.0,0.0
29.0,0.0,210.0,-12.0,7.0,18.0,-48.0,-16.0,-39.0,17.0,0.0
20.0,6.0,138.0,-14.0,7.0,20.0,-58.0,-10.0,-66.0,5.0,0.0
13.0,3.0,40.0,-15.0,6.0,11.0,-54.0,-14.0,-69.0,-4.0,0.0
6.0,-3.0,-91.0,-21.0,4.0,0.0,-53.0,-16.0,-56.0,-2.0,0.0
-18.0,-16.0,-159.0,-22.0,-1.0,2.0,-44.0,-9.0,-23.0,-3.0,0.0
-33.0,-24.0,-203.0,-12.0,-3.0,3.0,-46.0,-6.0,-11.0,-12.0,0.0
-45.0,-19.0,-265.0,-20.0,-6.0,-4.0,-42.0,-5.0,2.0,-19.0,0.0
-22.0,-21.0,-289.0,-12.0,-11.0,-19.0,-48.0,-13.0,24.0,-8.0,0.0
18.0,-9.0,-242.0,-9.0,-19.0,-30.0,-51.0,-15.0,39.0,30.0,0.0
32.0,4.0,-154.0,-2.0,-14.0,-32.0,-43.0,-2.0,58.0,57.0,0.0
22.0,10.0,-82.0,-2.0,-5.0,-28.0,-31.0,0.0,47.0,38.0,0.0
18.0,13.0,-52.0,0.0,-2.0,-18.0,-26.0,-10.0,22.0,11.0,0.0
12.0,19.0,-11.0,3.0,0.0,-11.0,-18.0,-20.0,2.0,-9.0,0.0
16.0,25.0,106.0,-5.0,2.0,-3.0,-29.0,-17.0,0.0,-13.0,0.0
19.0,21.0,178.0,3.0,16.0,0.0,-16.0,-7.0,-13.0,-19.0,0.0
21.0,-3.0,159.0,10.0,21.0,-1.0,-21.0,-19.0,-117.0,-26.0,0.0
19.0,1.0,210.0,0.0,14.0,-4.0,-18.0,-12.0,-82.0,-26.0,0.0
4.0,0.0,158.0,1.0,21.0,-12.0,-5.0,-3.0,-32.0,-26.0,0.0
1.0,-1.0,51.0,8.0,22.0,-20.0,8.0,4.0,-36.0,-20.0,0.0
-3.0,-3.0,-41.0,2.0,18.0,-20.0,-13.0,3.0,-34.0,-12.0,0.0
-6.0,12.0,-107.0,6.0,20.0,-23.0,-32.0,1.0,-35.0,4.0,0.0
11.0,21.0,-194.0,-1.0,13.0,-21.0,0.0,-1.0,-30.0,14.0,0.0
26.0,17.0,-263.0,-4.0,15.0,-20.0,1.0,-5.0,-26.0,23.0,0.0
28.0,21.0,-290.0,6.0,6.0,-16.0,-10.0,-3.0,-7.0,25.0,0.0
23.0,24.0,-277.0,6.0,7.0,-19.0,-32.0,-2.0,13.0,17.0,0.0
21.0,22.0,-248.0,4.0,24.0,-20.0,-40.0,0.0,17.0,10.0,0.0
-2.0,24.0,-200.0,20.0,26.0,-16.0,-18.0,-4.0,19.0,-3.0,0.0
-22.0,11.0,-86.0,12.0,18.0,-11.0,-4.0,6.0,6.0,-20.0,0.0
-30.0,-2.0,13.0,13.0,30.0,-4.0,-2.0,21.0,0.0,-26.0,0.0
-26.0,5.0,96.0,24.0,40.0,4.0,2.0,15.0,4.0,-30.0,0.0
-30.0,7.0,171.0,30.0,37.0,9.0,0.0,7.0,11.0,-26.0,0.0
-32.0,4.0,225.0,27.0,45.0,18.0,-3.0,6.0,-13.0,-28.0,0.0
-23.0,17.0,270.0,25.0,49.0,27.0,-3.0,4.0,-40.0,-24.0,0.0
4.0,16.0,245.0,16.0,44.0,18.0,6.0,-4.0,-35.0,-11.0,0.0
22.0,23.0,159.0,16.0,40.0,0.0,-20.0,2.0,-25.0,11.0,0.0
27.0,27.0,49.0,7.0,22.0,-8.0,-30.0,9.0,-26.0,21.0,0.0
30.0,19.0,-47.0,-12.0,11.0,-3.0,-30.0,2.0,-24.0,34.0,0.0
32.0,5.0,-126.0,-27.0,10.0,-8.0,-20.0,4.0,-5.0,45.0,0.0
27.0,4.0,-215.0,-34.0,-1.0,-16.0,-11.0,1.0,23.0,50.0,0.0
14.0,-2.0,-265.0,-23.0,-6.0,-12.0,-6.0,0.0,24.0,43.0,0.0
2.0,-11.0,-279.0,-21.0,8.0,-7.0,-4.0,-3.0,9.0,27.0,0.0
-1.0,-17.0,-242.0,-26.0,2.0,-9.0,-4.0,11.0,13.0,16.0,0.0
5.0,-26.0,-176.0,-32.0,-11.0,-8.0,-2.0,17.0,11.0,22.0,0.0
5.0,-20.0,-126.0,-25.0,-15.0,-3.0,3.0,12.0,6.0,33.0,0.0
3.0,-13.0,-38.0,-29.0,-8.0,0.0,-2.0,10.0,18.0,47.0,0.0
1.0,-22.0,77.0,-30.0,0.0,6.0,-19.0,10.0,20.0,51.0,0.0
7.0,-21.0,173.0,-22.0,-1.0,1.0,-25.0,4.0,26.0,49.0,0.0
10.0,-15.0,199.0,-9.0,-7.0,0.0,-46.0,0.0,27.0,49.0,0.0
13.0,-11.0,231.0,11.0,-5.0,0.0,-36.0,-10.0,18.0,52.0,0.0
6.0,-17.0,272.0,13.0,-1.0,-6.0,-26.0,-3.0,11.0,43.0,0.0
9.0,-16.0,204.0,15.0,5.0,-5.0,-12.0,3.0,-2.0,25.0,0.0
10.0,-5.0,82.0,11.0,-7.0,1.0,11.0,-1.0,-13.0,9.0,0.0
28.0,0.0,42.0,5.0,-9.0,-5.0,7.0,-4.0,-23.0,-9.0,0.0
24.0,-2.0,-26.0,1.0,-12.0,-14.0,-16.0,0.0,-22.0,-21.0,0.0
3.0,-1.0,-103.0,-6.0,-20.0,-21.0,-22.0,-9.0,-11.0,-27.0,0.0
-6.0,5.0,-209.0,-10.0,-17.0,-26.0,-25.0,-13.0,-7.0,-28.0,0.0
-5.0,16.0,-267.0,-15.0,-12.0,-22.0,-4.0,-2.0,8.0,-21.0,0.0
-2.0,21.0,-239.0,-7.0,-4.0,-17.0,3.0,4.0,12.0,-22.0,0.0
7.0,23.0,-194.0,-4.0,12.0,-2.0,-8.0,-2.0,17.0,-38.0,0.0
17.0,31.0,-129.0,-5.0,12.0,0.0,-16.0,-6.0,20.0,-32.0,0.0
28.0,33.0,-49.0,-5.0,0.0,-2.0,-9.0,0.0,19.0,-13.0,0.0
18.0,48.0,28.0,4.0,-15.0,-7.0,-2.0,15.0,29.0,-14.0,0.0
-1.0,42.0,88.0,18.0,-12.0,-11.0,-3.0,15.0,26.0,-31.0,0.0
-10.0,24.0,134.0,22.0,1.0,-3.0,-1.0,17.0,2.0,-43.0,0.0
-13.0,0.0,219.0,20.0,12.0,6.0,5.0,9.0,-20.0,-52.0,0.0
-12.0,4.0,280.0,12.0,20.0,9.0,0.0,0.0,-28.0,-61.0,0.0
-13.0,15.0,281.0,-4.0,24.0,16.0,0.0,9.0,-31.0,-74.0,0.0
-7.0,12.0,167.0,-15.0,17.0,17.0,4.0,13.0,-33.0,-69.0,0.0
-4.0,2.0,-5.0,-10.0,11.0,10.0,8.0,14.0,-39.0,-51.0,0.0
-6.0,-20.0,-132.0,-5.0,16.0,8.0,-7.0,0.0,-43.0,-33.0,0.0
3.0,-21.0,-220.0,-6.0,13.0,7.0,-14.0,-7.0,-28.0,-16.0,0.0
15.0,-19.0,-296.0,-10.0,14.0,8.0,-17.0,-12.0,-15.0,-2.0,0.0
18.0,-21.0,-321.0,-7.0,12.0,-3.0,-7.0,-24.0,-7.0,5.0,0.0
11.0,-13.0,-292.0,-9.0,-3.0,-10.0,-26.0,-15.0,-7.0,4.0,0.0
8.0,-10.0,-321.0,-26.0,-7.0,0.0,-27.0,-5.0,-3.0,4.0,0.0
3.0,-12.0,-258.0,-33.0,-18.0,1.0,-17.0,-25.0,8.0,5.0,0.0
-12.0,-6.0,-112.0,-30.0,-32.0,-8.0,-40.0,-44.0,8.0,10.0,0.0
-18.0,6.0,-8.0,-29.0,-41.0,-21.0,-44.0,-51.0,32.0,23.0,0.0
-9.0,25.0,77.0,-18.0,-41.0,-33.0,-38.0,-54.0,59.0,43.0,0.0
-7.0,38.0,181.0,-9.0,-30.0,-30.0,-57.0,-42.0,101.0,52.0,0.0
3.0,28.0,282.0,-2.0,-24.0,-17.0,-40.0,-19.0,130.0,43.0,0.0
18.0,23.0,337.0,-12.0,-30.0,-11.0,9.0,-11.0,145.0,37.0,0.0
39.0,24.0,350.0,-17.0,-34.0,5.0,21.0,3.0,131.0,37.0,0.0
29.0,7.0,307.0,-15.0,-19.0,11.0,35.0,6.0,80.0,26.0,0.0
23.0,14.0,209.0,-10.0,-5.0,15.0,39.0,-4.0,22.0,8.0,0.0
28.0,35.0,108.0,3.0,8.0,16.0,48.0,-9.0,-28.0,-1.0,0.0
34.0,43.0,-17.0,9.0,11.0,32.0,40.0,-10.0,-67.0,-22.0,0.0
34.0,52.0,-127.0,18.0,12.0,38.0,6.0,-15.0,-62.0,-38.0,0.0
73.0,37.0,-202.0,13.0,-7.0,34.0,2.0,-10.0,-46.0,-16.0,0.0
88.0,31.0,-222.0,-5.0,-10.0,31.0,-12.0,-4.0,-25.0,17.0,0.0
71.0,12.0,-230.0,-8.0,-13.0,26.0,-3.0,-8.0,-4.0,12.0,0.0
27.0,-21.0,-206.0,-16.0,-15.0,26.0,-4.0,2.0,23.0,0.0,0.0
-9.0,-40.0,-147.0,-27.0,-11.0,23.0,1.0,0.0,30.0,-9.0,0.0
-16.0,-27.0,-75.0,-35.0,-1.0,24.0,23.0,1.0,31.0,-18.0,0.0
2.0,-3.0,0.0,-26.0,-4.0,27.0,54.0,8.0,34.0,-25.0,0.0
12.0,7.0,133.0,-17.0,-19.0,18.0,46.0,7.0,36.0,-26.0,0.0
13.0,12.0,224.0,-4.0,-13.0,10.0,38.0,8.0,21.0,-27.0,0.0
-3.0,12.0,283.0,8.0,-1.0,15.0,49.0,6.0,6.0,-33.0,0.0
-28.0,-5.0,295.0,20.0,3.0,35.0,44.0,9.0,-25.0,-47.0,0.0
-34.0,-22.0,278.0,33.0,7.0,30.0,38.0,4.0,-30.0,-63.0,0.0
-15.0,-16.0,197.0,25.0,9.0,19.0,34.0,0.0,-11.0,-38.0,0.0
5.0,-13.0,40.0,5.0,7.0,12.0,36.0,7.0,-3.0,-10.0,0.0
-1.0,-15.0,-42.0,11.0,15.0,11.0,12.0,10.0,-4.0,-5.0,0.0
-10.0,-32.0,-74.0,22.0,22.0,7.0,22.0,15.0,4.0,-3.0,0.0
-4.0,-35.0,-141.0,31.0,15.0,6.0,26.0,1.0,15.0,-8.0,0.0
-17.0,-22.0,-206.0,22.0,28.0,9.0,0.0,-12.0,9.0,-21.0,0.0
-30.0,-19.0,-234.0,9.0,33.0,13.0,-33.0,-5.0,4.0,-40.0,0.0
-37.0,-24.0,-230.0,-5.0,27.0,20.0,-51.0,3.0,-8.0,-56.0,0.0
-50.0,-29.0,-194.0,-8.0,14.0,15.0,-33.0,1.0,-6.0,-69.0,0.0
-54.0,-22.0,-108.0,-7.0,7.0,8.0,-34.0,-8.0,1.0,-48.0,0.0
-41.0,-16.0,-23.0,-5.0,0.0,1.0,-39.0,-10.0,0.0,-18.0,0.0
-40.0,-8.0,70.0,-7.0,-2.0,-1.0,-25.0,0.0,7.0,0.0,0.0
-35.0,-9.0,149.0,-15.0,-16.0,-6.0,-28.0,18.0,17.0,23.0,0.0
-14.0,-8.0,219.0,-29.0,-22.0,-8.0,-17.0,31.0,30.0,42.0,0.0
-5.0,-5.0,281.0,-17.0,-15.0,0.0,-9.0,30.0,23.0,33.0,0.0
-11.0,2.0,325.0,-11.0,-8.0,2.0,-4.0,29.0,12.0,28.0,0.0
-5.0,5.0,305.0,-7.0,-6.0,-14.0,-21.0,28.0,15.0,37.0,0.0
6.0,23.0,204.0,4.0,-9.0,-7.0,-27.0,18.0,16.0,37.0,0.0
4.0,36.0,82.0,0.0,-5.0,-3.0,-28.0,13.0,20.0,26.0,0.0
-3.0,24.0,-29.0,-2.0,-7.0,-7.0,-23.0,11.0,13.0,17.0,0.0
-3.0,26.0,-118.0,-2.0,-10.0,-12.0,-10.0,8.0,19.0,10.0,0.0
11.0,28.0,-186.0,-2.0,1.0,-14.0,-15.0,-8.0,17.0,19.0,0.0
34.0,20.0,-250.0,1.0,0.0,-12.0,1.0,-2.0,12.0,29.0,0.0
15.0,18.0,-270.0,-8.0,3.0,-5.0,0.0,-4.0,16.0,28.0,0.0
-2.0,19.0,-272.0,-1.0,11.0,5.0,12.0,2.0,2.0,31.0,0.0
-5.0,10.0,-261.0,9.0,18.0,15.0,31.0,8.0,-12.0,29.0,0.0
-13.0,1.0,-198.0,6.0,19.0,19.0,17.0,0.0,-12.0,16.0,0.0
-16.0,8.0,-35.0,12.0,16.0,15.0,26.0,2.0,-14.0,14.0,0.0
-14.0,15.0,56.0,7.0,20.0,8.0,48.0,-3.0,-19.0,12.0,0.0
-15.0,8.0,152.0,-19.0,18.0,12.0,40.0,-5.0,-15.0,7.0,0.0
-31.0,6.0,255.0,-13.0,2.0,5.0,34.0,-18.0,-9.0,6.0,0.0
-11.0,16.0,317.0,3.0,-6.0,0.0,-6.0,-25.0,-10.0,17.0,0.0
8.0,23.0,335.0,6.0,-11.0,-3.0,-17.0,-18.0,0.0,33.0,0.0
11.0,15.0,279.0,8.0,-13.0,-16.0,-26.0,-17.0,4.0,27.0,0.0
4.0,-11.0,120.0,0.0,-23.0,-19.0,-26.0,-20.0,0.0,17.0,0.0
19.0,-3.0,-31.0,0.0,-23.0,-14.0,-18.0,-8.0,10.0,32.0,0.0
40.0,1.0,-145.0,-7.0,-25.0,-13.0,-3.0,-6.0,26.0,39.0,0.0
38.0,2.0,-196.0,0.0,-16.0,-18.0,32.0,-17.0,28.0,27.0,0.0
36.0,11.0,-292.0,-3.0,-7.0,-28.0,26.0,-17.0,13.0,23.0,0.0
13.0,10.0,-294.0,8.0,-6.0,-14.0,31.0,-18.0,3.0,16.0,0.0
-10.0,-11.0,-234.0,14.0,0.0,-5.0,31.0,-22.0,-5.0,0.0,0.0
-16.0,-15.0,-176.0,13.0,8.0,-1.0,24.0,-22.0,-17.0,-25.0,0.0
-36.0,-4.0,-119.0,11.0,8.0,7.0,-1.0,-29.0,-23.0,-33.0,0.0
-51.0,5.0,-62.0,-2.0,2.0,-11.0,-9.0,-33.0,-35.0,-32.0,0.0
-37.0,15.0,26.0,-15.0,-5.0,-12.0,-15.0,-28.0,-33.0,-27.0,0.0
-32.0,20.0,120.0,-8.0,-17.0,-11.0,3.0,-20.0,-25.0,-28.0,0.0
-28.0,21.0,203.0,6.0,-23.0,-11.0,16.0,0.0,-4.0,-22.0,0.0
-36.0,17.0,255.0,17.0,-20.0,1.0,27.0,13.0,12.0,-7.0,0.0
-45.0,24.0,268.0,12.0,-17.0,-2.0,38.0,-1.0,6.0,0.0,0.0
-32.0,25.0,282.0,7.0,-12.0,-8.0,19.0,-16.0,13.0,10.0,0.0
9.0,21.0,222.0,4.0,-13.0,-9.0,-2.0,-16.0,33.0,48.0,0.0
42.0,0.0,119.0,-8.0,-11.0,-7.0,-9.0,-8.0,55.0,108.0,0.0
46.0,-7.0,23.0,-18.0,-7.0,-8.0,-5.0,-6.0,56.0,112.0,0.0
43.0,7.0,-70.0,-16.0,-5.0,-1.0,10.0,-1.0,58.0,88.0,0.0
30.0,18.0,-139.0,-11.0,6.0,9.0,40.0,-8.0,55.0,59.0,0.0
11.0,15.0,-205.0,0.0,11.0,16.0,41.0,-18.0,30.0,31.0,0.0
-1.0,17.0,-235.0,19.0,5.0,13.0,30.0,-14.0,4.0,7.0,0.0
-8.0,9.0,-239.0,32.0,9.0,5.0,13.0,9.0,-6.0,-18.0,0.0
0.0,-7.0,-186.0,34.0,6.0,9.0,21.0,14.0,-15.0,-29.0,0.0
4.0,-12.0,-96.0,25.0,11.0,17.0,33.0,13.0,-9.0,-37.0,0.0
-3.0,-14.0,-2.0,21.0,23.0,17.0,32.0,18.0,-10.0,-34.0,0.0
-1.0,0.0,106.0,15.0,23.0,11.0,18.0,26.0,-21.0,-28.0,0.0
11.0,4.0,212.0,24.0,17.0,12.0,11.0,23.0,-36.0,-26.0,0.0
23.0,6.0,295.0,29.0,25.0,16.0,-8.0,18.0,-55.0,-27.0,0.0
14.0,2.0,307.0,24.0,26.0,11.0,-32.0,17.0,-52.0,-38.0,0.0
-1.0,0.0,316.0,19.0,24.0,6.0,-32.0,18.0,-36.0,-41.0,0.0
2.0,10.0,282.0,19.0,26.0,5.0,-34.0,9.0,-2.0,-39.0,0.0
1.0,-3.0,168.0,19.0,19.0,9.0,-29.0,-2.0,23.0,-36.0,0.0
-4.0,-35.0,44.0,17.0,8.0,7.0,-24.0,-3.0,18.0,-26.0,0.0
-7.0,-44.0,-50.0,16.0,14.0,16.0,-16.0,2.0,25.0,-18.0,0.0
-4.0,-38.0,-121.0,20.0,24.0,14.0,-7.0,11.0,31.0,-12.0,0.0
5.0,-32.0,-190.0,7.0,19.0,9.0,-2.0,15.0,62.0,-17.0,0.0
24.0,-30.0,-271.0,2.0,5.0,12.0,2.0,29.0,73.0,-8.0,0.0
28.0,-18.0,-295.0,5.0,-12.0,10.0,5.0,17.0,61.0,-4.0,0.0
35.0,-13.0,-216.0,6.0,-22.0,5.0,-3.0,9.0,61.0,13.0,0.0
38.0,-15.0,-131.0,17.0,-13.0,1.0,8.0,6.0,41.0,24.0,0.0
32.0,-16.0,-42.0,24.0,2.0,3.0,29.0,6.0,6.0,16.0,0.0
26.0,-20.0,49.0,24.0,7.0,1.0,29.0,4.0,-39.0,-9.0,0.0
-1.0,-20.0,145.0,33.0,11.0,8.0,26.0,11.0,-65.0,-16.0,0.0
-21.0,-15.0,244.0,21.0,19.0,7.0,35.0,24.0,-52.0,-37.0,0.0
-44.0,-18.0,308.0,8.0,18.0,15.0,37.0,21.0,-52.0,-49.0,0.0
-58.0,-21.0,306.0,8.0,21.0,14.0,32.0,9.0,-42.0,-50.0,0.0
-62.0,-19.0,294.0,10.0,20.0,8.0,1.0,10.0,-21.0,-45.0,0.0
-38.0,-15.0,204.0,0.0,14.0,1.0,-13.0,7.0,0.0,-30.0,0.0
-27.0,-17.0,131.0,-7.0,17.0,-1.0,-16.0,0.0,27.0,-26.0,0.0
-7.0,-14.0,69.0,-3.0,15.0,2.0,-9.0,2.0,29.0,-25.0,0.0
6.0,2.0,-43.0,-9.0,16.0,5.0,-6.0,7.0,10.0,-3.0,0.0
4.0,4.0,-184.0,-3.0,25.0,6.0,6.0,12.0,15.0,0.0,0.0
-4.0,-4.0,-243.0,-3.0,16.0,-2.0,2.0,9.0,12.0,-13.0,0.0
-15.0,-7.0,-211.0,-10.0,11.0,-7.0,-3.0,0.0,1.0,-16.0,0.0
-20.0,-14.0,-210.0,-13.0,6.0,-7.0,-11.0,-3.0,6.0,-17.0,0.0
-9.0,-10.0,-153.0,-18.0,-3.0,-3.0,-20.0,1.0,24.0,-17.0,0.0
-1.0,7.0,-43.0,-27.0,-12.0,-15.0,-23.0,3.0,11.0,-6.0,0.0
7.0,19.0,19.0,-22.0,-16.0,-27.0,-27.0,2.0,1.0,4.0,0.0
15.0,16.0,121.0,-12.0,-22.0,-31.0,-17.0,-1.0,4.0,20.0,0.0
30.0,26.0,199.0,-7.0,-21.0,-21.0,-18.0,-9.0,6.0,18.0,0.0
29.0,39.0,277.0,-11.0,-19.0,-6.0,-16.0,-9.0,10.0,14.0,0.0
14.0,49.0,340.0,-3.0,-5.0,-15.0,-27.0,-17.0,6.0,11.0,0.0
15.0,44.0,345.0,10.0,-4.0,-13.0,-21.0,-13.0,0.0,11.0,0.0
6.0,18.0,300.0,11.0,5.0,-6.0,-14.0,-10.0,21.0,34.0,0.0
-2.0,-12.0,195.0,13.0,14.0,4.0,-15.0,-5.0,28.0,62.0,0.0
-4.0,-16.0,77.0,4.0,14.0,12.0,15.0,-11.0,20.0,41.0,0.0
-7.0,-23.0,-21.0,10.0,11.0,12.0,41.0,-7.0,18.0,16.0,0.0
-31.0,-32.0,-125.0,17.0,13.0,12.0,20.0,-4.0,4.0,-12.0,0.0
-42.0,-36.0,-211.0,14.0,13.0,11.0,16.0,-2.0,-7.0,-17.0,0.0
-33.0,-37.0,-257.0,13.0,0.0,13.0,16.0,2.0,-5.0,-20.0,0.0
-21.0,-20.0,-248.0,12.0,-3.0,20.0,7.0,7.0,-2.0,-8.0,0.0
-4.0,-11.0,-206.0,14.0,0.0,25.0,35.0,9.0,0.0,12.0,0.0
2.0,-13.0,-143.0,6.0,-5.0,9.0,47.0,8.0,-10.0,5.0,0.0
0.0,-12.0,-54.0,2.0,-10.0,8.0,38.0,0.0,-16.0,0.0,0.0
-4.0,-15.0,42.0,3.0,-8.0,8.0,34.0,6.0,-29.0,-7.0,0.0
-8.0,-18.0,111.0,12.0,1.0,0.0,44.0,5.0,-40.0,-13.0,0.0
-11.0,-9.0,188.0,19.0,0.0,-2.0,47.0,-3.0,-38.0,-3.0,0.0
-7.0,-3.0,239.0,20.0,-6.0,5.0,38.0,2.0,-31.0,-8.0,0.0
-3.0,16.0,290.0,13.0,4.0,7.0,32.0,8.0,-14.0,-21.0,0.0
2.0,29.0,305.0,24.0,11.0,1.0,31.0,-7.0,-27.0,-29.0,0.0
6.0,37.0,249.0,20.0,11.0,0.0,34.0,-27.0,-32.0,-25.0,0.0
12.0,26.0,138.0,23.0,14.0,2.0,34.0,-21.0,-37.0,-19.0,0.0
10.0,15.0,33.0,30.0,15.0,0.0,27.0,-16.0,-20.0,-12.0,0.0
-2.0,-1.0,-47.0,28.0,7.0,1.0,19.0,-14.0,-35.0,-4.0,0.0
-20.0,-6.0,-143.0,14.0,-1.0,0.0,12.0,-25.0,-18.0,-1.0,0.0
-36.0,-9.0,-198.0,12.0,-17.0,0.0,-21.0,-25.0,14.0,11.0,0.0
-32.0,-17.0,-225.0,15.0,-37.0,4.0,-41.0,-10.0,42.0,25.0,0.0
-32.0,-32.0,-236.0,20.0,-48.0,-3.0,-33.0,0.0,46.0,31.0,0.0
-29.0,-35.0,-202.0,16.0,-43.0,-1.0,-27.0,5.0,47.0,21.0,0.0
-40.0,-31.0,-146.0,6.0,-30.0,-17.0,-15.0,13.0,55.0,0.0,0.0
-46.0,-34.0,-69.0,1.0,-22.0,-20.0,-13.0,24.0,59.0,-9.0,0.0
-36.0,-23.0,22.0,-3.0,-28.0,-18.0,-17.0,14.0,43.0,-16.0,0.0
-21.0,0.0,99.0,-9.0,-19.0,-4.0,-6.0,3.0,17.0,-17.0,0.0
2.0,14.0,187.0,4.0,0.0,4.0,20.0,6.0,-19.0,-2.0,0.0
17.0,3.0,266.0,7.0,11.0,7.0,33.0,7.0,-34.0,-15.0,0.0
5.0,-7.0,269.0,6.0,4.0,9.0,36.0,-5.0,-41.0,-32.0,0.0
-9.0,-2.0,229.0,22.0,1.0,12.0,38.0,-5.0,-42.0,-35.0,0.0
-7.0,-7.0,141.0,34.0,11.0,1.0,31.0,-5.0,-40.0,-35.0,0.0
0.0,-10.0,51.0,51.0,22.0,6.0,33.0,-11.0,-43.0,-35.0,0.0
6.0,-10.0,-53.0,54.0,22.0,6.0,19.0,-2.0,-38.0,-26.0,0.0
5.0,-8.0,-138.0,38.0,19.0,-1.0,-11.0,6.0,-37.0,-15.0,0.0
14.0,-2.0,-205.0,29.0,9.0,-4.0,-15.0,3.0,-22.0,8.0,0.0
18.0,-16.0,-259.0,8.0,-5.0,-2.0,1.0,-2.0,-25.0,0.0,0.0
16.0,-23.0,-252.0,-3.0,-5.0,3.0,-1.0,8.0,-30.0,-7.0,0.0
10.0,-8.0,-220.0,-16.0,1.0,2.0,-20.0,22.0,-40.0,-19.0,0.0
-6.0,-6.0,-182.0,-12.0,-4.0,1.0,-20.0,11.0,-45.0,-40.0,0.0
-22.0,-11.0,-114.0,-3.0,-9.0,-12.0,-14.0,2.0,-31.0,-39.0,0.0
-30.0,-16.0,-22.0,-14.0,-4.0,-27.0,-1.0,-1.0,-9.0,-21.0,0.0
-27.0,-12.0,82.0,-26.0,-10.0,-32.0,7.0,-9.0,2.0,-8.0,0.0
-17.0,0.0,159.0,-23.0,-20.0,-30.0,16.0,-13.0,23.0,9.0,0.0
1.0,14.0,220.0,-29.0,-20.0,-35.0,12.0,-4.0,54.0,30.0,0.0
10.0,25.0,269.0,-33.0,-30.0,-52.0,7.0,2.0,73.0,36.0,0.0
3.0,20.0,302.0,-18.0,-24.0,-46.0,-3.0,4.0,94.0,37.0,0.0
7.0,10.0,270.0,-12.0,-4.0,-36.0,-34.0,7.0,104.0,34.0,0.0
12.0,7.0,169.0,0.0,-2.0,-30.0,-14.0,4.0,94.0,31.0,0.0
20.0,10.0,57.0,6.0,-2.0,-25.0,-3.0,12.0,61.0,36.0,0.0
23.0,21.0,-25.0,7.0,0.0,-11.0,0.0,21.0,35.0,38.0,0.0
22.0,33.0,-115.0,11.0,1.0,2.0,-2.0,24.0,-7.0,32.0,0.0
29.0,41.0,-197.0,3.0,-1.0,-2.0,-26.0,15.0,-47.0,16.0,0.0
22.0,44.0,-264.0,8.0,-3.0,-2.0,-41.0,11.0,-67.0,-5.0,0.0
14.0,30.0,-334.0,14.0,2.0,-5.0,-30.0,3.0,-51.0,-15.0,0.0
9.0,13.0,-329.0,14.0,4.0,-13.0,-21.0,1.0,-29.0,-10.0,0.0
3.0,14.0,-195.0,17.0,11.0,-1.0,-15.0,3.0,-11.0,-2.0,0.0
-5.0,33.0,-72.0,23.0,14.0,3.0,-12.0,5.0,-17.0,-16.0,0.0
-16.0,33.0,7.0,10.0,8.0,0.0,3.0,2.0,-20.0,-25.0,0.0
-7.0,26.0,110.0,2.0,8.0,-8.0,26.0,5.0,-18.0,-22.0,0.0
-3.0,32.0,179.0,4.0,-5.0,-13.0,19.0,5.0,-20.0,-3.0,0.0
-9.0,33.0,186.0,6.0,0.0,-20.0,-16.0,7.0,-24.0,24.0,0.0
5.0,22.0,180.0,8.0,13.0,-17.0,-32.0,2.0,-35.0,-1.0,0.0
10.0,16.0,190.0,2.0,22.0,-9.0,-29.0,1.0,-36.0,-3.0,0.0
10.0,26.0,209.0,4.0,23.0,-9.0,-28.0,4.0,-45.0,1.0,0.0
10.0,24.0,143.0,9.0,17.0,-7.0,-22.0,4.0,-48.0,2.0,0.0
3.0,11.0,26.0,11.0,12.0,-7.0,-33.0,5.0,-38.0,-6.0,0.0
-3.0,10.0,-117.0,15.0,0.0,-3.0,-36.0,1.0,-41.0,-26.0,0.0
-16.0,29.0,-185.0,21.0,6.0,19.0,-15.0,7.0,-16.0,-36.0,0.0
-33.0,26.0,-241.0,13.0,13.0,31.0,26.0,10.0,-4.0,-46.0,0.0
-32.0,24.0,-276.0,7.0,20.0,37.0,52.0,16.0,-24.0,-31.0,0.0
-30.0,27.0,-253.0,-2.0,14.0,31.0,55.0,13.0,-34.0,-24.0,0.0
-17.0,38.0,-228.0,-5.0,-8.0,21.0,54.0,22.0,-32.0,-22.0,0.0
-16.0,51.0,-172.0,8.0,-15.0,20.0,51.0,22.0,-17.0,-15.0,0.0
-26.0,50.0,-81.0,18.0,-6.0,15.0,40.0,14.0,4.0,-25.0,0.0
-36.0,22.0,20.0,15.0,-6.0,15.0,31.0,12.0,-42.0,-49.0,0.0
-28.0,16.0,116.0,6.0,-18.0,21.0,-3.0,13.0,-54.0,-53.0,0.0
-35.0,14.0,220.0,0.0,-24.0,18.0,-31.0,5.0,-46.0,-46.0,0.0
-37.0,17.0,317.0,-9.0,-19.0,-1.0,-36.0,-2.0,-18.0,-24.0,0.0
-26.0,-2.0,343.0,-20.0,-22.0,-18.0,-55.0,-1.0,3.0,-16.0,0.0
-26.0,-18.0,310.0,-11.0,-22.0,-27.0,-43.0,-4.0,31.0,-16.0,0.0
-28.0,-37.0,212.0,-11.0,-20.0,-22.0,-20.0,-6.0,43.0,-11.0,0.0
-24.0,-45.0,91.0,-10.0,-13.0,-27.0,-19.0,-1.0,45.0,0.0,0.0
-15.0,-32.0,0.0,-9.0,0.0,-22.0,-14.0,1.0,39.0,19.0,0.0
9.0,-24.0,-72.0,-10.0,3.0,-13.0,-33.0,-4.0,17.0,34.0,0.0
19.0,-21.0,-151.0,-4.0,0.0,-11.0,-35.0,-10.0,9.0,46.0,0.0
14.0,-7.0,-202.0,-8.0,-4.0,-13.0,-41.0,-9.0,18.0,50.0,0.0
6.0,11.0,-224.0,-2.0,2.0,-16.0,-34.0,-22.0,24.0,29.0,0.0
1.0,15.0,-226.0,9.0,1.0,-8.0,-34.0,-16.0,26.0,5.0,0.0
3.0,-11.0,-171.0,15.0,-1.0,-2.0,-25.0,-10.0,33.0,8.0,0.0
29.0,-21.0,-76.0,10.0,2.0,0.0,-29.0,-13.0,31.0,27.0,0.0
35.0,-13.0,0.0,5.0,11.0,14.0,-30.0,-19.0,11.0,33.0,0.0
0.0,-15.0,97.0,1.0,13.0,12.0,-27.0,-20.0,0.0,14.0,0.0
-21.0,-9.0,174.0,-4.0,-1.0,11.0,-27.0,-18.0,-1.0,1.0,0.0
-13.0,-10.0,243.0,-12.0,-2.0,19.0,-26.0,-14.0,-24.0,-11.0,0.0
-9.0,-13.0,270.0,-11.0,10.0,21.0,-42.0,-23.0,-43.0,-24.0,0.0
0.0,-12.0,258.0,0.0,8.0,9.0,-18.0,-19.0,-40.0,-19.0,0.0
16.0,-7.0,210.0,9.0,-1.0,5.0,4.0,-7.0,-39.0,-11.0,0.0
22.0,-5.0,114.0,12.0,4.0,3.0,32.0,-4.0,-32.0,-6.0,0.0
14.0,-2.0,24.0,23.0,7.0,2.0,24.0,1.0,-21.0,-8.0,0.0
20.0,8.0,-66.0,20.0,-5.0,12.0,29.0,3.0,-12.0,0.0,0.0
20.0,22.0,-142.0,9.0,-19.0,17.0,50.0,11.0,-2.0,10.0,0.0
22.0,13.0,-228.0,18.0,-27.0,16.0,52.0,18.0,6.0,14.0,0.0
17.0,1.0,-281.0,22.0,-26.0,10.0,40.0,23.0,15.0,17.0,0.0
12.0,-3.0,-283.0,18.0,-22.0,0.0,40.0,22.0,15.0,12.0,0.0
2.0,-1.0,-291.0,5.0,-13.0,7.0,24.0,14.0,6.0,0.0,0.0
1.0,4.0,-208.0,-5.0,-6.0,11.0,10.0,2.0,3.0,-5.0,0.0
14.0,5.0,-56.0,-8.0,-2.0,-3.0,-10.0,-3.0,-3.0,-9.0,0.0
11.0,5.0,67.0,-9.0,3.0,-10.0,-38.0,-12.0,-6.0,-4.0,0.0
0.0,1.0,159.0,-8.0,-3.0,-18.0,-65.0,-14.0,-10.0,8.0,0.0
7.0,0.0,224.0,-6.0,-16.0,-20.0,-53.0,-10.0,0.0,12.0,0.0
-2.0,2.0,263.0,-10.0,-10.0,-20.0,-40.0,-2.0,-6.0,7.0,0.0
1.0,0.0,276.0,-23.0,9.0,-10.0,-19.0,-8.0,-7.0,11.0,0.0
14.0,-2.0,245.0,-9.0,10.0,6.0,-7.0,-8.0,0.0,18.0,0.0
24.0,0.0,170.0,3.0,3.0,16.0,-5.0,5.0,4.0,28.0,0.0
20.0,1.0,36.0,-10.0,-4.0,14.0,2.0,18.0,17.0,18.0,0.0
17.0,12.0,-20.0,-23.0,-20.0,0.0,7.0,10.0,26.0,7.0,0.0
30.0,18.0,-89.0,-25.0,-21.0,5.0,2.0,2.0,20.0,24.0,0.0
45.0,34.0,-160.0,-22.0,-15.0,12.0,0.0,-1.0,12.0,33.0,0.0
49.0,33.0,-214.0,-21.0,-11.0,15.0,-4.0,-4.0,2.0,34.0,0.0
44.0,22.0,-221.0,-21.0,-9.0,16.0,0.0,0.0,0.0,31.0,0.0
35.0,25.0,-203.0,-16.0,-17.0,9.0,7.0,-3.0,-13.0,19.0,0.0
21.0,20.0,-133.0,-16.0,-18.0,3.0,-14.0,-8.0,-9.0,-1.0,0.0
14.0,33.0,-50.0,-4.0,-5.0,13.0,-27.0,-7.0,16.0,2.0,0.0
4.0,52.0,40.0,0.0,-2.0,12.0,1.0,-10.0,32.0,12.0,0.0
-3.0,35.0,138.0,1.0,-8.0,12.0,-3.0,-26.0,12.0,3.0,0.0
-6.0,24.0,214.0,0.0,-3.0,15.0,-39.0,-14.0,2.0,-8.0,0.0
-1.0,22.0,292.0,-9.0,-1.0,10.0,-36.0,0.0,-4.0,-16.0,0.0
-5.0,13.0,290.0,-15.0,4.0,13.0,-24.0,-3.0,-16.0,-24.0,0.0
-19.0,14.0,323.0,-9.0,3.0,15.0,-23.0,-9.0,-41.0,-32.0,0.0
-22.0,14.0,283.0,4.0,7.0,21.0,-15.0,-10.0,-54.0,-26.0,0.0
-14.0,7.0,185.0,4.0,14.0,29.0,-21.0,-22.0,-45.0,-17.0,0.0
-26.0,6.0,124.0,-3.0,18.0,29.0,-1.0,-26.0,-40.0,-8.0,0.0
-34.0,-4.0,49.0,8.0,13.0,33.0,-16.0,-21.0,-40.0,-5.0,0.0
-25.0,6.0,-19.0,6.0,8.0,22.0,-18.0,-9.0,-18.0,-2.0,0.0
-6.0,21.0,-92.0,0.0,4.0,4.0,-24.0,-10.0,-7.0,1.0,0.0
-6.0,36.0,-137.0,1.0,2.0,2.0,-31.0,-13.0,14.0,4.0,0.0
-1.0,44.0,-128.0,7.0,2.0,1.0,-17.0,-15.0,32.0,0.0,0.0
8.0,42.0,-85.0,0.0,0.0,-3.0,-34.0,-21.0,44.0,4.0,0.0
16.0,33.0,-28.0,-1.0,2.0,-6.0,-32.0,-22.0,34.0,6.0,0.0
10.0,25.0,56.0,12.0,11.0,-1.0,-19.0,-29.0,15.0,4.0,0.0
11.0,5.0,137.0,-1.0,8.0,-12.0,-28.0,-25.0,36.0,-1.0,0.0
12.0,9.0,205.0,-30.0,18.0,-9.0,-24.0,-4.0,66.0,23.0,0.0
8.0,12.0,287.0,-36.0,20.0,0.0,-19.0,1.0,72.0,41.0,0.0
0.0,-7.0,348.0,-13.0,18.0,4.0,-30.0,7.0,60.0,46.0,0.0
-8.0,-16.0,376.0,-1.0,28.0,11.0,-32.0,4.0,52.0,33.0,0.0
-7.0,-6.0,353.0,-3.0,26.0,20.0,-8.0,0.0,24.0,15.0,0.0
11.0,7.0,294.0,1.0,22.0,25.0,14.0,2.0,-6.0,13.0,0.0
33.0,17.0,183.0,5.0,19.0,20.0,13.0,-1.0,16.0,28.0,0.0
47.0,20.0,64.0,-3.0,20.0,17.0,9.0,0.0,31.0,35.0,0.0
50.0,23.0,-30.0,-4.0,22.0,10.0,-8.0,12.0,32.0,46.0,0.0
48.0,26.0,-127.0,-1.0,18.0,18.0,-30.0,20.0,17.0,61.0,0.0
31.0,1.0,-200.0,13.0,17.0,16.0,-19.0,20.0,1.0,55.0,0.0
-3.0,-16.0,-252.0,13.0,5.0,3.0,-17.0,18.0,9.0,47.0,0.0
-14.0,-37.0,-230.0,-1.0,-1.0,-3.0,-7.0,13.0,17.0,49.0,0.0
-32.0,-63.0,-175.0,-7.0,2.0,11.0,19.0,19.0,22.0,45.0,0.0
-48.0,-55.0,-137.0,-12.0,-1.0,16.0,17.0,24.0,8.0,43.0,0.0
-49.0,-42.0,-96.0,-22.0,-5.0,-2.0,20.0,11.0,-9.0,28.0,0.0
-39.0,-37.0,-13.0,-19.0,0.0,10.0,11.0,5.0,-17.0,14.0,0.0
-29.0,-28.0,116.0,-14.0,-7.0,6.0,4.0,-1.0,-15.0,11.0,0.0
-42.0,-31.0,246.0,-13.0,-2.0,-5.0,-22.0,-8.0,-5.0,4.0,0.0
-41.0,-26.0,296.0,0.0,4.0,-2.0,-28.0,-5.0,18.0,-14.0,0.0
-38.0,-23.0,298.0,16.0,13.0,0.0,-28.0,-5.0,25.0,-31.0,0.0
-48.0,-10.0,276.0,19.0,16.0,-4.0,-28.0,-8.0,27.0,-32.0,0.0
-45.0,-21.0,210.0,10.0,17.0,-10.0,-13.0,-2.0,28.0,-31.0,0.0
-34.0,-11.0,103.0,9.0,16.0,-8.0,20.0,6.0,30.0,-33.0,0.0
-21.0,3.0,-6.0,7.0,13.0,-7.0,21.0,2.0,3.0,-35.0,0.0
-20.0,11.0,-104.0,7.0,16.0,-7.0,18.0,-1.0,-16.0,-27.0,0.0
-20.0,19.0,-219.0,10.0,16.0,-8.0,-16.0,-9.0,-19.0,-27.0,0.0
-18.0,10.0,-271.0,10.0,10.0,-10.0,-19.0,-13.0,-20.0,-25.0,0.0
-13.0,6.0,-275.0,1.0,0.0,-19.0,-23.0,-8.0,-41.0,-25.0,0.0
-5.0,0.0,-267.0,-9.0,-9.0,-16.0,-42.0,-13.0,-110.0,-28.0,0.0
-6.0,6.0,-202.0,-9.0,-9.0,-8.0,9.0,13.0,-35.0,-27.0,0.0
-18.0,17.0,-138.0,-11.0,-7.0,-1.0,15.0,4.0,-15.0,-35.0,0.0
-36.0,9.0,-31.0,-9.0,-6.0,0.0,4.0,-6.0,-30.0,-48.0,0.0
-32.0,1.0,101.0,-10.0,-9.0,0.0,7.0,-6.0,-23.0,-27.0,0.0
-21.0,0.0,201.0,-8.0,-18.0,-5.0,27.0,2.0,-6.0,-8.0,0.0
-30.0,-3.0,276.0,-15.0,-19.0,-19.0,-2.0,1.0,0.0,-5.0,0.0
-18.0,-1.0,318.0,-20.0,-21.0,-17.0,-14.0,-9.0,-10.0,0.0,0.0
30.0,-12.0,330.0,-24.0,-29.0,-25.0,-14.0,-19.0,-15.0,25.0,0.0
40.0,-28.0,252.0,-26.0,-25.0,-27.0,-26.0,-19.0,-25.0,43.0,0.0
33.0,-34.0,127.0,-17.0,-9.0,-17.0,-23.0,-19.0,-25.0,29.0,0.0
30.0,-19.0,56.0,3.0,0.0,-7.0,-14.0,-18.0,-14.0,6.0,0.0
25.0,-12.0,-42.0,7.0,14.0,0.0,-10.0,-15.0,0.0,-1.0,0.0
30.0,-16.0,-185.0,6.0,23.0,9.0,-5.0,-23.0,1.0,-3.0,0.0
29.0,-12.0,-300.0,12.0,18.0,10.0,11.0,-26.0,2.0,-1.0,0.0
26.0,-16.0,-312.0,3.0,10.0,-4.0,34.0,-30.0,0.0,-9.0,0.0
26.0,-18.0,-239.0,0.0,7.0,-10.0,30.0,-27.0,-1.0,-7.0,0.0
27.0,-18.0,-175.0,-2.0,0.0,-3.0,-5.0,-22.0,4.0,1.0,0.0
14.0,-10.0,-90.0,4.0,7.0,0.0,-12.0,-22.0,-7.0,-10.0,0.0
-2.0,-15.0,6.0,-2.0,14.0,-10.0,-13.0,-29.0,-20.0,-25.0,0.0
-4.0,-20.0,90.0,-13.0,5.0,-18.0,-18.0,-27.0,-29.0,-14.0,0.0
12.0,-28.0,133.0,-21.0,-2.0,-16.0,-12.0,-14.0,-8.0,3.0,0.0
13.0,-30.0,212.0,-19.0,2.0,-17.0,-20.0,-14.0,3.0,17.0,0.0
14.0,-25.0,319.0,-29.0,1.0,-26.0,-30.0,-20.0,-3.0,28.0,0.0
-3.0,-30.0,364.0,-22.0,11.0,-31.0,-13.0,-14.0,1.0,16.0,0.0
-27.0,-41.0,356.0,-6.0,17.0,-17.0,-18.0,-7.0,3.0,1.0,0.0
-35.0,-26.0,275.0,10.0,25.0,6.0,-18.0,-13.0,8.0,-4.0,0.0
-52.0,-17.0,140.0,14.0,34.0,16.0,-9.0,-18.0,7.0,-25.0,0.0
-45.0,-18.0,9.0,4.0,37.0,9.0,-4.0,-22.0,3.0,-18.0,0.0
-12.0,0.0,-58.0,-5.0,28.0,-1.0,-16.0,-9.0,8.0,14.0,0.0
6.0,14.0,-151.0,-10.0,18.0,-8.0,-6.0,-4.0,21.0,30.0,0.0
7.0,38.0,-220.0,-5.0,30.0,-2.0,3.0,3.0,50.0,29.0,0.0
24.0,56.0,-211.0,-5.0,27.0,-6.0,-6.0,7.0,71.0,30.0,0.0
42.0,58.0,-180.0,-9.0,26.0,6.0,-6.0,0.0,76.0,26.0,0.0
50.0,38.0,-139.0,-13.0,16.0,14.0,0.0,4.0,21.0,26.0,0.0
54.0,22.0,-66.0,-21.0,3.0,13.0,-6.0,11.0,-7.0,34.0,0.0
36.0,3.0,37.0,-38.0,-6.0,8.0,-6.0,-5.0,-23.0,21.0,0.0
11.0,-15.0,113.0,-40.0,-9.0,3.0,-10.0,-9.0,-48.0,11.0,0.0
7.0,-18.0,192.0,-38.0,-5.0,-7.0,-33.0,-16.0,-57.0,9.0,0.0
6.0,-28.0,295.0,-33.0,1.0,-4.0,-51.0,-23.0,-55.0,5.0,0.0
-16.0,-33.0,304.0,-21.0,6.0,5.0,-44.0,-12.0,-44.0,-4.0,0.0
-10.0,-35.0,306.0,-8.0,4.0,-2.0,-42.0,-6.0,-19.0,10.0,0.0
12.0,-27.0,334.0,-7.0,-2.0,-8.0,-44.0,-3.0,-2.0,39.0,0.0
13.0,-21.0,250.0,-16.0,-5.0,-6.0,-44.0,6.0,20.0,59.0,0.0
3.0,-20.0,165.0,-21.0,-6.0,-18.0,-42.0,7.0,32.0,67.0,0.0
-3.0,-19.0,61.0,-28.0,-11.0,-21.0,-48.0,17.0,41.0,64.0,0.0
-4.0,-19.0,-36.0,-29.0,-33.0,-5.0,-59.0,19.0,38.0,52.0,0.0
-1.0,-12.0,-126.0,-21.0,-42.0,-5.0,-47.0,19.0,34.0,55.0,0.0
5.0,0.0,-183.0,-9.0,-46.0,-2.0,-35.0,6.0,30.0,61.0,0.0
8.0,13.0,-202.0,-7.0,-34.0,-11.0,-38.0,10.0,39.0,51.0,0.0
-5.0,12.0,-187.0,-12.0,-20.0,-14.0,-37.0,15.0,69.0,35.0,0.0
-12.0,10.0,-110.0,-2.0,-21.0,-2.0,-3.0,21.0,103.0,15.0,0.0
-19.0,14.0,-28.0,12.0,-10.0,0.0,7.0,29.0,135.0,11.0,0.0
-21.0,15.0,70.0,15.0,3.0,-1.0,-7.0,20.0,99.0,0.0,0.0
-23.0,6.0,164.0,20.0,4.0,7.0,-15.0,20.0,13.0,-17.0,0.0
-20.0,-2.0,240.0,31.0,13.0,14.0,-14.0,22.0,-61.0,-30.0,0.0
-4.0,8.0,249.0,27.0,17.0,17.0,-9.0,18.0,-79.0,-34.0,0.0
-9.0,9.0,285.0,29.0,16.0,14.0,8.0,7.0,-58.0,-51.0,0.0
-18.0,8.0,338.0,27.0,11.0,-3.0,33.0,2.0,-61.0,-49.0,0.0
-9.0,0.0,301.0,16.0,12.0,0.0,24.0,9.0,-42.0,-43.0,0.0
-11.0,-3.0,202.0,21.0,15.0,13.0,-14.0,12.0,-21.0,-27.0,0.0
-6.0,-2.0,95.0,24.0,10.0,17.0,-7.0,18.0,-7.0,-21.0,0.0
-13.0,-3.0,0.0,31.0,19.0,14.0,3.0,17.0,-12.0,-14.0,0.0
-25.0,0.0,-90.0,10.0,14.0,7.0,17.0,13.0,-11.0,-19.0,0.0
-23.0,10.0,-176.0,-1.0,7.0,-4.0,20.0,18.0,-9.0,-20.0,0.0
-20.0,13.0,-198.0,0.0,-1.0,-13.0,22.0,9.0,-15.0,-20.0,0.0
-14.0,16.0,-186.0,6.0,-3.0,-5.0,23.0,-2.0,-28.0,-14.0,0.0
-7.0,23.0,-141.0,24.0,-14.0,-7.0,-7.0,1.0,-37.0,-9.0,0.0
6.0,32.0,-65.0,12.0,-19.0,-5.0,-32.0,-1.0,-27.0,-3.0,0.0
22.0,38.0,17.0,10.0,-27.0,-8.0,-28.0,-6.0,-25.0,2.0,0.0
13.0,16.0,91.0,16.0,-27.0,-12.0,-23.0,3.0,-41.0,-9.0,0.0
5.0,19.0,190.0,23.0,-24.0,-16.0,-14.0,9.0,-34.0,-25.0,0.0
11.0,17.0,294.0,23.0,-24.0,-13.0,-12.0,12.0,-34.0,-34.0,0.0
9.0,5.0,338.0,11.0,-29.0,-5.0,-12.0,14.0,-33.0,-32.0,0.0
-6.0,2.0,337.0,24.0,-24.0,-6.0,-16.0,8.0,-28.0,-40.0,0.0
0.0,10.0,321.0,36.0,-14.0,-1.0,-22.0,5.0,0.0,-51.0,0.0
21.0,16.0,215.0,37.0,-4.0,3.0,-22.0,4.0,18.0,-28.0,0.0
79.0,10.0,104.0,33.0,7.0,-3.0,11.0,0.0,24.0,13.0,0.0
69.0,-8.0,1.0,31.0,2.0,-5.0,41.0,2.0,-14.0,2.0,0.0
22.0,-14.0,-115.0,30.0,-8.0,-4.0,27.0,8.0,-34.0,-11.0,0.0
3.0,-15.0,-223.0,19.0,-15.0,0.0,21.0,8.0,-31.0,-15.0,0.0
-12.0,-3.0,-272.0,21.0,-16.0,3.0,27.0,5.0,-18.0,-26.0,0.0
-15.0,-6.0,-231.0,19.0,-14.0,13.0,28.0,12.0,-25.0,-36.0,0.0
-9.0,-3.0,-195.0,-1.0,-12.0,11.0,-4.0,12.0,-43.0,-44.0,0.0
-10.0,12.0,-132.0,-13.0,-16.0,10.0,-35.0,16.0,-54.0,-33.0,0.0
5.0,19.0,-83.0,-9.0,-21.0,-6.0,-40.0,5.0,-34.0,-25.0,0.0
2.0,25.0,-43.0,3.0,-10.0,-13.0,-37.0,4.0,-29.0,-11.0,0.0
-2.0,4.0,68.0,12.0,12.0,-11.0,-40.0,4.0,-23.0,-12.0,0.0
-4.0,-1.0,166.0,19.0,19.0,-11.0,-32.0,0.0,0.0,-20.0,0.0
-7.0,-4.0,226.0,16.0,19.0,-23.0,-20.0,-2.0,3.0,-30.0,0.0
-14.0,-12.0,249.0,-2.0,1.0,-25.0,-20.0,-9.0,8.0,-31.0,0.0
-4.0,-3.0,260.0,-13.0,-26.0,-35.0,-23.0,-11.0,10.0,-22.0,0.0
-12.0,-19.0,234.0,-20.0,-36.0,-39.0,-22.0,-14.0,26.0,-19.0,0.0
-6.0,-22.0,141.0,-25.0,-42.0,-37.0,-19.0,-14.0,33.0,-12.0,0.0
-3.0,-25.0,29.0,-27.0,-34.0,-37.0,-18.0,-12.0,43.0,-8.0,0.0
-4.0,-6.0,-72.0,-21.0,-35.0,-35.0,-8.0,-11.0,73.0,0.0,0.0
20.0,24.0,-147.0,-20.0,-35.0,-21.0,-1.0,-2.0,97.0,10.0,0.0
41.0,44.0,-199.0,-13.0,-32.0,-3.0,15.0,2.0,74.0,26.0,0.0
40.0,16.0,-277.0,-9.0,-18.0,0.0,21.0,4.0,5.0,24.0,0.0
38.0,0.0,-285.0,-17.0,-3.0,-6.0,15.0,7.0,-18.0,29.0,0.0
25.0,-10.0,-252.0,-14.0,0.0,4.0,4.0,4.0,-45.0,18.0,0.0
7.0,-20.0,-220.0,-17.0,-7.0,8.0,-6.0,-15.0,-58.0,-3.0,0.0
-6.0,-22.0,-111.0,-11.0,-12.0,13.0,0.0,-20.0,-41.0,-8.0,0.0
-20.0,-20.0,-7.0,-3.0,-19.0,6.0,14.0,-13.0,-19.0,4.0,0.0
-18.0,-22.0,102.0,-7.0,-8.0,4.0,32.0,-5.0,-1.0,3.0,0.0
-20.0,-28.0,218.0,-12.0,-1.0,-8.0,36.0,-7.0,21.0,-1.0,0.0
-6.0,-22.0,292.0,-16.0,0.0,-15.0,17.0,1.0,33.0,6.0,0.0
-4.0,-18.0,266.0,-4.0,-12.0,-7.0,3.0,-9.0,24.0,20.0,0.0
-5.0,-19.0,193.0,0.0,-12.0,0.0,-9.0,-15.0,36.0,31.0,0.0
4.0,-15.0,187.0,3.0,-2.0,0.0,-9.0,-18.0,33.0,44.0,0.0
16.0,0.0,126.0,6.0,-5.0,-9.0,-6.0,-6.0,29.0,58.0,0.0
31.0,15.0,32.0,9.0,-14.0,-9.0,-17.0,12.0,32.0,73.0,0.0
47.0,22.0,-133.0,7.0,-11.0,-4.0,-16.0,6.0,34.0,75.0,0.0
40.0,26.0,-242.0,26.0,6.0,4.0,-3.0,8.0,29.0,71.0,0.0
33.0,5.0,-249.0,17.0,12.0,10.0,14.0,13.0,29.0,49.0,0.0
26.0,-9.0,-249.0,9.0,17.0,4.0,18.0,12.0,7.0,30.0,0.0
20.0,-1.0,-238.0,18.0,31.0,2.0,9.0,9.0,-16.0,18.0,0.0
11.0,4.0,-190.0,9.0,39.0,17.0,-12.0,5.0,-44.0,16.0,0.0
14.0,2.0,-107.0,-2.0,41.0,31.0,-19.0,3.0,-43.0,14.0,0.0
22.0,0.0,-15.0,-3.0,35.0,34.0,4.0,0.0,-45.0,9.0,0.0
21.0,-3.0,90.0,2.0,29.0,30.0,13.0,-1.0,-44.0,0.0,0.0
12.0,-11.0,179.0,5.0,31.0,33.0,13.0,2.0,-31.0,-8.0,0.0
5.0,-11.0,247.0,2.0,35.0,26.0,-1.0,6.0,-21.0,-17.0,0.0
4.0,-5.0,255.0,5.0,44.0,27.0,10.0,0.0,-18.0,-21.0,0.0
23.0,-6.0,217.0,0.0,50.0,37.0,49.0,-3.0,-3.0,-20.0,0.0
42.0,-4.0,236.0,7.0,42.0,35.0,50.0,2.0,2.0,-19.0,0.0
44.0,-6.0,151.0,11.0,40.0,31.0,57.0,7.0,1.0,-19.0,0.0
26.0,4.0,-3.0,0.0,47.0,37.0,53.0,16.0,-2.0,-14.0,0.0
33.0,13.0,-122.0,-2.0,41.0,28.0,19.0,16.0,-5.0,-8.0,0.0
42.0,21.0,-184.0,-1.0,32.0,20.0,13.0,-2.0,-19.0,-23.0,0.0
50.0,32.0,-281.0,9.0,28.0,29.0,16.0,-3.0,-11.0,-31.0,0.0
48.0,18.0,-290.0,3.0,24.0,34.0,2.0,2.0,-28.0,-39.0,0.0
19.0,13.0,-248.0,-2.0,17.0,31.0,0.0,9.0,-53.0,-42.0,0.0
0.0,6.0,-225.0,9.0,22.0,14.0,11.0,8.0,-51.0,-30.0,0.0
-1.0,-1.0,-167.0,3.0,20.0,8.0,10.0,-10.0,-50.0,-31.0,0.0
4.0,-9.0,-88.0,-1.0,16.0,2.0,8.0,-13.0,-56.0,-37.0,0.0
-3.0,-13.0,-14.0,-2.0,16.0,-5.0,14.0,-3.0,-45.0,-26.0,0.0
10.0,-11.0,54.0,6.0,8.0,-13.0,-5.0,-4.0,-34.0,-13.0,0.0
3.0,-9.0,101.0,8.0,-3.0,-13.0,-17.0,-9.0,-24.0,-3.0,0.0
5.0,-15.0,157.0,0.0,-2.0,0.0,-17.0,5.0,-18.0,-12.0,0.0
-4.0,-19.0,188.0,0.0,-2.0,3.0,0.0,5.0,-9.0,-19.0,0.0
-22.0,-20.0,187.0,-18.0,-16.0,0.0,15.0,-3.0,14.0,-32.0,0.0
-31.0,-20.0,86.0,-10.0,-28.0,-9.0,10.0,8.0,49.0,-27.0,0.0
-24.0,-9.0,14.0,-8.0,-12.0,-10.0,3.0,10.0,71.0,-18.0,0.0
-4.0,7.0,-44.0,-12.0,-5.0,-4.0,10.0,17.0,73.0,-6.0,0.0
-5.0,12.0,-138.0,-18.0,-17.0,-15.0,31.0,33.0,59.0,-2.0,0.0
-6.0,1.0,-230.0,-27.0,-24.0,-25.0,33.0,38.0,30.0,-3.0,0.0
-9.0,-1.0,-306.0,-21.0,-23.0,-16.0,17.0,23.0,4.0,-17.0,0.0
-13.0,0.0,-365.0,-15.0,-7.0,0.0,4.0,14.0,-25.0,-26.0,0.0
-16.0,-1.0,-344.0,-2.0,5.0,0.0,-12.0,17.0,-27.0,-17.0,0.0
-16.0,0.0,-261.0,2.0,6.0,-10.0,-2.0,18.0,-5.0,-11.0,0.0
4.0,14.0,-170.0,17.0,4.0,-4.0,1.0,19.0,7.0,22.0,0.0
23.0,19.0,-58.0,21.0,13.0,-1.0,-12.0,10.0,4.0,53.0,0.0
8.0,23.0,24.0,2.0,5.0,-4.0,-4.0,12.0,0.0,52.0,0.0
14.0,23.0,90.0,1.0,-1.0,5.0,11.0,23.0,11.0,39.0,0.0
13.0,22.0,150.0,0.0,-10.0,10.0,20.0,30.0,15.0,29.0,0.0
25.0,23.0,211.0,-10.0,-9.0,3.0,8.0,28.0,24.0,33.0,0.0
37.0,9.0,201.0,-22.0,0.0,-2.0,9.0,17.0,12.0,18.0,0.0
35.0,12.0,167.0,-16.0,4.0,-5.0,10.0,10.0,-11.0,9.0,0.0
47.0,33.0,124.0,1.0,4.0,0.0,20.0,10.0,-15.0,15.0,0.0
51.0,47.0,-10.0,13.0,4.0,0.0,22.0,8.0,-11.0,8.0,0.0
42.0,43.0,-97.0,13.0,-5.0,0.0,-7.0,4.0,-9.0,-5.0,0.0
17.0,21.0,-180.0,17.0,-10.0,-7.0,-22.0,10.0,-33.0,-16.0,0.0
0.0,-16.0,-291.0,14.0,-4.0,0.0,-20.0,7.0,-33.0,-11.0,0.0
-7.0,-32.0,-342.0,3.0,-18.0,1.0,-18.0,8.0,-6.0,12.0,0.0
0.0,-38.0,-345.0,1.0,-28.0,-16.0,0.0,5.0,9.0,39.0,0.0
8.0,-28.0,-317.0,0.0,-28.0,-25.0,10.0,4.0,14.0,59.0,0.0
16.0,-13.0,-280.0,-4.0,-34.0,-9.0,16.0,0.0,34.0,71.0,0.0
3.0,9.0,-172.0,0.0,-34.0,-9.0,28.0,3.0,66.0,73.0,0.0
-2.0,15.0,-66.0,-9.0,-18.0,-5.0,10.0,10.0,73.0,69.0,0.0
-11.0,0.0,32.0,-10.0,-1.0,-5.0,7.0,8.0,51.0,54.0,0.0
-38.0,-23.0,120.0,0.0,20.0,5.0,-1.0,13.0,43.0,36.0,0.0
-53.0,-53.0,163.0,-3.0,39.0,13.0,-10.0,15.0,44.0,13.0,0.0
-76.0,-79.0,120.0,-8.0,37.0,20.0,0.0,19.0,45.0,-10.0,0.0
-86.0,-74.0,137.0,-9.0,46.0,30.0,12.0,12.0,27.0,-32.0,0.0
-84.0,-65.0,83.0,-13.0,49.0,22.0,13.0,12.0,0.0,-50.0,0.0
-73.0,-52.0,-15.0,-3.0,46.0,19.0,17.0,17.0,-32.0,-64.0,0.0
-61.0,-47.0,-86.0,10.0,44.0,18.0,22.0,25.0,-66.0,-67.0,0.0
-37.0,-22.0,-198.0,34.0,15.0,8.0,18.0,29.0,-57.0,-46.0,0.0
-21.0,9.0,-216.0,45.0,-5.0,-2.0,29.0,36.0,-29.0,-21.0,0.0
-24.0,7.0,-263.0,38.0,-1.0,0.0,39.0,40.0,-20.0,-25.0,0.0
-36.0,16.0,-287.0,28.0,11.0,-10.0,16.0,23.0,-18.0,-34.0,0.0
-34.0,36.0,-267.0,13.0,15.0,-3.0,16.0,15.0,-27.0,-16.0,0.0
-9.0,45.0,-212.0,-11.0,-3.0,-4.0,-11.0,0.0,-32.0,4.0,0.0
-1.0,29.0,-137.0,-25.0,-9.0,-18.0,5.0,-16.0,-13.0,7.0,0.0
-4.0,28.0,-65.0,-13.0,-2.0,-24.0,26.0,-9.0,15.0,14.0,0.0
-6.0,15.0,-29.0,0.0,-11.0,-14.0,15.0,0.0,18.0,28.0,0.0
-20.0,4.0,5.0,10.0,-10.0,7.0,29.0,9.0,10.0,34.0,0.0
-30.0,8.0,145.0,10.0,13.0,17.0,38.0,8.0,6.0,27.0,0.0
-25.0,12.0,243.0,-1.0,11.0,11.0,29.0,3.0,-4.0,32.0,0.0
3.0,20.0,276.0,14.0,5.0,8.0,-22.0,-3.0,-11.0,32.0,0.0
10.0,5.0,267.0,25.0,8.0,4.0,-52.0,-4.0,-13.0,30.0,0.0
15.0,0.0,193.0,0.0,0.0,5.0,-39.0,-1.0,-13.0,31.0,0.0
9.0,3.0,72.0,-13.0,-1.0,6.0,0.0,3.0,-8.0,33.0,0.0
7.0,-5.0,-44.0,-8.0,-4.0,7.0,12.0,3.0,-12.0,28.0,0.0
13.0,2.0,-189.0,-3.0,-16.0,5.0,32.0,2.0,-5.0,21.0,0.0
27.0,9.0,-317.0,-5.0,-30.0,-6.0,-2.0,0.0,8.0,26.0,0.0
36.0,12.0,-345.0,0.0,-28.0,-6.0,-24.0,-9.0,13.0,15.0,0.0
22.0,19.0,-309.0,9.0,-17.0,8.0,-13.0,-7.0,8.0,24.0,0.0
14.0,11.0,-277.0,6.0,-15.0,10.0,-11.0,-2.0,7.0,25.0,0.0
14.0,7.0,-207.0,1.0,-21.0,10.0,-19.0,-14.0,9.0,9.0,0.0
10.0,25.0,-111.0,3.0,-18.0,0.0,-20.0,-16.0,2.0,-2.0,0.0
20.0,27.0,-11.0,-3.0,-2.0,-3.0,-14.0,-16.0,-17.0,-7.0,0.0
14.0,22.0,74.0,3.0,5.0,2.0,-12.0,-11.0,-29.0,-15.0,0.0
4.0,33.0,121.0,5.0,0.0,8.0,-18.0,-26.0,-28.0,-17.0,0.0
5.0,37.0,170.0,10.0,-8.0,9.0,-22.0,-37.0,-33.0,-8.0,0.0
12.0,40.0,260.0,10.0,1.0,11.0,-10.0,-27.0,-30.0,-4.0,0.0
21.0,40.0,287.0,4.0,8.0,8.0,-12.0,-33.0,-26.0,-2.0,0.0
12.0,43.0,234.0,4.0,6.0,1.0,-17.0,-25.0,-21.0,0.0,0.0
5.0,38.0,133.0,3.0,6.0,-3.0,-11.0,-10.0,-7.0,0.0,0.0
16.0,32.0,27.0,-5.0,1.0,-5.0,0.0,0.0,16.0,-3.0,0.0
20.0,22.0,-70.0,0.0,5.0,-10.0,0.0,-8.0,7.0,-18.0,0.0
22.0,11.0,-167.0,6.0,7.0,-11.0,-16.0,-9.0,-10.0,-6.0,0.0
16.0,12.0,-318.0,3.0,3.0,-3.0,-28.0,-3.0,-12.0,5.0,0.0
0.0,4.0,-341.0,2.0,4.0,0.0,-18.0,-1.0,-14.0,8.0,0.0
-11.0,-10.0,-318.0,-5.0,12.0,8.0,-10.0,1.0,-21.0,-6.0,0.0
-35.0,-20.0,-286.0,-11.0,19.0,9.0,-14.0,0.0,-40.0,-24.0,0.0
-49.0,-23.0,-234.0,-19.0,10.0,3.0,-19.0,-5.0,-39.0,-37.0,0.0
-47.0,-26.0,-152.0,-9.0,3.0,3.0,-24.0,-8.0,-27.0,-34.0,0.0
-59.0,-26.0,-49.0,-2.0,9.0,6.0,0.0,0.0,-14.0,-37.0,0.0
-62.0,-13.0,40.0,4.0,22.0,12.0,5.0,-8.0,14.0,-40.0,0.0
-55.0,-4.0,126.0,-4.0,29.0,19.0,11.0,-26.0,42.0,-53.0,0.0
-39.0,6.0,197.0,8.0,34.0,27.0,20.0,-18.0,36.0,-61.0,0.0
-27.0,14.0,240.0,16.0,40.0,24.0,22.0,-12.0,14.0,-47.0,0.0
-20.0,12.0,235.0,10.0,32.0,15.0,5.0,-21.0,4.0,-43.0,0.0
5.0,4.0,174.0,3.0,22.0,-1.0,11.0,-23.0,-8.0,-29.0,0.0
46.0,0.0,66.0,-2.0,0.0,-18.0,17.0,-25.0,-22.0,14.0,0.0
60.0,-14.0,-39.0,7.0,-12.0,-32.0,13.0,-22.0,-16.0,50.0,0.0
44.0,-36.0,-145.0,8.0,-16.0,-37.0,24.0,-24.0,29.0,64.0,0.0
41.0,-38.0,-233.0,-3.0,-22.0,-42.0,13.0,-7.0,70.0,77.0,0.0
43.0,-35.0,-289.0,-13.0,-29.0,-43.0,0.0,4.0,86.0,89.0,0.0
30.0,-24.0,-324.0,-22.0,-21.0,-41.0,-4.0,5.0,80.0,96.0,0.0
28.0,-21.0,-304.0,-15.0,-7.0,-43.0,14.0,8.0,67.0,78.0,0.0
30.0,-12.0,-257.0,7.0,12.0,-15.0,36.0,6.0,57.0,65.0,0.0
27.0,3.0,-184.0,17.0,14.0,-1.0,45.0,7.0,54.0,43.0,0.0
23.0,5.0,-106.0,24.0,12.0,-6.0,28.0,12.0,38.0,32.0,0.0
6.0,1.0,31.0,23.0,0.0,-3.0,19.0,10.0,26.0,20.0,0.0
10.0,-7.0,131.0,16.0,-6.0,-15.0,11.0,5.0,26.0,16.0,0.0
7.0,-6.0,209.0,1.0,-5.0,-16.0,16.0,5.0,16.0,9.0,0.0
7.0,8.0,273.0,8.0,0.0,-11.0,9.0,0.0,-7.0,-20.0,0.0
-1.0,24.0,274.0,12.0,-5.0,-10.0,-1.0,0.0,-44.0,-32.0,0.0
4.0,45.0,246.0,9.0,-18.0,-8.0,0.0,-9.0,-50.0,-36.0,0.0
19.0,53.0,182.0,19.0,-8.0,-7.0,-11.0,-4.0,-24.0,-17.0,0.0
18.0,38.0,58.0,16.0,-8.0,-3.0,-16.0,2.0,-8.0,12.0,0.0
17.0,29.0,-31.0,12.0,-17.0,2.0,-7.0,6.0,-19.0,21.0,0.0
1.0,13.0,-145.0,15.0,-8.0,0.0,-13.0,-5.0,-26.0,2.0,0.0
-42.0,-11.0,-230.0,27.0,-2.0,11.0,-19.0,-9.0,-22.0,-13.0,0.0
-45.0,-16.0,-253.0,29.0,-3.0,11.0,-6.0,-5.0,-21.0,-26.0,0.0
-35.0,-16.0,-260.0,9.0,0.0,12.0,12.0,10.0,-17.0,-25.0,0.0
-40.0,-8.0,-259.0,3.0,-1.0,20.0,40.0,11.0,-14.0,-25.0,0.0
-25.0,-8.0,-224.0,1.0,5.0,13.0,58.0,7.0,5.0,-24.0,0.0
-16.0,-19.0,-94.0,-7.0,15.0,1.0,19.0,-3.0,15.0,-18.0,0.0
-8.0,-21.0,18.0,-13.0,10.0,-1.0,0.0,0.0,3.0,-26.0,0.0
-8.0,-24.0,95.0,-6.0,14.0,9.0,-12.0,-6.0,-5.0,-25.0,0.0
2.0,-18.0,161.0,7.0,8.0,8.0,-11.0,-4.0,-7.0,-20.0,0.0
23.0,-5.0,215.0,22.0,-6.0,-7.0,0.0,8.0,18.0,-7.0,0.0
34.0,-15.0,247.0,31.0,-8.0,-4.0,0.0,6.0,8.0,-9.0,0.0
38.0,-30.0,251.0,21.0,-7.0,-4.0,-5.0,12.0,5.0,-12.0,0.0
37.0,-29.0,187.0,15.0,-4.0,-2.0,0.0,2.0,6.0,9.0,0.0
40.0,-14.0,93.0,8.0,-4.0,-1.0,2.0,1.0,9.0,38.0,0.0
48.0,-12.0,3.0,3.0,-2.0,-2.0,10.0,-5.0,12.0,47.0,0.0
39.0,-11.0,-95.0,2.0,0.0,-2.0,9.0,-9.0,4.0,39.0,0.0
36.0,-12.0,-189.0,5.0,2.0,-5.0,21.0,-2.0,-7.0,31.0,0.0
29.0,-16.0,-263.0,5.0,-3.0,0.0,41.0,-4.0,-6.0,21.0,0.0
23.0,-9.0,-305.0,1.0,-2.0,8.0,45.0,-6.0,-4.0,9.0,0.0
20.0,4.0,-304.0,-3.0,3.0,-2.0,49.0,0.0,9.0,6.0,0.0
10.0,12.0,-280.0,4.0,12.0,5.0,44.0,7.0,11.0,2.0,0.0
16.0,12.0,-204.0,4.0,8.0,11.0,31.0,10.0,8.0,5.0,0.0
22.0,19.0,-111.0,2.0,-2.0,9.0,20.0,3.0,12.0,8.0,0.0
18.0,11.0,-27.0,5.0,-5.0,0.0,-2.0,-14.0,10.0,13.0,0.0
13.0,-6.0,64.0,22.0,2.0,0.0,-32.0,-14.0,0.0,17.0,0.0
2.0,-16.0,158.0,28.0,6.0,9.0,-26.0,-8.0,-2.0,5.0,0.0
-17.0,-20.0,219.0,13.0,9.0,0.0,-30.0,-4.0,3.0,-1.0,0.0
-33.0,-17.0,244.0,0.0,-1.0,-9.0,-33.0,-6.0,-2.0,-15.0,0.0
-31.0,-27.0,239.0,-8.0,7.0,3.0,-27.0,1.0,-16.0,-20.0,0.0
-22.0,-29.0,132.0,-15.0,8.0,14.0,-11.0,14.0,-23.0,-19.0,0.0
-18.0,-22.0,1.0,-15.0,1.0,15.0,-20.0,17.0,-23.0,-27.0,0.0
-9.0,-5.0,-71.0,-9.0,-4.0,11.0,-23.0,12.0,-14.0,-23.0,0.0
7.0,6.0,-135.0,0.0,-2.0,10.0,-10.0,12.0,0.0,-13.0,0.0
5.0,23.0,-198.0,-5.0,-5.0,7.0,-2.0,6.0,0.0,-7.0,0.0
5.0,32.0,-261.0,-9.0,-8.0,0.0,-3.0,8.0,24.0,-2.0,0.0
12.0,30.0,-277.0,-11.0,-21.0,-10.0,9.0,10.0,41.0,3.0,0.0
8.0,28.0,-258.0,-4.0,-35.0,0.0,27.0,16.0,33.0,5.0,0.0
7.0,18.0,-219.0,-12.0,-41.0,6.0,34.0,8.0,36.0,1.0,0.0
-9.0,1.0,-140.0,-24.0,-32.0,9.0,20.0,5.0,30.0,-17.0,0.0
-19.0,-10.0,-54.0,-14.0,-22.0,13.0,9.0,-6.0,19.0,-42.0,0.0
-23.0,-9.0,31.0,-5.0,-11.0,14.0,-30.0,0.0,15.0,-44.0,0.0
-22.0,-2.0,111.0,-16.0,-1.0,9.0,-41.0,7.0,24.0,-35.0,0.0
-25.0,-1.0,148.0,-5.0,16.0,8.0,-15.0,-6.0,9.0,-34.0,0.0
-16.0,3.0,229.0,9.0,32.0,10.0,18.0,-5.0,-13.0,-36.0,0.0
-12.0,-3.0,259.0,19.0,36.0,11.0,26.0,-9.0,-35.0,-41.0,0.0
-16.0,-15.0,191.0,13.0,25.0,8.0,27.0,-10.0,-37.0,-41.0,0.0
-15.0,-22.0,149.0,5.0,18.0,7.0,24.0,2.0,-31.0,-29.0,0.0
-14.0,-22.0,55.0,5.0,18.0,11.0,25.0,12.0,-28.0,-29.0,0.0
-20.0,-25.0,-57.0,9.0,14.0,19.0,23.0,9.0,-19.0,-27.0,0.0
-25.0,-25.0,-138.0,9.0,14.0,19.0,21.0,12.0,-11.0,-41.0,0.0
-21.0,-21.0,-217.0,15.0,16.0,9.0,16.0,7.0,-14.0,-49.0,0.0
8.0,-17.0,-272.0,26.0,19.0,15.0,10.0,8.0,-23.0,-37.0,0.0
17.0,-17.0,-261.0,24.0,21.0,12.0,0.0,0.0,-19.0,-21.0,0.0
27.0,-3.0,-221.0,17.0,16.0,5.0,3.0,3.0,-28.0,0.0,0.0
27.0,3.0,-141.0,7.0,1.0,-4.0,-8.0,9.0,-26.0,4.0,0.0
32.0,8.0,-49.0,-1.0,1.0,-4.0,-18.0,0.0,-23.0,0.0,0.0
34.0,9.0,33.0,-6.0,9.0,0.0,-8.0,-3.0,-19.0,1.0,0.0
18.0,15.0,107.0,-6.0,10.0,-2.0,-17.0,-5.0,-20.0,16.0,0.0
21.0,19.0,216.0,-21.0,0.0,-4.0,-22.0,5.0,-18.0,34.0,0.0
21.0,19.0,277.0,-37.0,-11.0,-5.0,-42.0,-6.0,-16.0,27.0,0.0
6.0,15.0,302.0,-32.0,-12.0,-14.0,-70.0,-18.0,-9.0,20.0,0.0
-12.0,-5.0,304.0,-42.0,-7.0,-16.0,-76.0,-17.0,2.0,7.0,0.0
-16.0,-3.0,237.0,-40.0,-3.0,-20.0,-73.0,-19.0,22.0,2.0,0.0
-9.0,13.0,120.0,-27.0,1.0,-15.0,-71.0,-7.0,47.0,33.0,0.0
2.0,17.0,6.0,-21.0,4.0,-16.0,-75.0,3.0,64.0,44.0,0.0
9.0,23.0,-88.0,-15.0,-6.0,-21.0,-74.0,14.0,86.0,46.0,0.0
-4.0,20.0,-167.0,-11.0,-13.0,-18.0,-58.0,18.0,84.0,47.0,0.0
-25.0,-2.0,-263.0,-5.0,-8.0,0.0,-44.0,21.0,79.0,21.0,0.0
-40.0,-9.0,-319.0,-2.0,-4.0,9.0,-25.0,12.0,75.0,0.0,0.0
-49.0,-11.0,-315.0,-9.0,-1.0,7.0,1.0,6.0,40.0,-11.0,0.0
-41.0,-23.0,-246.0,0.0,-4.0,6.0,-9.0,4.0,35.0,-8.0,0.0
-15.0,-29.0,-136.0,2.0,-4.0,3.0,-25.0,12.0,11.0,0.0,0.0
0.0,-40.0,-35.0,4.0,-2.0,-13.0,-29.0,11.0,-7.0,4.0,0.0
-22.0,-48.0,41.0,0.0,-1.0,-4.0,-31.0,17.0,-25.0,-1.0,0.0
-48.0,-36.0,129.0,0.0,3.0,7.0,-18.0,8.0,-16.0,-16.0,0.0
-47.0,-23.0,217.0,3.0,0.0,2.0,-5.0,5.0,-12.0,-17.0,0.0
-38.0,-21.0,272.0,-6.0,0.0,7.0,11.0,8.0,-19.0,-12.0,0.0
-43.0,-24.0,271.0,2.0,5.0,8.0,33.0,-2.0,-38.0,-3.0,0.0
-51.0,-27.0,262.0,2.0,7.0,0.0,36.0,-3.0,-42.0,-2.0,0.0
-43.0,-14.0,172.0,-8.0,-1.0,7.0,34.0,-6.0,-21.0,-12.0,0.0
-39.0,-1.0,76.0,0.0,0.0,14.0,28.0,0.0,-12.0,-13.0,0.0
-22.0,7.0,-36.0,10.0,-7.0,5.0,32.0,13.0,-4.0,-6.0,0.0
-5.0,12.0,-124.0,9.0,-9.0,1.0,27.0,21.0,-4.0,12.0,0.0
-6.0,15.0,-177.0,9.0,0.0,2.0,19.0,15.0,-7.0,41.0,0.0
-10.0,24.0,-226.0,12.0,13.0,2.0,4.0,8.0,11.0,49.0,0.0
-7.0,23.0,-245.0,17.0,18.0,7.0,3.0,17.0,25.0,35.0,0.0
7.0,30.0,-214.0,12.0,12.0,4.0,16.0,17.0,31.0,33.0,0.0
31.0,32.0,-169.0,10.0,8.0,-2.0,26.0,9.0,34.0,47.0,0.0
25.0,35.0,-73.0,17.0,9.0,-12.0,15.0,1.0,23.0,61.0,0.0
6.0,41.0,15.0,11.0,14.0,-13.0,9.0,3.0,10.0,45.0,0.0
7.0,42.0,86.0,12.0,6.0,-5.0,6.0,6.0,7.0,31.0,0.0
14.0,39.0,170.0,9.0,0.0,3.0,-17.0,1.0,-3.0,28.0,0.0
11.0,41.0,224.0,8.0,1.0,1.0,-25.0,8.0,3.0,18.0,0.0
6.0,21.0,285.0,4.0,6.0,-12.0,-29.0,10.0,-1.0,12.0,0.0
5.0,18.0,330.0,3.0,-3.0,-9.0,-14.0,9.0,-21.0,4.0,0.0
5.0,26.0,278.0,2.0,-12.0,0.0,-7.0,6.0,-22.0,-1.0,0.0
4.0,19.0,156.0,-9.0,-14.0,8.0,-1.0,9.0,-9.0,-8.0,0.0
0.0,20.0,41.0,-2.0,-11.0,5.0,-9.0,10.0,-4.0,-28.0,0.0
0.0,24.0,-90.0,6.0,-18.0,4.0,9.0,17.0,-2.0,-34.0,0.0
1.0,27.0,-205.0,5.0,-16.0,-3.0,12.0,31.0,-1.0,-34.0,0.0
1.0,22.0,-240.0,12.0,-21.0,-14.0,-3.0,35.0,-9.0,-28.0,0.0
-7.0,12.0,-261.0,12.0,-17.0,-4.0,-13.0,30.0,-19.0,-31.0,0.0
-23.0,7.0,-264.0,3.0,-23.0,1.0,-3.0,20.0,-24.0,-41.0,0.0
-17.0,1.0,-236.0,-3.0,-26.0,4.0,13.0,17.0,-15.0,-31.0,0.0
-5.0,2.0,-161.0,-8.0,-20.0,-4.0,-7.0,16.0,-7.0,-16.0,0.0
6.0,14.0,-56.0,-8.0,-3.0,-8.0,-11.0,3.0,-4.0,-8.0,0.0
8.0,16.0,25.0,-4.0,-8.0,-1.0,-7.0,8.0,1.0,-9.0,0.0
-8.0,8.0,96.0,2.0,-24.0,-5.0,-17.0,22.0,2.0,-11.0,0.0
-19.0,7.0,186.0,-4.0,-26.0,-15.0,-26.0,16.0,-6.0,-2.0,0.0
-30.0,2.0,247.0,1.0,-18.0,-5.0,-26.0,15.0,-7.0,0.0,0.0
-21.0,3.0,268.0,7.0,-7.0,6.0,-7.0,13.0,10.0,-6.0,0.0
4.0,17.0,268.0,14.0,8.0,10.0,30.0,9.0,1.0,-7.0,0.0
-5.0,8.0,177.0,8.0,20.0,16.0,48.0,9.0,-41.0,-14.0,0.0
