channel0,channel1,channel2,channel3,channel4,channel5,channel6,channel7,channel8,channel9,true_locs
-44.0,-45.0,-17.0,-12.0,-4.0,26.0,-34.0,2.0,-103.0,-80.0,0.0
-23.0,-45.0,-6.0,-44.0,-1.0,20.0,-23.0,-5.0,-102.0,-70.0,0.0
43.0,2.0,21.0,-13.0,9.0,19.0,-36.0,-22.0,-85.0,10.0,0.0
83.0,10.0,29.0,5.0,3.0,16.0,-48.0,-33.0,-85.0,32.0,0.0
55.0,31.0,12.0,11.0,-3.0,26.0,-32.0,-26.0,-93.0,7.0,0.0
10.0,48.0,-71.0,-4.0,-6.0,24.0,-39.0,-27.0,-92.0,-16.0,0.0
-8.0,19.0,-55.0,-4.0,-13.0,13.0,-54.0,-25.0,-85.0,-25.0,0.0
0.0,-1.0,-3.0,-2.0,-24.0,11.0,-42.0,-17.0,-57.0,-25.0,0.0
-9.0,-2.0,4.0,-1.0,-17.0,0.0,-23.0,-19.0,-62.0,-32.0,0.0
-32.0,-6.0,-9.0,-6.0,-17.0,-8.0,-10.0,-21.0,-79.0,-34.0,0.0
-27.0,-3.0,1.0,3.0,-23.0,-9.0,-10.0,-10.0,-72.0,-28.0,0.0
-32.0,3.0,15.0,-1.0,-34.0,-1.0,-7.0,-17.0,-66.0,-46.0,0.0
-51.0,-15.0,4.0,-19.0,-40.0,-1.0,-4.0,-24.0,-70.0,-51.0,0.0
-32.0,-29.0,15.0,-5.0,-27.0,-2.0,-4.0,-22.0,-30.0,-14.0,0.0
17.0,-24.0,21.0,0.0,-35.0,-20.0,-19.0,-11.0,2.0,51.0,0.0
36.0,-20.0,-37.0,-5.0,-38.0,-20.0,-18.0,2.0,19.0,57.0,0.0
30.0,-14.0,-9.0,-8.0,-25.0,-15.0,-24.0,3.0,33.0,41.0,0.0
20.0,-4.0,25.0,6.0,-15.0,-19.0,-33.0,-8.0,19.0,28.0,0.0
4.0,21.0,22.0,25.0,-11.0,-10.0,-32.0,-8.0,38.0,21.0,0.0
0.0,29.0,-24.0,27.0,-15.0,1.0,-14.0,-4.0,52.0,2.0,0.0
4.0,37.0,-75.0,26.0,-28.0,12.0,-18.0,7.0,62.0,0.0,0.0
-2.0,44.0,12.0,24.0,-28.0,15.0,-3.0,9.0,52.0,4.0,0.0
-13.0,28.0,33.0,26.0,-13.0,18.0,19.0,3.0,23.0,-17.0,0.0
-29.0,10.0,27.0,25.0,-7.0,16.0,22.0,10.0,12.0,-41.0,0.0
-41.0,10.0,-8.0,26.0,-7.0,9.0,25.0,8.0,-11.0,-64.0,0.0
-48.0,2.0,-6.0,19.0,-6.0,7.0,-7.0,8.0,-40.0,-65.0,0.0
-53.0,0.0,7.0,9.0,-8.0,9.0,-27.0,-1.0,-46.0,-47.0,0.0
-25.0,13.0,-82.0,7.0,-9.0,8.0,-14.0,1.0,-33.0,-35.0,0.0
22.0,18.0,-70.0,7.0,-4.0,15.0,-4.0,-2.0,-12.0,-11.0,0.0
41.0,33.0,39.0,16.0,-1.0,12.0,4.0,-4.0,-10.0,18.0,0.0
38.0,47.0,49.0,23.0,-1.0,10.0,-22.0,-17.0,-36.0,1.0,0.0
51.0,44.0,43.0,17.0,1.0,2.0,-38.0,-15.0,-49.0,-32.0,0.0
40.0,23.0,12.0,3.0,4.0,1.0,-32.0,1.0,-46.0,-45.0,0.0
23.0,5.0,2.0,-12.0,0.0,9.0,-29.0,8.0,-39.0,-38.0,0.0
39.0,14.0,16.0,-18.0,-14.0,-1.0,-29.0,3.0,-15.0,17.0,0.0
58.0,5.0,13.0,-21.0,-26.0,-11.0,-25.0,2.0,0.0,52.0,0.0
29.0,-23.0,5.0,-27.0,-34.0,0.0,-19.0,4.0,-14.0,18.0,0.0
-7.0,-52.0,-7.0,-25.0,-24.0,0.0,-11.0,-7.0,0.0,-3.0,0.0
-27.0,-62.0,-1.0,-21.0,-17.0,-6.0,-6.0,-16.0,16.0,12.0,0.0
-33.0,-69.0,2.0,-19.0,-16.0,-12.0,-11.0,-13.0,47.0,31.0,0.0
-36.0,-66.0,-24.0,-21.0,-25.0,-13.0,9.0,0.0,69.0,32.0,0.0
-45.0,-59.0,-106.0,-23.0,-29.0,-22.0,18.0,-5.0,57.0,17.0,0.0
-41.0,-49.0,-52.0,-22.0,-17.0,-29.0,24.0,4.0,66.0,26.0,0.0
-16.0,-40.0,-19.0,-15.0,-9.0,-15.0,31.0,7.0,76.0,37.0,0.0
-9.0,-18.0,-58.0,-19.0,-4.0,-1.0,30.0,5.0,67.0,44.0,0.0
-11.0,7.0,-74.0,-18.0,0.0,-1.0,48.0,20.0,107.0,15.0,0.0
-25.0,11.0,-136.0,-2.0,-3.0,6.0,82.0,26.0,66.0,-9.0,0.0
0.0,16.0,-136.0,-3.0,-10.0,6.0,81.0,30.0,55.0,-6.0,0.0
32.0,31.0,-93.0,-9.0,-7.0,5.0,54.0,23.0,54.0,31.0,0.0
59.0,34.0,-50.0,8.0,8.0,5.0,29.0,10.0,53.0,55.0,0.0
45.0,19.0,28.0,20.0,21.0,5.0,36.0,27.0,23.0,44.0,0.0
20.0,4.0,61.0,29.0,37.0,13.0,66.0,34.0,0.0,28.0,0.0
17.0,-10.0,76.0,33.0,40.0,17.0,76.0,28.0,-9.0,1.0,0.0
15.0,-22.0,73.0,18.0,29.0,12.0,62.0,26.0,-21.0,-1.0,0.0
14.0,-16.0,30.0,0.0,18.0,2.0,49.0,13.0,-19.0,8.0,0.0
21.0,-20.0,31.0,-7.0,19.0,4.0,44.0,9.0,-24.0,17.0,0.0
28.0,-10.0,-47.0,1.0,9.0,12.0,39.0,7.0,-27.0,6.0,0.0
40.0,7.0,-36.0,-22.0,7.0,10.0,23.0,10.0,-30.0,-22.0,0.0
23.0,10.0,29.0,-51.0,1.0,7.0,12.0,21.0,-31.0,-41.0,0.0
8.0,17.0,27.0,-50.0,8.0,0.0,25.0,13.0,-25.0,-40.0,0.0
-14.0,24.0,34.0,-35.0,1.0,6.0,24.0,13.0,-44.0,-60.0,0.0
-17.0,50.0,29.0,-22.0,0.0,6.0,9.0,5.0,-57.0,-69.0,0.0
5.0,63.0,40.0,-8.0,10.0,4.0,-14.0,0.0,-57.0,-47.0,0.0
23.0,74.0,42.0,-7.0,14.0,0.0,-24.0,0.0,-35.0,3.0,0.0
2.0,66.0,29.0,-12.0,-6.0,3.0,-28.0,17.0,-30.0,14.0,0.0
-37.0,35.0,19.0,-19.0,-12.0,0.0,-11.0,20.0,-32.0,-19.0,0.0
-56.0,3.0,59.0,7.0,-6.0,-16.0,7.0,-1.0,-35.0,-43.0,0.0
-42.0,-18.0,57.0,27.0,-7.0,-21.0,5.0,-5.0,-29.0,-43.0,0.0
-25.0,-15.0,18.0,5.0,-13.0,-26.0,-29.0,-20.0,-25.0,-38.0,0.0
-14.0,15.0,7.0,-24.0,-18.0,-28.0,-64.0,-26.0,-34.0,-36.0,0.0
-16.0,92.0,10.0,-38.0,-24.0,-22.0,-65.0,-30.0,-33.0,-23.0,0.0
22.0,162.0,-57.0,-40.0,-34.0,-16.0,-68.0,-37.0,-21.0,-12.0,0.0
23.0,160.0,-136.0,-38.0,-47.0,-17.0,-58.0,-34.0,-27.0,-19.0,0.0
5.0,106.0,-43.0,-33.0,-56.0,-29.0,-40.0,-24.0,0.0,-10.0,0.0
20.0,33.0,32.0,-48.0,-42.0,-40.0,-18.0,-30.0,16.0,-11.0,0.0
27.0,-14.0,24.0,-46.0,-18.0,-35.0,-41.0,-24.0,4.0,-4.0,0.0
13.0,-33.0,-55.0,-35.0,-6.0,-10.0,-55.0,-20.0,-20.0,-29.0,0.0
7.0,-63.0,-53.0,-20.0,8.0,10.0,-32.0,-2.0,-5.0,-21.0,0.0
11.0,-152.0,4.0,-4.0,29.0,23.0,-6.0,27.0,22.0,16.0,0.0
1.0,-262.0,-33.0,8.0,39.0,29.0,16.0,31.0,32.0,32.0,0.0
-10.0,-237.0,-22.0,-7.0,38.0,32.0,15.0,32.0,26.0,26.0,0.0
-12.0,-138.0,10.0,-8.0,28.0,22.0,19.0,24.0,9.0,4.0,0.0
1.0,-61.0,30.0,3.0,13.0,14.0,14.0,29.0,19.0,-7.0,0.0
16.0,-23.0,46.0,1.0,11.0,13.0,18.0,42.0,35.0,23.0,0.0
16.0,-25.0,32.0,-7.0,12.0,18.0,21.0,23.0,31.0,40.0,0.0
4.0,-52.0,3.0,-19.0,15.0,17.0,15.0,28.0,28.0,35.0,0.0
-3.0,-64.0,-13.0,-26.0,5.0,9.0,16.0,35.0,34.0,17.0,0.0
2.0,-43.0,8.0,-10.0,3.0,5.0,-14.0,10.0,40.0,16.0,0.0
12.0,-29.0,35.0,18.0,5.0,0.0,-40.0,13.0,34.0,4.0,0.0
6.0,-26.0,56.0,20.0,8.0,4.0,-49.0,11.0,-11.0,-35.0,0.0
-8.0,-9.0,67.0,-2.0,12.0,4.0,-45.0,-1.0,-37.0,-49.0,0.0
-17.0,0.0,45.0,-14.0,0.0,1.0,-40.0,-2.0,-45.0,-56.0,0.0
-19.0,-13.0,30.0,-17.0,0.0,-11.0,-23.0,-13.0,-53.0,-47.0,0.0
-8.0,-16.0,9.0,-18.0,-5.0,-33.0,-12.0,-11.0,-46.0,-6.0,0.0
-16.0,-27.0,5.0,-14.0,-10.0,-46.0,0.0,-24.0,-46.0,8.0,0.0
-31.0,-41.0,-1.0,9.0,0.0,-43.0,-3.0,-27.0,-40.0,-9.0,0.0
-38.0,-59.0,-20.0,11.0,3.0,-27.0,4.0,-27.0,-29.0,-3.0,0.0
-34.0,-60.0,-11.0,29.0,0.0,-5.0,9.0,-20.0,-24.0,-9.0,0.0
-38.0,-35.0,-12.0,33.0,5.0,-3.0,7.0,-18.0,-24.0,-23.0,0.0
-46.0,-9.0,-9.0,19.0,13.0,-26.0,0.0,-15.0,-2.0,-27.0,0.0
-53.0,35.0,-3.0,19.0,6.0,-36.0,-16.0,-13.0,32.0,-37.0,1.0
-45.0,59.0,12.0,2.0,-6.0,-29.0,-25.0,-16.0,39.0,-42.0,1.0
-29.0,43.0,0.0,-40.0,-13.0,-11.0,-36.0,-8.0,41.0,-15.0,1.0
-10.0,24.0,-103.0,-74.0,-18.0,-4.0,-38.0,-1.0,43.0,13.0,1.0
10.0,15.0,-126.0,-71.0,-17.0,-4.0,-44.0,5.0,33.0,23.0,1.0
2.0,-2.0,-39.0,-42.0,-2.0,-11.0,-45.0,-4.0,18.0,29.0,1.0
-31.0,-19.0,-9.0,-24.0,8.0,-19.0,-34.0,-11.0,0.0,18.0,1.0
-29.0,-20.0,-1.0,-1.0,3.0,-15.0,-8.0,-16.0,-10.0,-5.0,1.0
9.0,10.0,2.0,24.0,5.0,-8.0,17.0,-17.0,-6.0,-21.0,1.0
28.0,43.0,10.0,35.0,0.0,4.0,27.0,-5.0,30.0,-1.0,1.0
37.0,68.0,20.0,21.0,-15.0,1.0,25.0,14.0,38.0,6.0,1.0
51.0,99.0,23.0,-3.0,-5.0,-9.0,28.0,2.0,43.0,25.0,1.0
103.0,115.0,43.0,-12.0,3.0,-2.0,8.0,4.0,39.0,60.0,1.0
114.0,123.0,49.0,24.0,12.0,0.0,-25.0,-6.0,46.0,65.0,1.0
99.0,114.0,78.0,49.0,11.0,-7.0,-35.0,-1.0,73.0,33.0,1.0
64.0,86.0,83.0,39.0,10.0,0.0,-39.0,-2.0,46.0,-1.0,1.0
20.0,41.0,73.0,38.0,21.0,10.0,-30.0,6.0,2.0,-48.0,1.0
-1.0,6.0,67.0,48.0,20.0,14.0,-13.0,-3.0,-14.0,-55.0,1.0
-13.0,-5.0,59.0,40.0,18.0,10.0,5.0,-5.0,-13.0,-15.0,0.0
-23.0,-7.0,15.0,31.0,13.0,9.0,-5.0,-6.0,-3.0,35.0,0.0
-21.0,-16.0,-138.0,13.0,8.0,3.0,0.0,0.0,-8.0,22.0,0.0
-23.0,-24.0,-218.0,-9.0,11.0,3.0,-4.0,-4.0,-28.0,-19.0,0.0
-33.0,-23.0,-136.0,-13.0,-6.0,-4.0,-7.0,1.0,-41.0,-29.0,0.0
-5.0,27.0,-13.0,12.0,-6.0,-15.0,19.0,-4.0,-27.0,11.0,0.0
40.0,60.0,-51.0,21.0,7.0,2.0,41.0,6.0,11.0,76.0,0.0
25.0,32.0,-12.0,10.0,11.0,11.0,45.0,-5.0,0.0,59.0,0.0
3.0,-16.0,-9.0,6.0,17.0,18.0,37.0,8.0,1.0,29.0,0.0
-1.0,-22.0,31.0,21.0,15.0,21.0,8.0,11.0,-7.0,17.0,0.0
-6.0,10.0,8.0,18.0,20.0,28.0,19.0,4.0,-24.0,11.0,0.0
3.0,42.0,-23.0,18.0,17.0,29.0,30.0,4.0,-35.0,28.0,0.0
0.0,34.0,21.0,18.0,17.0,19.0,30.0,17.0,-20.0,19.0,0.0
-20.0,-6.0,31.0,15.0,21.0,15.0,5.0,16.0,-8.0,-8.0,0.0
-24.0,-32.0,40.0,6.0,27.0,17.0,-17.0,9.0,-9.0,-15.0,0.0
-16.0,-35.0,16.0,-2.0,11.0,17.0,-32.0,20.0,-8.0,-33.0,0.0
-15.0,-43.0,-13.0,-16.0,-5.0,9.0,-4.0,12.0,-17.0,-43.0,0.0
-33.0,-44.0,-14.0,-1.0,-3.0,3.0,-13.0,18.0,-24.0,-45.0,0.0
-37.0,-43.0,-9.0,2.0,-3.0,0.0,-32.0,1.0,-39.0,-43.0,0.0
-1.0,-18.0,20.0,13.0,0.0,-10.0,-5.0,-7.0,-35.0,3.0,0.0
32.0,15.0,41.0,7.0,9.0,-21.0,-3.0,-8.0,-18.0,37.0,0.0
29.0,27.0,41.0,1.0,3.0,-38.0,-14.0,-4.0,-10.0,20.0,0.0
36.0,19.0,19.0,-9.0,-3.0,-20.0,0.0,-7.0,-5.0,20.0,0.0
39.0,20.0,-32.0,4.0,-1.0,-3.0,-10.0,-6.0,8.0,38.0,0.0
14.0,24.0,-24.0,2.0,-3.0,10.0,-4.0,1.0,41.0,34.0,0.0
-18.0,0.0,-13.0,-4.0,-3.0,23.0,24.0,13.0,16.0,4.0,0.0
-13.0,-26.0,-34.0,0.0,-3.0,28.0,37.0,21.0,-2.0,-2.0,0.0
2.0,-18.0,-17.0,11.0,5.0,22.0,26.0,5.0,4.0,-7.0,0.0
-20.0,-9.0,-4.0,17.0,8.0,14.0,29.0,5.0,5.0,-15.0,0.0
-66.0,-16.0,-18.0,9.0,6.0,13.0,37.0,5.0,-6.0,-26.0,0.0
-93.0,-41.0,-14.0,0.0,-3.0,17.0,28.0,15.0,-17.0,-47.0,0.0
-76.0,-36.0,3.0,5.0,-1.0,25.0,28.0,4.0,-9.0,-30.0,0.0
-22.0,-10.0,15.0,14.0,5.0,11.0,44.0,-2.0,-13.0,2.0,0.0
25.0,3.0,30.0,13.0,8.0,4.0,28.0,-3.0,-12.0,35.0,0.0
65.0,7.0,22.0,6.0,8.0,7.0,21.0,-6.0,4.0,65.0,0.0
81.0,11.0,31.0,0.0,3.0,5.0,22.0,-4.0,4.0,65.0,0.0
52.0,13.0,37.0,9.0,-5.0,6.0,14.0,-17.0,3.0,34.0,0.0
34.0,18.0,42.0,15.0,-5.0,-9.0,13.0,-17.0,-2.0,22.0,0.0
37.0,4.0,30.0,20.0,-2.0,-22.0,9.0,-8.0,-3.0,14.0,0.0
19.0,-11.0,25.0,22.0,5.0,-26.0,8.0,-7.0,-12.0,0.0,0.0
4.0,-17.0,-27.0,6.0,2.0,-25.0,22.0,-6.0,-20.0,0.0,0.0
0.0,-32.0,-139.0,-28.0,2.0,-11.0,20.0,4.0,-10.0,10.0,0.0
-10.0,-32.0,-137.0,-37.0,0.0,-2.0,12.0,6.0,-11.0,4.0,0.0
-22.0,-13.0,-21.0,-16.0,-10.0,0.0,8.0,3.0,-24.0,-3.0,0.0
-34.0,50.0,26.0,16.0,-5.0,-3.0,-4.0,-6.0,-33.0,-27.0,0.0
-31.0,123.0,16.0,20.0,0.0,-13.0,-8.0,2.0,-37.0,-36.0,0.0
-37.0,106.0,10.0,-9.0,-1.0,-24.0,-21.0,-6.0,-47.0,-41.0,0.0
-24.0,84.0,34.0,-17.0,-3.0,-22.0,-39.0,-12.0,-47.0,-35.0,0.0
11.0,64.0,33.0,-14.0,-4.0,-27.0,-60.0,-13.0,-47.0,-16.0,0.0
47.0,46.0,57.0,-12.0,-8.0,-18.0,-51.0,1.0,-9.0,11.0,0.0
84.0,39.0,53.0,-3.0,-14.0,1.0,-53.0,0.0,-11.0,43.0,0.0
77.0,22.0,39.0,-4.0,-10.0,16.0,-48.0,9.0,-3.0,56.0,0.0
36.0,-27.0,30.0,2.0,0.0,26.0,-22.0,13.0,31.0,32.0,0.0
12.0,-119.0,-4.0,-14.0,-5.0,28.0,36.0,39.0,80.0,11.0,0.0
3.0,-162.0,-24.0,-10.0,-1.0,25.0,49.0,42.0,96.0,17.0,0.0
-9.0,-107.0,4.0,3.0,6.0,26.0,51.0,13.0,88.0,20.0,0.0
-15.0,-52.0,9.0,5.0,13.0,22.0,51.0,14.0,74.0,6.0,0.0
-31.0,-33.0,-7.0,26.0,6.0,19.0,41.0,0.0,48.0,-8.0,0.0
-47.0,-29.0,-12.0,37.0,9.0,7.0,38.0,8.0,44.0,-41.0,0.0
-56.0,-30.0,0.0,33.0,11.0,13.0,39.0,6.0,31.0,-54.0,0.0
-55.0,-11.0,19.0,12.0,16.0,11.0,13.0,-5.0,46.0,-29.0,0.0
-58.0,-21.0,-9.0,14.0,4.0,10.0,-16.0,6.0,13.0,-12.0,0.0
-52.0,-46.0,-5.0,21.0,8.0,15.0,-33.0,-5.0,-7.0,3.0,0.0
-32.0,-42.0,-8.0,-14.0,6.0,4.0,-27.0,-2.0,1.0,27.0,0.0
-3.0,-38.0,-17.0,-58.0,-1.0,-8.0,0.0,-1.0,45.0,31.0,0.0
-3.0,-6.0,-9.0,-51.0,2.0,0.0,22.0,13.0,62.0,36.0,0.0
-8.0,-3.0,-25.0,-12.0,0.0,15.0,-5.0,10.0,80.0,23.0,0.0
-14.0,-3.0,-32.0,0.0,2.0,12.0,-23.0,0.0,82.0,14.0,0.0
50.0,9.0,-6.0,14.0,6.0,7.0,-28.0,0.0,48.0,52.0,0.0
89.0,17.0,-16.0,10.0,20.0,-2.0,-34.0,-9.0,10.0,68.0,0.0
53.0,1.0,-52.0,12.0,15.0,-23.0,-30.0,-3.0,-8.0,31.0,0.0
1.0,12.0,-4.0,-12.0,16.0,-25.0,-30.0,-8.0,-21.0,-9.0,0.0
-23.0,46.0,23.0,-27.0,9.0,-13.0,-16.0,8.0,-8.0,-20.0,0.0
-44.0,33.0,-2.0,-13.0,13.0,-15.0,-14.0,4.0,-37.0,-42.0,0.0
-58.0,31.0,-67.0,2.0,17.0,-6.0,-12.0,-2.0,-72.0,-61.0,0.0
-57.0,87.0,12.0,21.0,20.0,9.0,-21.0,-22.0,-96.0,-66.0,0.0
-38.0,114.0,70.0,27.0,14.0,9.0,-29.0,-37.0,-83.0,-32.0,0.0
0.0,79.0,50.0,25.0,-1.0,3.0,-38.0,-41.0,-63.0,-21.0,0.0
12.0,38.0,25.0,12.0,-2.0,3.0,-31.0,-16.0,-53.0,-18.0,0.0
8.0,12.0,-10.0,4.0,0.0,13.0,-14.0,-21.0,-46.0,-19.0,0.0
-16.0,-37.0,-70.0,1.0,0.0,23.0,-10.0,-22.0,-33.0,-26.0,0.0
-33.0,-72.0,-77.0,0.0,-2.0,16.0,-13.0,-16.0,-9.0,-21.0,0.0
-32.0,-57.0,-112.0,-7.0,-4.0,5.0,-18.0,-9.0,2.0,-24.0,0.0
-19.0,-30.0,-53.0,-10.0,0.0,-2.0,-26.0,-11.0,-17.0,-40.0,0.0
-26.0,-17.0,-40.0,-6.0,-2.0,6.0,-9.0,-14.0,-28.0,-44.0,0.0
-34.0,-21.0,-4.0,-10.0,-1.0,9.0,-1.0,-6.0,-17.0,-48.0,0.0
-37.0,-16.0,-2.0,-15.0,-4.0,5.0,9.0,2.0,6.0,-40.0,0.0
-40.0,-9.0,-13.0,-4.0,10.0,7.0,39.0,4.0,10.0,-45.0,0.0
-44.0,-5.0,-16.0,-3.0,15.0,16.0,67.0,4.0,4.0,-47.0,0.0
-48.0,-18.0,18.0,-27.0,-1.0,24.0,63.0,26.0,8.0,-56.0,0.0
-38.0,-25.0,11.0,-35.0,6.0,14.0,68.0,23.0,23.0,-29.0,0.0
-32.0,-12.0,-14.0,-15.0,15.0,0.0,61.0,12.0,25.0,13.0,0.0
-32.0,-11.0,-16.0,-14.0,5.0,-4.0,46.0,27.0,11.0,23.0,0.0
-5.0,7.0,38.0,-2.0,4.0,-2.0,10.0,13.0,19.0,37.0,0.0
50.0,51.0,40.0,30.0,11.0,-2.0,-16.0,7.0,29.0,67.0,0.0
63.0,86.0,-37.0,25.0,14.0,1.0,-11.0,4.0,39.0,62.0,0.0
62.0,84.0,1.0,-2.0,2.0,-2.0,-14.0,7.0,14.0,38.0,0.0
48.0,74.0,-47.0,-26.0,-8.0,-9.0,-22.0,12.0,6.0,36.0,0.0
28.0,74.0,-110.0,-29.0,-9.0,-9.0,-14.0,4.0,42.0,32.0,0.0
9.0,83.0,-35.0,-8.0,-10.0,-9.0,5.0,12.0,63.0,41.0,0.0
-6.0,51.0,51.0,6.0,-2.0,-3.0,-1.0,-7.0,40.0,34.0,0.0
-14.0,2.0,25.0,-3.0,-7.0,2.0,19.0,0.0,16.0,6.0,0.0
14.0,0.0,1.0,-20.0,-18.0,2.0,32.0,-3.0,48.0,-3.0,0.0
21.0,10.0,41.0,-22.0,-27.0,4.0,-2.0,-10.0,41.0,27.0,0.0
-6.0,-6.0,50.0,-13.0,-14.0,9.0,-23.0,-30.0,2.0,20.0,0.0
-10.0,-26.0,20.0,-22.0,-15.0,10.0,-25.0,-18.0,17.0,3.0,0.0
-8.0,-51.0,-1.0,-41.0,-18.0,16.0,-28.0,-20.0,23.0,17.0,0.0
15.0,-22.0,24.0,-42.0,-11.0,14.0,-28.0,-22.0,13.0,52.0,0.0
54.0,21.0,79.0,-2.0,-3.0,3.0,-50.0,-15.0,17.0,90.0,0.0
59.0,33.0,96.0,12.0,0.0,0.0,-52.0,-16.0,14.0,81.0,0.0
36.0,16.0,91.0,7.0,13.0,1.0,-41.0,-9.0,16.0,41.0,0.0
5.0,-13.0,89.0,4.0,18.0,1.0,-31.0,3.0,1.0,-9.0,0.0
10.0,-27.0,73.0,2.0,18.0,11.0,-25.0,2.0,-7.0,-26.0,0.0
27.0,-32.0,37.0,11.0,17.0,20.0,-15.0,-3.0,-1.0,-13.0,0.0
15.0,-27.0,-26.0,-3.0,23.0,17.0,-9.0,5.0,-7.0,-17.0,0.0
3.0,-24.0,-14.0,-14.0,21.0,20.0,7.0,10.0,-26.0,-38.0,0.0
7.0,-25.0,10.0,-16.0,4.0,16.0,9.0,8.0,-49.0,-32.0,0.0
17.0,-8.0,29.0,7.0,0.0,5.0,7.0,11.0,-18.0,3.0,0.0
22.0,14.0,39.0,3.0,-5.0,0.0,12.0,0.0,16.0,6.0,0.0
7.0,17.0,47.0,-5.0,3.0,-5.0,21.0,8.0,16.0,-12.0,0.0
12.0,18.0,34.0,0.0,2.0,2.0,38.0,13.0,25.0,-15.0,0.0
3.0,3.0,15.0,-5.0,0.0,3.0,36.0,21.0,13.0,-28.0,0.0
-26.0,7.0,-15.0,-7.0,6.0,1.0,24.0,13.0,-15.0,-34.0,0.0
-13.0,77.0,-11.0,-17.0,-6.0,-4.0,17.0,8.0,15.0,-14.0,0.0
35.0,173.0,4.0,-13.0,-1.0,-13.0,41.0,16.0,95.0,33.0,0.0
81.0,196.0,32.0,-14.0,-7.0,-14.0,55.0,8.0,99.0,47.0,0.0
118.0,176.0,35.0,-17.0,-14.0,-16.0,54.0,2.0,45.0,56.0,0.0
119.0,123.0,34.0,-18.0,-14.0,-15.0,54.0,0.0,32.0,72.0,0.0
93.0,64.0,32.0,-21.0,0.0,-6.0,30.0,1.0,45.0,67.0,0.0
65.0,19.0,7.0,-17.0,2.0,1.0,1.0,-11.0,31.0,38.0,0.0
69.0,4.0,0.0,-11.0,4.0,2.0,1.0,11.0,39.0,34.0,0.0
43.0,-38.0,21.0,7.0,9.0,11.0,10.0,17.0,44.0,20.0,0.0
0.0,-146.0,10.0,13.0,15.0,21.0,18.0,15.0,32.0,-8.0,0.0
-35.0,-216.0,-40.0,-5.0,14.0,14.0,6.0,7.0,9.0,-39.0,0.0
-14.0,-168.0,-41.0,-15.0,-2.0,5.0,2.0,-8.0,28.0,-34.0,0.0
7.0,-124.0,-31.0,1.0,-7.0,1.0,-4.0,-3.0,10.0,-6.0,0.0
-1.0,-129.0,-128.0,1.0,-7.0,3.0,0.0,0.0,9.0,-14.0,0.0
-12.0,-105.0,-127.0,0.0,-5.0,-2.0,-6.0,1.0,8.0,-43.0,0.0
-24.0,-74.0,-53.0,-6.0,-7.0,-9.0,-15.0,-15.0,-2.0,-44.0,0.0
-43.0,-73.0,-59.0,1.0,-5.0,-19.0,-39.0,-30.0,-83.0,-59.0,0.0
-54.0,-65.0,-64.0,8.0,-7.0,-21.0,-43.0,-35.0,-123.0,-71.0,0.0
-61.0,-58.0,-61.0,1.0,-5.0,-17.0,-12.0,-36.0,-103.0,-67.0,0.0
-16.0,-44.0,-44.0,4.0,-8.0,-17.0,-2.0,-19.0,-75.0,-28.0,0.0
49.0,-17.0,-35.0,22.0,-7.0,-10.0,11.0,-11.0,-37.0,34.0,0.0
81.0,11.0,12.0,-3.0,-10.0,1.0,10.0,15.0,0.0,73.0,0.0
68.0,28.0,17.0,-18.0,2.0,5.0,-10.0,23.0,-35.0,55.0,0.0
25.0,39.0,-27.0,-4.0,8.0,3.0,-5.0,20.0,-51.0,25.0,0.0
-26.0,14.0,-111.0,-13.0,9.0,8.0,-5.0,37.0,-74.0,3.0,0.0
-38.0,-18.0,-89.0,-19.0,14.0,19.0,4.0,32.0,-86.0,15.0,0.0
28.0,9.0,5.0,-6.0,8.0,17.0,24.0,11.0,-69.0,54.0,0.0
69.0,69.0,26.0,2.0,4.0,13.0,40.0,9.0,-50.0,70.0,0.0
61.0,86.0,19.0,6.0,-11.0,-5.0,39.0,3.0,-25.0,55.0,0.0
47.0,59.0,32.0,15.0,-19.0,-14.0,36.0,13.0,-2.0,40.0,0.0
23.0,17.0,-13.0,19.0,-14.0,-12.0,25.0,3.0,-1.0,25.0,0.0
7.0,2.0,15.0,17.0,12.0,-1.0,3.0,2.0,-18.0,-4.0,0.0
-17.0,0.0,29.0,32.0,16.0,4.0,-25.0,0.0,-24.0,-11.0,0.0
-25.0,22.0,14.0,32.0,27.0,-1.0,-22.0,-13.0,-25.0,-11.0,0.0
-37.0,39.0,26.0,24.0,32.0,2.0,3.0,-7.0,-25.0,-5.0,0.0
-92.0,1.0,15.0,24.0,30.0,11.0,15.0,-2.0,-47.0,-15.0,0.0
-130.0,-34.0,9.0,15.0,30.0,10.0,13.0,-3.0,-70.0,-47.0,0.0
-115.0,-47.0,21.0,9.0,19.0,4.0,16.0,-7.0,-78.0,-58.0,0.0
-107.0,-56.0,-9.0,-19.0,7.0,-10.0,21.0,-5.0,-64.0,-58.0,0.0
-112.0,-78.0,-69.0,-62.0,-9.0,-15.0,9.0,-4.0,-52.0,-48.0,0.0
-67.0,-76.0,-66.0,-80.0,-16.0,-7.0,7.0,1.0,-35.0,-14.0,0.0
-7.0,-38.0,-52.0,-58.0,-10.0,-7.0,4.0,-8.0,-18.0,38.0,0.0
26.0,2.0,-25.0,-37.0,-10.0,0.0,8.0,0.0,-22.0,49.0,0.0
35.0,22.0,39.0,-27.0,-7.0,-4.0,16.0,-3.0,-19.0,43.0,0.0
14.0,36.0,33.0,-43.0,-16.0,-7.0,6.0,-2.0,-19.0,30.0,0.0
6.0,52.0,34.0,-39.0,-20.0,-16.0,-16.0,-15.0,-10.0,20.0,0.0
36.0,61.0,36.0,-37.0,-29.0,-39.0,-21.0,-18.0,20.0,16.0,0.0
48.0,36.0,57.0,-29.0,-37.0,-38.0,-11.0,-26.0,54.0,11.0,0.0
47.0,12.0,60.0,-29.0,-30.0,-31.0,-31.0,-22.0,71.0,3.0,0.0
46.0,-12.0,68.0,-17.0,-23.0,-21.0,-44.0,-18.0,91.0,10.0,0.0
23.0,-31.0,46.0,-8.0,-12.0,-18.0,-32.0,-20.0,54.0,4.0,0.0
14.0,-49.0,-4.0,-18.0,-27.0,-15.0,-25.0,0.0,53.0,-4.0,0.0
19.0,-59.0,-18.0,-14.0,-27.0,-7.0,-16.0,11.0,75.0,3.0,0.0
18.0,-43.0,0.0,-23.0,-10.0,-16.0,-22.0,0.0,31.0,9.0,0.0
19.0,-33.0,4.0,-25.0,12.0,-24.0,-33.0,-9.0,-50.0,-14.0,0.0
13.0,-31.0,-52.0,-16.0,10.0,-29.0,-48.0,-13.0,-65.0,-36.0,0.0
10.0,6.0,-51.0,-13.0,1.0,-22.0,-45.0,-17.0,-43.0,-19.0,0.0
12.0,47.0,20.0,-5.0,-10.0,-10.0,-37.0,-17.0,-46.0,-12.0,0.0
11.0,79.0,23.0,-4.0,-22.0,-1.0,-27.0,-7.0,-34.0,-35.0,0.0
14.0,112.0,6.0,3.0,-22.0,-2.0,-22.0,14.0,-34.0,-34.0,0.0
5.0,126.0,26.0,6.0,-16.0,-6.0,-21.0,9.0,-34.0,-47.0,0.0
9.0,133.0,35.0,15.0,-5.0,-6.0,-2.0,12.0,-32.0,-23.0,0.0
33.0,119.0,60.0,30.0,15.0,11.0,36.0,-1.0,-43.0,21.0,0.0
14.0,73.0,71.0,50.0,20.0,24.0,50.0,0.0,-48.0,24.0,0.0
-23.0,-23.0,66.0,60.0,16.0,19.0,57.0,0.0,-49.0,-16.0,0.0
-47.0,-87.0,22.0,45.0,6.0,17.0,58.0,0.0,-37.0,-37.0,0.0
-34.0,-132.0,-36.0,31.0,20.0,14.0,35.0,-10.0,-29.0,-35.0,0.0
2.0,-108.0,-19.0,31.0,24.0,-4.0,17.0,-9.0,0.0,0.0,0.0
7.0,-59.0,-120.0,27.0,25.0,-23.0,-11.0,-18.0,-11.0,31.0,0.0
7.0,-53.0,-174.0,27.0,25.0,-12.0,-17.0,-19.0,0.0,21.0,0.0
-4.0,-62.0,-170.0,12.0,6.0,-1.0,-25.0,-14.0,21.0,3.0,0.0
0.0,-65.0,-162.0,-9.0,1.0,3.0,-21.0,-2.0,43.0,2.0,0.0
20.0,-42.0,-85.0,-17.0,0.0,-4.0,-17.0,7.0,106.0,29.0,0.0
29.0,0.0,-25.0,-19.0,-7.0,-8.0,-9.0,5.0,126.0,46.0,0.0
34.0,48.0,36.0,-24.0,-18.0,-21.0,0.0,15.0,153.0,47.0,0.0
7.0,76.0,48.0,0.0,-16.0,-27.0,0.0,20.0,126.0,57.0,0.0
-33.0,64.0,53.0,33.0,-8.0,-26.0,2.0,16.0,63.0,34.0,0.0
-49.0,20.0,79.0,38.0,2.0,-6.0,-2.0,25.0,55.0,5.0,0.0
-58.0,-12.0,62.0,29.0,9.0,-2.0,-10.0,7.0,47.0,-22.0,0.0
-40.0,2.0,57.0,30.0,7.0,0.0,-16.0,-12.0,11.0,-37.0,0.0
-51.0,35.0,40.0,13.0,-9.0,-7.0,-37.0,-32.0,-67.0,-56.0,0.0
-81.0,33.0,26.0,-5.0,-6.0,-18.0,-40.0,-33.0,-109.0,-78.0,0.0
-82.0,37.0,-7.0,11.0,-3.0,-38.0,-25.0,-35.0,-100.0,-66.0,0.0
-71.0,14.0,-10.0,17.0,4.0,-28.0,0.0,-34.0,-93.0,-54.0,0.0
-44.0,-10.0,18.0,8.0,-12.0,-14.0,23.0,-10.0,-15.0,-34.0,0.0
-50.0,-39.0,-37.0,4.0,-9.0,-6.0,41.0,9.0,9.0,-47.0,0.0
-64.0,-53.0,-79.0,4.0,-4.0,-16.0,55.0,4.0,-45.0,-87.0,0.0
-32.0,-78.0,-22.0,0.0,-5.0,-17.0,69.0,-6.0,-46.0,-82.0,0.0
5.0,-128.0,-24.0,6.0,1.0,-15.0,65.0,-4.0,-17.0,-36.0,0.0
0.0,-142.0,-11.0,5.0,18.0,4.0,65.0,2.0,23.0,-9.0,0.0
22.0,-71.0,29.0,5.0,7.0,18.0,74.0,0.0,89.0,-3.0,0.0
23.0,-21.0,33.0,25.0,4.0,19.0,52.0,4.0,62.0,-6.0,0.0
31.0,-8.0,12.0,46.0,-1.0,24.0,40.0,4.0,24.0,-5.0,0.0
30.0,13.0,-65.0,36.0,1.0,26.0,42.0,5.0,-7.0,-25.0,0.0
5.0,14.0,-16.0,27.0,2.0,29.0,31.0,-1.0,-43.0,-17.0,0.0
12.0,0.0,15.0,4.0,-10.0,24.0,20.0,7.0,-51.0,-10.0,0.0
33.0,5.0,28.0,-37.0,-26.0,18.0,-30.0,-7.0,-44.0,0.0,0.0
50.0,5.0,50.0,-38.0,-16.0,16.0,-65.0,-19.0,-37.0,13.0,0.0
34.0,-10.0,66.0,-5.0,-6.0,20.0,-63.0,-19.0,-26.0,-8.0,0.0
12.0,-19.0,12.0,-3.0,-1.0,22.0,-63.0,3.0,-20.0,-12.0,0.0
-22.0,-42.0,-17.0,-18.0,-7.0,20.0,-59.0,-2.0,-15.0,-25.0,0.0
-17.0,-42.0,28.0,-11.0,-1.0,25.0,-55.0,-15.0,8.0,-31.0,0.0
-2.0,-49.0,15.0,-10.0,-1.0,29.0,-26.0,-6.0,23.0,-27.0,0.0
12.0,-53.0,11.0,-20.0,2.0,17.0,7.0,-6.0,17.0,-23.0,0.0
31.0,-22.0,24.0,-23.0,2.0,16.0,-5.0,-7.0,20.0,16.0,0.0
29.0,2.0,35.0,1.0,2.0,14.0,-42.0,-13.0,19.0,25.0,0.0
41.0,29.0,0.0,16.0,0.0,-8.0,-55.0,-16.0,21.0,0.0,0.0
63.0,52.0,7.0,3.0,-3.0,-34.0,-57.0,-30.0,3.0,20.0,0.0
68.0,39.0,26.0,2.0,-15.0,-38.0,-52.0,-22.0,-22.0,48.0,0.0
51.0,36.0,17.0,6.0,-21.0,-22.0,-38.0,-2.0,-36.0,28.0,0.0
33.0,52.0,37.0,20.0,-17.0,-18.0,-44.0,-1.0,-32.0,6.0,0.0
31.0,58.0,34.0,21.0,-19.0,-13.0,-49.0,-7.0,-18.0,5.0,0.0
39.0,46.0,7.0,7.0,-18.0,-14.0,-40.0,2.0,0.0,-4.0,0.0
30.0,7.0,-10.0,8.0,-6.0,-20.0,-26.0,12.0,-6.0,-5.0,0.0
4.0,-26.0,-34.0,8.0,6.0,1.0,1.0,14.0,-5.0,-2.0,0.0
-8.0,-29.0,-41.0,6.0,-4.0,5.0,11.0,8.0,6.0,3.0,0.0
-14.0,9.0,18.0,17.0,-6.0,0.0,17.0,8.0,-1.0,4.0,0.0
-18.0,40.0,35.0,36.0,10.0,7.0,40.0,-3.0,-11.0,-27.0,0.0
-28.0,30.0,38.0,32.0,8.0,26.0,77.0,-5.0,-9.0,-41.0,0.0
-43.0,0.0,3.0,15.0,7.0,27.0,66.0,-4.0,-2.0,-49.0,0.0
-56.0,-46.0,-13.0,-2.0,-1.0,20.0,54.0,1.0,6.0,-63.0,0.0
-56.0,-43.0,-3.0,-10.0,-14.0,15.0,49.0,19.0,-10.0,-67.0,0.0
-35.0,2.0,0.0,-3.0,-13.0,4.0,18.0,17.0,15.0,-24.0,0.0
4.0,37.0,21.0,4.0,-12.0,8.0,-4.0,10.0,43.0,22.0,0.0
2.0,32.0,17.0,5.0,-6.0,18.0,12.0,13.0,26.0,20.0,0.0
-4.0,10.0,-6.0,-3.0,-7.0,15.0,39.0,4.0,19.0,-3.0,0.0
-32.0,-6.0,-56.0,-18.0,-7.0,11.0,44.0,0.0,24.0,-8.0,0.0
-33.0,-14.0,-115.0,-19.0,-1.0,4.0,-4.0,6.0,26.0,-18.0,0.0
-16.0,-11.0,-2.0,0.0,-4.0,2.0,-24.0,0.0,18.0,-33.0,0.0
-23.0,-11.0,21.0,17.0,1.0,-2.0,0.0,3.0,9.0,-23.0,0.0
-29.0,-36.0,22.0,6.0,0.0,-6.0,14.0,5.0,15.0,-4.0,0.0
-8.0,-43.0,30.0,12.0,8.0,-5.0,2.0,9.0,25.0,31.0,0.0
5.0,-22.0,35.0,27.0,11.0,0.0,-2.0,4.0,22.0,80.0,0.0
1.0,26.0,45.0,38.0,7.0,10.0,-14.0,0.0,12.0,89.0,0.0
-7.0,78.0,51.0,27.0,0.0,7.0,-52.0,-3.0,18.0,76.0,0.0
-6.0,75.0,47.0,19.0,-4.0,1.0,-53.0,0.0,20.0,63.0,0.0
19.0,54.0,57.0,16.0,-5.0,-7.0,-45.0,8.0,89.0,63.0,0.0
12.0,38.0,40.0,1.0,-6.0,-11.0,-49.0,10.0,92.0,58.0,0.0
-15.0,14.0,21.0,-18.0,-16.0,-17.0,-44.0,9.0,54.0,34.0,0.0
-3.0,11.0,25.0,-20.0,-20.0,-38.0,-49.0,8.0,55.0,35.0,0.0
15.0,24.0,15.0,-6.0,-21.0,-29.0,-56.0,5.0,72.0,41.0,0.0
4.0,17.0,-1.0,0.0,-28.0,-19.0,-48.0,19.0,87.0,24.0,0.0
20.0,20.0,10.0,-2.0,-34.0,-19.0,-19.0,19.0,137.0,19.0,0.0
23.0,32.0,0.0,10.0,-24.0,-19.0,-13.0,19.0,49.0,22.0,0.0
21.0,45.0,18.0,15.0,1.0,-3.0,0.0,0.0,-35.0,11.0,0.0
11.0,43.0,28.0,3.0,9.0,-10.0,4.0,3.0,-57.0,-28.0,0.0
13.0,28.0,41.0,-2.0,-7.0,-9.0,8.0,-6.0,-62.0,-21.0,0.0
52.0,16.0,49.0,3.0,-1.0,3.0,12.0,-10.0,-58.0,27.0,0.0
66.0,20.0,45.0,14.0,-6.0,12.0,37.0,-3.0,-26.0,8.0,0.0
79.0,26.0,47.0,23.0,-7.0,14.0,56.0,25.0,57.0,-10.0,0.0
69.0,12.0,27.0,20.0,-9.0,14.0,32.0,24.0,50.0,-9.0,0.0
35.0,5.0,-6.0,15.0,-2.0,22.0,0.0,21.0,-20.0,-4.0,0.0
6.0,-20.0,-24.0,15.0,6.0,25.0,5.0,20.0,-48.0,-10.0,0.0
-53.0,-49.0,-45.0,1.0,3.0,19.0,5.0,14.0,-64.0,-46.0,0.0
-62.0,-50.0,-43.0,3.0,5.0,21.0,16.0,15.0,-57.0,-62.0,0.0
-61.0,-34.0,-59.0,0.0,8.0,13.0,17.0,11.0,-16.0,-29.0,0.0
-59.0,-17.0,-111.0,-10.0,-6.0,4.0,1.0,19.0,-8.0,-19.0,0.0
-77.0,-17.0,-30.0,-10.0,-7.0,-1.0,4.0,-5.0,2.0,-19.0,0.0
-80.0,-23.0,-48.0,-2.0,-7.0,1.0,-2.0,0.0,9.0,-8.0,0.0
-53.0,-14.0,-43.0,2.0,-11.0,0.0,-15.0,-9.0,22.0,1.0,0.0
-27.0,-11.0,-17.0,0.0,-11.0,-18.0,-13.0,0.0,40.0,-3.0,0.0
-5.0,-4.0,-3.0,-4.0,-5.0,-28.0,-28.0,-2.0,56.0,10.0,0.0
-2.0,15.0,11.0,-11.0,0.0,-40.0,-16.0,6.0,71.0,7.0,0.0
-2.0,1.0,12.0,-6.0,3.0,-32.0,-15.0,-3.0,64.0,-11.0,0.0
-2.0,-1.0,0.0,-11.0,-3.0,-19.0,-17.0,-1.0,24.0,-29.0,0.0
-1.0,3.0,20.0,1.0,11.0,-7.0,-22.0,-13.0,-6.0,-3.0,0.0
10.0,19.0,32.0,19.0,13.0,-12.0,-18.0,-16.0,-26.0,27.0,0.0
-1.0,36.0,38.0,15.0,9.0,-23.0,-17.0,-12.0,-41.0,12.0,0.0
-25.0,45.0,29.0,7.0,9.0,-35.0,-22.0,-12.0,-55.0,-5.0,0.0
-44.0,57.0,0.0,-9.0,9.0,-21.0,-20.0,-25.0,-41.0,-25.0,0.0
-74.0,119.0,-19.0,-25.0,-13.0,-3.0,-32.0,-30.0,-29.0,-37.0,0.0
-73.0,158.0,-4.0,-5.0,-8.0,-8.0,-37.0,-24.0,-24.0,-30.0,0.0
-66.0,139.0,3.0,9.0,0.0,-20.0,-23.0,-19.0,-23.0,-23.0,0.0
-62.0,81.0,-4.0,-8.0,0.0,-22.0,-11.0,-14.0,-37.0,-27.0,0.0
-14.0,47.0,20.0,1.0,7.0,-17.0,-15.0,-17.0,-39.0,9.0,0.0
50.0,55.0,35.0,-5.0,9.0,5.0,9.0,-23.0,-18.0,58.0,0.0
44.0,15.0,30.0,-37.0,6.0,14.0,49.0,-4.0,-13.0,52.0,0.0
-3.0,-69.0,-10.0,-41.0,-4.0,19.0,45.0,2.0,-6.0,17.0,0.0
-46.0,-166.0,-42.0,-43.0,0.0,15.0,35.0,24.0,5.0,-4.0,0.0
-55.0,-238.0,-75.0,-33.0,0.0,12.0,48.0,19.0,20.0,-7.0,0.0
-18.0,-202.0,-80.0,-40.0,-1.0,-3.0,41.0,6.0,50.0,28.0,0.0
31.0,-123.0,-68.0,-51.0,-2.0,-14.0,10.0,-2.0,61.0,73.0,0.0
44.0,-75.0,-34.0,-37.0,-7.0,-26.0,10.0,-7.0,48.0,88.0,0.0
38.0,-38.0,8.0,-2.0,-7.0,-16.0,21.0,3.0,80.0,74.0,0.0
41.0,-12.0,31.0,22.0,0.0,-9.0,26.0,23.0,133.0,68.0,0.0
23.0,-5.0,30.0,21.0,5.0,-6.0,40.0,12.0,72.0,39.0,0.0
22.0,19.0,22.0,27.0,19.0,0.0,43.0,12.0,36.0,25.0,0.0
23.0,22.0,-40.0,34.0,26.0,-7.0,37.0,9.0,8.0,9.0,0.0
39.0,11.0,-55.0,24.0,36.0,-2.0,39.0,20.0,-1.0,13.0,0.0
73.0,19.0,35.0,12.0,22.0,-3.0,59.0,40.0,51.0,40.0,0.0
52.0,27.0,38.0,6.0,12.0,9.0,41.0,21.0,32.0,21.0,0.0
49.0,33.0,35.0,-2.0,10.0,-4.0,42.0,24.0,58.0,7.0,0.0
20.0,15.0,4.0,-7.0,0.0,-2.0,43.0,10.0,6.0,-28.0,0.0
-6.0,-7.0,-64.0,-11.0,6.0,-6.0,32.0,-4.0,-50.0,-71.0,0.0
-17.0,-8.0,-36.0,-9.0,8.0,-15.0,17.0,-9.0,-63.0,-88.0,0.0
-12.0,16.0,-2.0,-5.0,20.0,4.0,9.0,-14.0,-61.0,-64.0,0.0
3.0,20.0,11.0,-7.0,23.0,18.0,5.0,-18.0,-68.0,-54.0,0.0
-9.0,-9.0,0.0,-7.0,16.0,24.0,19.0,-10.0,-77.0,-61.0,0.0
-18.0,-12.0,-19.0,-16.0,4.0,15.0,3.0,-21.0,-69.0,-62.0,0.0
0.0,9.0,-2.0,-20.0,-2.0,-9.0,-23.0,-26.0,-58.0,-43.0,0.0
-12.0,14.0,-5.0,-8.0,-4.0,-22.0,-30.0,-34.0,-52.0,-31.0,0.0
-27.0,-2.0,3.0,-4.0,-11.0,-24.0,-48.0,-30.0,-43.0,-16.0,0.0
-19.0,-17.0,29.0,7.0,-8.0,-12.0,-57.0,-30.0,-42.0,-1.0,0.0
-3.0,-22.0,26.0,22.0,-6.0,-10.0,-54.0,-26.0,-26.0,21.0,0.0
8.0,-12.0,22.0,19.0,-15.0,-26.0,-55.0,-28.0,-5.0,39.0,0.0
10.0,-14.0,0.0,11.0,-15.0,-29.0,-49.0,-21.0,1.0,28.0,0.0
-2.0,-27.0,-54.0,1.0,-3.0,-12.0,-25.0,-8.0,5.0,16.0,0.0
-9.0,-24.0,-64.0,-1.0,-8.0,0.0,-12.0,7.0,26.0,9.0,0.0
-12.0,-28.0,-11.0,7.0,0.0,28.0,-3.0,13.0,52.0,-12.0,0.0
-21.0,-32.0,-70.0,1.0,7.0,37.0,9.0,21.0,53.0,-17.0,0.0
-22.0,-27.0,-29.0,-4.0,0.0,34.0,12.0,17.0,37.0,-12.0,0.0
1.0,-11.0,4.0,2.0,-1.0,32.0,5.0,20.0,12.0,5.0,0.0
5.0,-8.0,35.0,11.0,5.0,34.0,-8.0,6.0,-13.0,-11.0,0.0
10.0,2.0,21.0,21.0,8.0,25.0,1.0,9.0,-20.0,-18.0,0.0
21.0,13.0,-35.0,7.0,7.0,29.0,11.0,23.0,-18.0,0.0,0.0
29.0,5.0,25.0,-5.0,3.0,21.0,18.0,38.0,25.0,8.0,0.0
54.0,-3.0,61.0,-23.0,0.0,9.0,39.0,48.0,100.0,12.0,0.0
46.0,5.0,38.0,-12.0,-3.0,11.0,36.0,29.0,89.0,-13.0,0.0
27.0,-1.0,24.0,3.0,3.0,6.0,27.0,37.0,21.0,-17.0,0.0
28.0,11.0,-2.0,5.0,19.0,15.0,40.0,14.0,-15.0,-22.0,0.0
49.0,38.0,17.0,0.0,19.0,17.0,47.0,9.0,13.0,-11.0,0.0
33.0,56.0,44.0,-7.0,9.0,17.0,44.0,9.0,18.0,-30.0,0.0
3.0,29.0,24.0,-2.0,1.0,12.0,36.0,7.0,-19.0,-47.0,0.0
-26.0,-18.0,10.0,-6.0,1.0,-8.0,25.0,21.0,-23.0,-49.0,0.0
-56.0,-35.0,-44.0,-15.0,1.0,-9.0,13.0,10.0,-17.0,-77.0,0.0
-61.0,-35.0,-149.0,-19.0,1.0,-6.0,25.0,14.0,-25.0,-97.0,0.0
-44.0,-35.0,-135.0,-21.0,5.0,10.0,2.0,18.0,-38.0,-80.0,0.0
-24.0,-32.0,-33.0,-16.0,-1.0,11.0,-19.0,14.0,-39.0,-62.0,0.0
-3.0,-17.0,2.0,5.0,9.0,19.0,-25.0,9.0,-6.0,-24.0,0.0
4.0,-3.0,23.0,24.0,19.0,20.0,-28.0,-17.0,9.0,8.0,0.0
-39.0,-21.0,7.0,20.0,22.0,15.0,-36.0,-4.0,-20.0,-25.0,0.0
-66.0,-42.0,-19.0,1.0,7.0,12.0,-23.0,1.0,-24.0,-63.0,0.0
-57.0,-45.0,5.0,0.0,9.0,12.0,2.0,2.0,-18.0,-75.0,0.0
-44.0,-19.0,33.0,7.0,3.0,15.0,12.0,-18.0,-8.0,-63.0,0.0
-42.0,2.0,24.0,3.0,3.0,21.0,8.0,-31.0,-23.0,-81.0,0.0
-28.0,24.0,11.0,-14.0,-2.0,18.0,0.0,-35.0,1.0,-59.0,0.0
14.0,62.0,-9.0,-19.0,-20.0,8.0,-1.0,-19.0,51.0,17.0,0.0
12.0,55.0,-4.0,-8.0,-26.0,0.0,-11.0,-6.0,47.0,48.0,0.0
-22.0,22.0,20.0,3.0,-2.0,4.0,-37.0,6.0,15.0,10.0,0.0
-23.0,-8.0,5.0,34.0,15.0,26.0,-31.0,3.0,-15.0,-8.0,0.0
2.0,-18.0,12.0,39.0,27.0,31.0,-2.0,-2.0,-59.0,13.0,0.0
-4.0,-34.0,6.0,31.0,11.0,26.0,-1.0,-18.0,-71.0,12.0,0.0
-13.0,-42.0,-9.0,18.0,-1.0,21.0,-32.0,-16.0,-55.0,16.0,0.0
21.0,-15.0,8.0,26.0,1.0,13.0,-46.0,-16.0,-40.0,47.0,0.0
35.0,-14.0,-93.0,35.0,4.0,10.0,-27.0,-20.0,-11.0,45.0,0.0
22.0,-30.0,-105.0,36.0,3.0,10.0,7.0,-5.0,1.0,33.0,0.0
14.0,-4.0,9.0,-3.0,4.0,13.0,21.0,5.0,-6.0,30.0,0.0
33.0,83.0,11.0,-53.0,-3.0,8.0,19.0,22.0,-3.0,25.0,0.0
34.0,133.0,22.0,-50.0,-11.0,0.0,22.0,20.0,6.0,6.0,0.0
43.0,133.0,30.0,-38.0,-13.0,4.0,26.0,10.0,-1.0,2.0,0.0
45.0,129.0,25.0,-14.0,-9.0,7.0,25.0,23.0,-3.0,15.0,0.0
44.0,88.0,34.0,3.0,-2.0,21.0,13.0,12.0,2.0,29.0,0.0
43.0,54.0,6.0,-6.0,2.0,21.0,11.0,27.0,11.0,26.0,0.0
38.0,45.0,-71.0,-2.0,0.0,19.0,8.0,22.0,4.0,15.0,0.0
37.0,17.0,-6.0,16.0,0.0,21.0,3.0,18.0,31.0,26.0,0.0
47.0,-48.0,57.0,4.0,3.0,33.0,-6.0,45.0,104.0,51.0,0.0
32.0,-141.0,22.0,-14.0,3.0,38.0,-4.0,52.0,132.0,54.0,0.0
2.0,-145.0,21.0,-9.0,3.0,31.0,-12.0,33.0,106.0,39.0,0.0
11.0,-78.0,38.0,-5.0,8.0,9.0,-21.0,20.0,86.0,40.0,0.0
21.0,-28.0,31.0,7.0,8.0,-3.0,-17.0,18.0,92.0,56.0,0.0
30.0,-17.0,-15.0,13.0,7.0,-6.0,-18.0,7.0,50.0,45.0,0.0
-6.0,-18.0,-23.0,-5.0,3.0,-8.0,-25.0,5.0,-17.0,12.0,0.0
-43.0,-22.0,-33.0,-3.0,-2.0,-8.0,-6.0,-14.0,-85.0,-36.0,0.0
-28.0,-52.0,-30.0,-9.0,-6.0,-12.0,-3.0,-18.0,-106.0,-35.0,0.0
3.0,-73.0,-30.0,-21.0,-18.0,-19.0,1.0,-18.0,-90.0,8.0,0.0
17.0,-63.0,-30.0,-17.0,-24.0,-22.0,0.0,-23.0,-77.0,24.0,0.0
14.0,-35.0,-6.0,-6.0,-15.0,-13.0,5.0,-33.0,-52.0,26.0,0.0
-8.0,-14.0,17.0,-7.0,0.0,-4.0,4.0,-24.0,-46.0,7.0,0.0
-31.0,7.0,22.0,-9.0,-3.0,-1.0,-6.0,-31.0,-57.0,-20.0,0.0
-32.0,28.0,39.0,-2.0,3.0,-3.0,-14.0,-35.0,-61.0,-32.0,0.0
-29.0,50.0,14.0,14.0,8.0,-12.0,18.0,-18.0,-57.0,-35.0,0.0
-29.0,61.0,13.0,12.0,1.0,-17.0,18.0,-3.0,-37.0,-22.0,0.0
-25.0,69.0,18.0,0.0,-10.0,-15.0,-19.0,-5.0,-22.0,-10.0,0.0
0.0,85.0,-3.0,-11.0,-13.0,-18.0,-25.0,-4.0,-24.0,11.0,0.0
20.0,92.0,-2.0,-16.0,-6.0,-6.0,-20.0,-11.0,-34.0,28.0,0.0
38.0,101.0,14.0,1.0,0.0,4.0,-7.0,-16.0,4.0,39.0,0.0
57.0,108.0,23.0,12.0,-2.0,0.0,14.0,-8.0,92.0,48.0,0.0
59.0,95.0,46.0,23.0,6.0,-1.0,27.0,4.0,137.0,51.0,0.0
43.0,56.0,20.0,15.0,-1.0,-6.0,18.0,17.0,85.0,43.0,0.0
63.0,19.0,25.0,12.0,1.0,-6.0,18.0,29.0,88.0,69.0,0.0
40.0,-26.0,3.0,4.0,1.0,-7.0,28.0,37.0,74.0,83.0,0.0
30.0,-66.0,-12.0,-2.0,-2.0,-1.0,25.0,54.0,104.0,104.0,0.0
8.0,-80.0,-81.0,-4.0,0.0,6.0,16.0,47.0,37.0,73.0,0.0
-37.0,-100.0,-161.0,6.0,5.0,15.0,42.0,33.0,-12.0,54.0,0.0
-66.0,-124.0,-97.0,14.0,9.0,23.0,46.0,18.0,-31.0,41.0,0.0
-61.0,-108.0,-34.0,8.0,23.0,20.0,33.0,12.0,-45.0,19.0,0.0
-39.0,-59.0,0.0,15.0,12.0,3.0,22.0,6.0,-48.0,6.0,0.0
-12.0,-3.0,28.0,29.0,7.0,-12.0,11.0,-2.0,-42.0,16.0,0.0
-16.0,10.0,33.0,25.0,2.0,-9.0,15.0,-3.0,-41.0,13.0,0.0
-25.0,3.0,50.0,18.0,10.0,-4.0,16.0,-8.0,-50.0,-1.0,0.0
-35.0,-14.0,17.0,7.0,10.0,2.0,18.0,-8.0,-63.0,-21.0,0.0
-40.0,-34.0,-3.0,7.0,4.0,-1.0,24.0,-16.0,-77.0,-33.0,0.0
-17.0,-43.0,14.0,3.0,5.0,-12.0,19.0,-17.0,-70.0,-31.0,0.0
-1.0,-44.0,0.0,12.0,2.0,-13.0,11.0,-23.0,-47.0,-25.0,0.0
-20.0,-42.0,0.0,3.0,2.0,-12.0,-1.0,-14.0,-39.0,-12.0,0.0
-37.0,-23.0,28.0,-4.0,12.0,-5.0,-19.0,-7.0,-46.0,-20.0,0.0
-26.0,-3.0,-3.0,-3.0,3.0,-7.0,-32.0,8.0,-47.0,-15.0,0.0
-21.0,27.0,-80.0,-9.0,-14.0,-1.0,-35.0,1.0,-41.0,-23.0,0.0
-27.0,72.0,-20.0,-10.0,-11.0,-1.0,-29.0,-5.0,-41.0,-39.0,0.0
-36.0,72.0,24.0,-12.0,-4.0,-10.0,-22.0,-18.0,-50.0,-60.0,0.0
-56.0,16.0,25.0,-19.0,4.0,-23.0,-20.0,-19.0,-63.0,-103.0,0.0
-61.0,-21.0,15.0,-16.0,-3.0,-26.0,-27.0,-9.0,-68.0,-133.0,0.0
-40.0,-16.0,34.0,-12.0,-19.0,-19.0,-24.0,0.0,-51.0,-89.0,0.0
-27.0,-34.0,11.0,-18.0,-18.0,-24.0,-25.0,-1.0,-41.0,-71.0,0.0
-21.0,-21.0,-20.0,-11.0,-10.0,-27.0,-40.0,-12.0,-41.0,-68.0,0.0
25.0,7.0,-17.0,3.0,5.0,-23.0,-46.0,-34.0,-41.0,7.0,0.0
33.0,9.0,19.0,16.0,2.0,-10.0,-55.0,-43.0,-39.0,29.0,0.0
1.0,3.0,8.0,12.0,-5.0,-11.0,-48.0,-30.0,-39.0,-3.0,0.0
-14.0,13.0,-13.0,15.0,-1.0,-21.0,-31.0,-16.0,-9.0,-6.0,0.0
-13.0,12.0,66.0,30.0,-7.0,-25.0,-31.0,-13.0,10.0,-16.0,0.0
2.0,6.0,91.0,50.0,-10.0,-17.0,-7.0,-10.0,25.0,-16.0,0.0
13.0,-11.0,61.0,37.0,-2.0,-7.0,18.0,2.0,2.0,-18.0,0.0
-7.0,-14.0,15.0,-1.0,-4.0,9.0,35.0,22.0,-5.0,-21.0,0.0
-20.0,-14.0,-48.0,-37.0,-9.0,7.0,9.0,27.0,-1.0,-5.0,0.0
-14.0,0.0,-53.0,-38.0,-4.0,6.0,4.0,28.0,4.0,22.0,0.0
-17.0,1.0,-27.0,-17.0,-11.0,11.0,9.0,10.0,8.0,16.0,0.0
8.0,7.0,13.0,3.0,-10.0,6.0,8.0,13.0,56.0,41.0,0.0
55.0,65.0,60.0,12.0,3.0,5.0,10.0,12.0,159.0,102.0,0.0
75.0,95.0,47.0,0.0,2.0,-2.0,10.0,26.0,184.0,101.0,0.0
40.0,96.0,-41.0,-14.0,0.0,0.0,8.0,52.0,103.0,52.0,0.0
-11.0,85.0,-26.0,-18.0,-10.0,6.0,18.0,38.0,36.0,2.0,0.0
-32.0,62.0,20.0,-8.0,-17.0,13.0,29.0,4.0,15.0,-29.0,0.0
11.0,45.0,6.0,4.0,-17.0,9.0,21.0,2.0,5.0,18.0,0.0
27.0,29.0,19.0,14.0,-15.0,9.0,16.0,0.0,11.0,69.0,0.0
5.0,5.0,3.0,15.0,-17.0,12.0,21.0,7.0,9.0,36.0,0.0
11.0,-25.0,-7.0,-2.0,-19.0,18.0,23.0,10.0,0.0,34.0,0.0
10.0,-16.0,-31.0,-7.0,-15.0,23.0,37.0,8.0,-13.0,41.0,0.0
12.0,3.0,-71.0,0.0,-5.0,23.0,35.0,-1.0,-32.0,25.0,0.0
18.0,8.0,-32.0,1.0,-4.0,15.0,8.0,-16.0,-47.0,9.0,0.0
32.0,20.0,35.0,5.0,0.0,6.0,-7.0,-22.0,-56.0,12.0,0.0
17.0,1.0,32.0,-1.0,-2.0,4.0,-13.0,-30.0,-61.0,-13.0,0.0
11.0,-11.0,10.0,-18.0,-13.0,0.0,-22.0,-17.0,-48.0,-20.0,0.0
33.0,29.0,34.0,-20.0,-20.0,-3.0,-5.0,-13.0,25.0,-8.0,0.0
17.0,103.0,-18.0,-20.0,-25.0,-8.0,-5.0,-19.0,0.0,5.0,0.0
-1.0,134.0,-117.0,-14.0,-25.0,-8.0,-13.0,-36.0,-45.0,11.0,0.0
-2.0,92.0,-48.0,-18.0,-11.0,-6.0,-7.0,-36.0,-62.0,15.0,0.0
0.0,61.0,-45.0,-17.0,-15.0,-31.0,19.0,-30.0,-47.0,19.0,0.0
-9.0,33.0,-114.0,-18.0,-20.0,-45.0,11.0,-37.0,-37.0,0.0,0.0
-50.0,-1.0,-62.0,-8.0,-5.0,-35.0,38.0,-34.0,-40.0,-17.0,0.0
-83.0,-41.0,0.0,-10.0,1.0,-26.0,45.0,-26.0,-40.0,-36.0,0.0
-90.0,-83.0,7.0,-17.0,4.0,-10.0,36.0,-21.0,-9.0,-36.0,0.0
-80.0,-142.0,0.0,-29.0,7.0,-2.0,28.0,-17.0,28.0,-20.0,0.0
-80.0,-178.0,-77.0,-31.0,4.0,2.0,27.0,6.0,111.0,-8.0,0.0
-58.0,-121.0,13.0,-17.0,-2.0,-7.0,39.0,38.0,183.0,2.0,0.0
-8.0,-40.0,81.0,-6.0,-5.0,-22.0,32.0,30.0,142.0,14.0,0.0
38.0,20.0,58.0,3.0,1.0,-37.0,17.0,17.0,47.0,28.0,0.0
79.0,32.0,-36.0,12.0,4.0,-46.0,9.0,14.0,6.0,48.0,0.0
101.0,12.0,-13.0,26.0,17.0,-19.0,11.0,18.0,-16.0,65.0,0.0
76.0,-50.0,59.0,24.0,21.0,5.0,26.0,39.0,-32.0,68.0,0.0
45.0,-100.0,30.0,9.0,23.0,20.0,32.0,31.0,-27.0,48.0,0.0
25.0,-93.0,20.0,8.0,37.0,26.0,31.0,22.0,-12.0,35.0,0.0
26.0,-16.0,50.0,14.0,45.0,22.0,5.0,19.0,0.0,27.0,0.0
14.0,64.0,60.0,13.0,39.0,19.0,2.0,19.0,13.0,18.0,0.0
5.0,96.0,32.0,0.0,24.0,13.0,13.0,28.0,13.0,18.0,0.0
-3.0,79.0,25.0,-12.0,14.0,17.0,0.0,33.0,11.0,34.0,0.0
-29.0,29.0,10.0,-15.0,14.0,14.0,-3.0,24.0,9.0,28.0,0.0
-54.0,-2.0,9.0,-8.0,15.0,-6.0,-14.0,28.0,-12.0,-3.0,0.0
-76.0,-28.0,49.0,-2.0,16.0,-15.0,-21.0,11.0,-31.0,-50.0,0.0
-70.0,-52.0,65.0,20.0,15.0,-13.0,-19.0,-1.0,-50.0,-82.0,0.0
-46.0,-16.0,57.0,20.0,11.0,-19.0,-20.0,16.0,-54.0,-54.0,0.0
-4.0,14.0,24.0,2.0,14.0,-10.0,-25.0,4.0,-36.0,-2.0,0.0
7.0,36.0,-40.0,0.0,17.0,-5.0,-23.0,0.0,-36.0,28.0,0.0
9.0,37.0,-16.0,-5.0,5.0,-5.0,-18.0,-1.0,-33.0,32.0,0.0
2.0,11.0,30.0,-9.0,0.0,-3.0,-19.0,3.0,-2.0,7.0,0.0
-19.0,-16.0,-15.0,0.0,3.0,-7.0,-31.0,1.0,-3.0,-13.0,0.0
-26.0,-34.0,-94.0,4.0,-7.0,-33.0,-31.0,-13.0,-21.0,-25.0,0.0
-35.0,-54.0,-112.0,-11.0,-20.0,-41.0,-41.0,-7.0,-43.0,-53.0,0.0
-73.0,-65.0,-97.0,-22.0,-20.0,-25.0,-47.0,-14.0,-53.0,-86.0,0.0
-101.0,-83.0,-7.0,-27.0,-13.0,-11.0,-42.0,-9.0,-50.0,-73.0,0.0
-71.0,-86.0,24.0,-18.0,0.0,-20.0,-46.0,-21.0,-31.0,6.0,0.0
-35.0,-77.0,42.0,2.0,9.0,-29.0,-45.0,-35.0,-23.0,60.0,0.0
-33.0,-73.0,33.0,3.0,2.0,-37.0,-32.0,-24.0,-14.0,40.0,0.0
-39.0,-61.0,37.0,-3.0,-2.0,-21.0,-39.0,1.0,5.0,3.0,0.0
-22.0,-41.0,42.0,3.0,-4.0,0.0,-21.0,0.0,19.0,-10.0,0.0
0.0,-19.0,47.0,14.0,-14.0,1.0,-7.0,9.0,20.0,1.0,0.0
0.0,-9.0,38.0,14.0,-1.0,0.0,-3.0,1.0,1.0,-1.0,0.0
20.0,1.0,43.0,12.0,16.0,0.0,11.0,0.0,20.0,-3.0,0.0
54.0,25.0,53.0,8.0,14.0,-13.0,9.0,12.0,65.0,42.0,0.0
45.0,45.0,39.0,9.0,12.0,-6.0,11.0,-1.0,37.0,41.0,0.0
14.0,63.0,-25.0,9.0,3.0,0.0,22.0,7.0,23.0,15.0,0.0
-23.0,81.0,6.0,1.0,-1.0,6.0,18.0,2.0,10.0,-40.0,0.0
-35.0,100.0,29.0,3.0,3.0,2.0,8.0,-1.0,-3.0,-40.0,0.0
11.0,83.0,40.0,3.0,3.0,0.0,8.0,-17.0,1.0,3.0,0.0
28.0,60.0,34.0,-12.0,-9.0,0.0,5.0,-16.0,-2.0,3.0,0.0
12.0,24.0,8.0,-24.0,-11.0,0.0,-3.0,-11.0,2.0,-20.0,0.0
-4.0,-4.0,-35.0,-22.0,-16.0,8.0,4.0,-6.0,16.0,-45.0,0.0
-27.0,-8.0,1.0,2.0,-13.0,17.0,7.0,-9.0,7.0,-72.0,0.0
-37.0,0.0,24.0,10.0,-5.0,15.0,8.0,-12.0,-9.0,-72.0,0.0
-9.0,7.0,15.0,0.0,-5.0,9.0,6.0,-25.0,-2.0,-41.0,0.0
33.0,22.0,24.0,-13.0,-5.0,3.0,5.0,-19.0,12.0,-5.0,0.0
52.0,22.0,24.0,-1.0,-5.0,-16.0,14.0,0.0,68.0,19.0,0.0
75.0,26.0,32.0,-6.0,-5.0,-30.0,17.0,20.0,150.0,40.0,0.0
80.0,25.0,29.0,-6.0,-13.0,-20.0,7.0,12.0,129.0,29.0,0.0
65.0,12.0,33.0,3.0,-20.0,-3.0,-7.0,10.0,59.0,20.0,0.0
82.0,27.0,14.0,-44.0,-35.0,2.0,-8.0,12.0,104.0,32.0,0.0
106.0,44.0,-9.0,-60.0,-39.0,-12.0,9.0,-3.0,128.0,38.0,0.0
109.0,52.0,14.0,-25.0,-33.0,-19.0,7.0,-6.0,99.0,35.0,0.0
77.0,27.0,-9.0,-10.0,-28.0,-14.0,-9.0,-22.0,0.0,8.0,0.0
39.0,-9.0,-107.0,1.0,-24.0,-1.0,-16.0,-16.0,-50.0,-14.0,0.0
4.0,-31.0,-71.0,2.0,-19.0,3.0,-15.0,-22.0,-62.0,-28.0,0.0
-29.0,-38.0,-12.0,-5.0,-21.0,-8.0,-11.0,-17.0,-74.0,-47.0,0.0
-46.0,-52.0,-16.0,-10.0,-19.0,-22.0,12.0,-22.0,-78.0,-61.0,0.0
-10.0,-33.0,-46.0,-9.0,-7.0,-10.0,9.0,-25.0,-84.0,-14.0,0.0
27.0,-4.0,4.0,2.0,0.0,2.0,11.0,-31.0,-70.0,50.0,0.0
31.0,4.0,19.0,4.0,-2.0,0.0,-3.0,-26.0,-56.0,85.0,0.0
4.0,1.0,-22.0,0.0,-11.0,-19.0,-8.0,-4.0,-28.0,56.0,0.0
10.0,8.0,-51.0,-15.0,-25.0,-33.0,11.0,4.0,8.0,14.0,0.0
11.0,23.0,13.0,-33.0,-7.0,-21.0,19.0,15.0,23.0,-15.0,0.0
0.0,29.0,19.0,-25.0,3.0,-6.0,20.0,12.0,34.0,-33.0,0.0
-6.0,27.0,35.0,-5.0,3.0,-2.0,26.0,11.0,30.0,-45.0,0.0
9.0,25.0,-48.0,24.0,2.0,-7.0,23.0,5.0,-7.0,-33.0,0.0
56.0,38.0,-119.0,31.0,9.0,5.0,30.0,12.0,-20.0,29.0,0.0
76.0,64.0,-35.0,25.0,3.0,10.0,27.0,8.0,-32.0,68.0,0.0
64.0,134.0,40.0,24.0,2.0,13.0,14.0,1.0,-45.0,34.0,0.0
39.0,172.0,20.0,22.0,-1.0,14.0,14.0,-4.0,-52.0,-3.0,0.0
34.0,147.0,17.0,14.0,-2.0,-7.0,12.0,5.0,-40.0,-29.0,0.0
20.0,122.0,27.0,8.0,-7.0,-23.0,0.0,-3.0,-30.0,-43.0,0.0
-2.0,65.0,23.0,0.0,-4.0,-18.0,0.0,-13.0,-25.0,-39.0,0.0
-20.0,-1.0,5.0,-7.0,-15.0,3.0,-25.0,-13.0,0.0,-43.0,0.0
-42.0,-35.0,-1.0,-14.0,-33.0,0.0,-29.0,-19.0,1.0,-47.0,0.0
-39.0,-69.0,4.0,-14.0,-33.0,-15.0,-31.0,-22.0,2.0,-30.0,0.0
-20.0,-169.0,-16.0,-14.0,-7.0,-10.0,-37.0,-3.0,11.0,-15.0,0.0
-23.0,-266.0,-22.0,-1.0,7.0,11.0,-17.0,16.0,33.0,-25.0,0.0
-31.0,-221.0,0.0,3.0,12.0,21.0,6.0,25.0,14.0,-23.0,0.0
-10.0,-135.0,-5.0,-18.0,0.0,5.0,-19.0,17.0,48.0,5.0,0.0
18.0,-77.0,-96.0,-11.0,-1.0,-9.0,-25.0,19.0,51.0,41.0,0.0
60.0,-33.0,-64.0,-13.0,-2.0,-10.0,-3.0,16.0,65.0,57.0,0.0
72.0,5.0,8.0,-18.0,-3.0,0.0,17.0,10.0,35.0,36.0,0.0
55.0,16.0,28.0,-6.0,0.0,12.0,11.0,14.0,21.0,15.0,0.0
59.0,40.0,50.0,9.0,0.0,16.0,1.0,6.0,52.0,5.0,0.0
43.0,38.0,66.0,21.0,5.0,7.0,-9.0,8.0,56.0,-8.0,0.0
23.0,19.0,55.0,19.0,9.0,2.0,-10.0,15.0,47.0,-25.0,0.0
29.0,20.0,16.0,18.0,11.0,-6.0,5.0,22.0,59.0,-37.0,0.0
22.0,-18.0,-4.0,2.0,10.0,4.0,14.0,14.0,31.0,-31.0,0.0
35.0,-48.0,-21.0,-3.0,-4.0,23.0,34.0,17.0,45.0,-13.0,0.0
42.0,-51.0,-45.0,4.0,-2.0,28.0,52.0,41.0,65.0,28.0,0.0
47.0,-14.0,-77.0,20.0,13.0,32.0,40.0,25.0,5.0,43.0,0.0
30.0,32.0,-60.0,31.0,15.0,27.0,27.0,5.0,-60.0,4.0,0.0
-6.0,37.0,-4.0,27.0,10.0,28.0,18.0,20.0,-64.0,-29.0,0.0
-22.0,25.0,5.0,13.0,11.0,24.0,19.0,10.0,-44.0,-9.0,0.0
-46.0,7.0,-39.0,0.0,15.0,3.0,-9.0,16.0,-43.0,-2.0,0.0
-49.0,-13.0,-51.0,6.0,7.0,-2.0,-25.0,17.0,-40.0,-15.0,0.0
-32.0,-25.0,4.0,16.0,9.0,2.0,-28.0,-2.0,-37.0,-27.0,0.0
-66.0,-49.0,14.0,18.0,7.0,-8.0,-25.0,5.0,-47.0,-49.0,0.0
-86.0,-75.0,-16.0,17.0,7.0,0.0,-22.0,14.0,-62.0,-65.0,0.0
-42.0,-44.0,-30.0,23.0,15.0,-7.0,-37.0,6.0,-54.0,-13.0,0.0
19.0,-2.0,-105.0,29.0,23.0,-2.0,-33.0,-8.0,-35.0,40.0,0.0
3.0,10.0,-138.0,21.0,19.0,-1.0,-22.0,-13.0,-41.0,37.0,0.0
3.0,16.0,-32.0,26.0,17.0,-10.0,-36.0,-9.0,-58.0,36.0,0.0
30.0,3.0,38.0,21.0,14.0,-5.0,-32.0,-16.0,-79.0,38.0,0.0
10.0,1.0,45.0,14.0,17.0,1.0,-13.0,-11.0,-71.0,28.0,0.0
-17.0,13.0,34.0,3.0,16.0,10.0,-6.0,-5.0,-9.0,1.0,0.0
-6.0,17.0,53.0,10.0,22.0,5.0,-7.0,0.0,1.0,-14.0,0.0
9.0,3.0,15.0,9.0,25.0,-6.0,-24.0,-8.0,-58.0,-7.0,0.0
9.0,-6.0,-31.0,5.0,16.0,-24.0,-25.0,-18.0,-76.0,-23.0,0.0
-7.0,-16.0,25.0,7.0,5.0,-14.0,-25.0,-22.0,-71.0,-38.0,0.0
-33.0,-21.0,37.0,6.0,-1.0,-10.0,-21.0,-17.0,-59.0,-53.0,0.0
-17.0,-10.0,49.0,-1.0,-11.0,-17.0,-23.0,-15.0,18.0,-36.0,0.0
26.0,21.0,44.0,-16.0,-23.0,-37.0,-11.0,-4.0,86.0,11.0,0.0
14.0,26.0,16.0,-27.0,-29.0,-35.0,-26.0,-18.0,15.0,-4.0,0.0
4.0,44.0,13.0,-22.0,-17.0,-11.0,-21.0,-18.0,-36.0,-9.0,0.0
1.0,64.0,23.0,-11.0,-13.0,0.0,-15.0,-14.0,-30.0,22.0,0.0
-21.0,73.0,45.0,11.0,-13.0,-1.0,26.0,-14.0,-23.0,5.0,0.0
-43.0,86.0,45.0,22.0,-5.0,-3.0,52.0,-4.0,-17.0,-2.0,0.0
-27.0,70.0,27.0,23.0,7.0,0.0,56.0,23.0,0.0,3.0,0.0
-22.0,38.0,-65.0,1.0,5.0,9.0,58.0,24.0,18.0,-14.0,0.0
-5.0,36.0,-74.0,-8.0,-7.0,17.0,64.0,27.0,105.0,-9.0,0.0
-3.0,36.0,20.0,-12.0,-23.0,7.0,50.0,36.0,184.0,18.0,0.0
-21.0,-10.0,45.0,-3.0,-23.0,-7.0,14.0,31.0,188.0,8.0,0.0
-44.0,-60.0,18.0,0.0,-23.0,-4.0,12.0,26.0,131.0,18.0,0.0
-35.0,-53.0,15.0,12.0,-11.0,0.0,31.0,33.0,104.0,61.0,0.0
10.0,-48.0,4.0,37.0,-11.0,16.0,31.0,29.0,136.0,79.0,0.0
-6.0,-57.0,-7.0,33.0,-15.0,22.0,22.0,7.0,72.0,57.0,0.0
-25.0,-59.0,3.0,24.0,-19.0,27.0,8.0,9.0,10.0,40.0,0.0
-36.0,-59.0,-27.0,32.0,-8.0,38.0,3.0,-6.0,-13.0,27.0,0.0
-35.0,-40.0,-37.0,32.0,0.0,48.0,10.0,-5.0,-32.0,11.0,0.0
-6.0,-6.0,-3.0,23.0,-7.0,47.0,6.0,4.0,-2.0,10.0,0.0
19.0,20.0,26.0,18.0,-10.0,39.0,-4.0,-1.0,32.0,23.0,0.0
0.0,16.0,-12.0,-27.0,-12.0,40.0,-30.0,9.0,-51.0,-8.0,0.0
-9.0,59.0,0.0,-47.0,-3.0,34.0,-39.0,-2.0,-68.0,-29.0,0.0
-1.0,112.0,24.0,-22.0,2.0,27.0,-41.0,-20.0,-75.0,-18.0,0.0
2.0,89.0,30.0,-13.0,9.0,23.0,-36.0,-26.0,-82.0,-5.0,0.0
-8.0,9.0,37.0,1.0,8.0,23.0,-22.0,-23.0,-72.0,-13.0,0.0
-33.0,-21.0,21.0,13.0,9.0,17.0,-16.0,-31.0,-78.0,-30.0,0.0
-37.0,-17.0,25.0,13.0,14.0,3.0,-14.0,-24.0,-75.0,-42.0,0.0
-61.0,-38.0,0.0,4.0,0.0,0.0,-34.0,-32.0,-67.0,-59.0,0.0
-72.0,-54.0,-43.0,3.0,-13.0,1.0,-42.0,-27.0,-83.0,-65.0,0.0
-49.0,-53.0,-2.0,12.0,-5.0,-1.0,-55.0,-28.0,-84.0,-56.0,0.0
-57.0,-53.0,1.0,20.0,0.0,-12.0,-55.0,-25.0,-68.0,-51.0,0.0
-63.0,-51.0,-11.0,20.0,4.0,-2.0,-44.0,-27.0,-65.0,-67.0,0.0
-60.0,-35.0,0.0,22.0,13.0,18.0,-26.0,-18.0,-46.0,-55.0,0.0
-29.0,-14.0,-74.0,17.0,7.0,19.0,-2.0,-13.0,-16.0,-37.0,0.0
19.0,36.0,-105.0,22.0,8.0,-1.0,-4.0,-22.0,-7.0,-8.0,0.0
52.0,61.0,-25.0,15.0,5.0,-13.0,-5.0,-9.0,15.0,46.0,0.0
46.0,41.0,-91.0,-8.0,6.0,-13.0,0.0,-3.0,64.0,69.0,0.0
32.0,48.0,-86.0,-28.0,0.0,-7.0,17.0,14.0,130.0,84.0,0.0
35.0,79.0,7.0,-5.0,5.0,-10.0,8.0,2.0,87.0,104.0,0.0
29.0,113.0,31.0,1.0,17.0,3.0,6.0,-5.0,43.0,97.0,0.0
12.0,184.0,53.0,0.0,24.0,12.0,17.0,-7.0,26.0,53.0,0.0
12.0,206.0,40.0,-1.0,21.0,10.0,12.0,-2.0,8.0,28.0,0.0
33.0,174.0,42.0,9.0,11.0,7.0,-7.0,-14.0,6.0,47.0,0.0
57.0,132.0,56.0,7.0,12.0,-6.0,-10.0,-2.0,-9.0,66.0,0.0
20.0,77.0,74.0,12.0,17.0,-10.0,-6.0,4.0,-36.0,32.0,0.0
13.0,15.0,78.0,21.0,21.0,-6.0,-8.0,-1.0,-62.0,-1.0,0.0
24.0,-37.0,70.0,23.0,22.0,-8.0,26.0,-9.0,-41.0,-14.0,0.0
23.0,-104.0,34.0,3.0,28.0,1.0,17.0,1.0,-27.0,-5.0,0.0
1.0,-205.0,-38.0,0.0,29.0,17.0,2.0,8.0,-15.0,0.0,0.0
-21.0,-248.0,-37.0,1.0,28.0,22.0,6.0,35.0,-14.0,-4.0,0.0
-23.0,-167.0,9.0,9.0,14.0,11.0,4.0,24.0,-14.0,-9.0,0.0
-25.0,-96.0,-35.0,0.0,14.0,5.0,4.0,16.0,-18.0,-18.0,0.0
-41.0,-85.0,-38.0,-8.0,8.0,10.0,24.0,10.0,-29.0,-38.0,0.0
-42.0,-40.0,-53.0,-12.0,-2.0,9.0,40.0,3.0,-33.0,-32.0,0.0
-35.0,6.0,-138.0,-14.0,-2.0,5.0,43.0,7.0,-12.0,-22.0,0.0
-65.0,9.0,-98.0,-12.0,4.0,8.0,44.0,4.0,-12.0,-34.0,0.0
-77.0,-24.0,-16.0,-5.0,6.0,17.0,30.0,3.0,-18.0,-44.0,0.0
-22.0,-43.0,15.0,-8.0,15.0,19.0,-3.0,-5.0,9.0,-25.0,0.0
-27.0,-72.0,33.0,-12.0,10.0,8.0,-12.0,2.0,24.0,-41.0,0.0
-29.0,-79.0,8.0,-22.0,-3.0,2.0,-6.0,-3.0,31.0,-65.0,0.0
0.0,-66.0,20.0,-27.0,4.0,0.0,11.0,5.0,41.0,-65.0,0.0
41.0,-3.0,30.0,-20.0,9.0,6.0,17.0,4.0,34.0,-51.0,0.0
59.0,55.0,24.0,-16.0,2.0,3.0,29.0,18.0,-1.0,-56.0,0.0
61.0,97.0,29.0,-13.0,5.0,3.0,25.0,11.0,-15.0,-62.0,0.0
36.0,133.0,9.0,-13.0,10.0,0.0,19.0,-1.0,-27.0,-50.0,0.0
-8.0,127.0,13.0,-16.0,0.0,-13.0,9.0,-8.0,-9.0,-50.0,0.0
-8.0,120.0,37.0,-18.0,1.0,-20.0,-12.0,-1.0,72.0,-12.0,0.0
13.0,84.0,38.0,-17.0,1.0,-27.0,-17.0,19.0,144.0,40.0,0.0
12.0,33.0,24.0,-9.0,-10.0,-21.0,-10.0,8.0,136.0,47.0,0.0
23.0,25.0,13.0,-11.0,-20.0,-14.0,-12.0,18.0,129.0,41.0,0.0
17.0,-14.0,-62.0,-2.0,-18.0,-3.0,-20.0,4.0,110.0,47.0,0.0
-21.0,-96.0,-20.0,-3.0,-14.0,6.0,-25.0,-3.0,39.0,27.0,0.0
-61.0,-115.0,16.0,-2.0,-6.0,18.0,-16.0,8.0,40.0,17.0,0.0
-71.0,-76.0,18.0,0.0,-15.0,25.0,-6.0,4.0,50.0,-1.0,0.0
-57.0,-39.0,25.0,1.0,-8.0,19.0,3.0,5.0,33.0,-2.0,0.0
-46.0,-16.0,12.0,13.0,3.0,22.0,18.0,-6.0,13.0,2.0,0.0
-40.0,-3.0,-35.0,13.0,14.0,18.0,18.0,1.0,16.0,-7.0,0.0
-45.0,-18.0,-131.0,-11.0,25.0,12.0,-12.0,3.0,22.0,-39.0,0.0
-20.0,-15.0,-102.0,-16.0,16.0,17.0,-28.0,7.0,9.0,-18.0,0.0
26.0,0.0,21.0,-8.0,7.0,17.0,-30.0,4.0,1.0,47.0,0.0
61.0,20.0,44.0,-5.0,10.0,9.0,-20.0,-11.0,-4.0,53.0,0.0
88.0,63.0,56.0,-2.0,8.0,12.0,4.0,5.0,13.0,39.0,0.0
74.0,75.0,53.0,0.0,9.0,9.0,-7.0,-5.0,-9.0,4.0,0.0
42.0,61.0,32.0,-11.0,2.0,0.0,-9.0,-5.0,-34.0,-25.0,0.0
11.0,33.0,16.0,-27.0,-10.0,-4.0,21.0,-14.0,-44.0,-48.0,0.0
0.0,-5.0,-3.0,-28.0,-21.0,-5.0,32.0,-10.0,-64.0,-52.0,0.0
41.0,0.0,19.0,-2.0,-15.0,-6.0,19.0,-18.0,-46.0,10.0,0.0
53.0,15.0,17.0,1.0,3.0,-4.0,24.0,-27.0,-46.0,49.0,0.0
36.0,-3.0,14.0,-8.0,2.0,-14.0,25.0,-21.0,-35.0,31.0,0.0
10.0,-12.0,24.0,-9.0,-5.0,-11.0,34.0,-11.0,-9.0,24.0,0.0
4.0,-7.0,38.0,2.0,0.0,-20.0,42.0,-6.0,50.0,50.0,0.0
14.0,-8.0,38.0,7.0,9.0,-18.0,41.0,-5.0,85.0,71.0,0.0
8.0,-2.0,34.0,16.0,0.0,-17.0,33.0,4.0,77.0,70.0,0.0
-13.0,-5.0,35.0,10.0,2.0,-21.0,0.0,2.0,18.0,37.0,0.0
-32.0,-6.0,27.0,15.0,-1.0,-9.0,-14.0,-8.0,-25.0,1.0,0.0
-43.0,-8.0,24.0,4.0,1.0,-6.0,-22.0,-3.0,-25.0,-9.0,0.0
-43.0,-17.0,3.0,7.0,1.0,-2.0,-29.0,0.0,-26.0,-19.0,0.0
-25.0,-17.0,28.0,15.0,-3.0,3.0,-33.0,1.0,-22.0,-10.0,0.0
5.0,8.0,36.0,25.0,-6.0,-4.0,-37.0,-4.0,-12.0,22.0,0.0
19.0,32.0,37.0,28.0,0.0,0.0,-30.0,-2.0,-6.0,44.0,0.0
3.0,21.0,20.0,26.0,2.0,0.0,-35.0,-8.0,-4.0,36.0,0.0
-6.0,13.0,8.0,29.0,4.0,-19.0,-39.0,-13.0,-3.0,28.0,0.0
4.0,24.0,5.0,22.0,0.0,-7.0,-34.0,-12.0,12.0,18.0,0.0
32.0,20.0,-70.0,17.0,-1.0,-3.0,12.0,-2.0,53.0,32.0,0.0
13.0,-15.0,-34.0,14.0,0.0,-18.0,13.0,1.0,45.0,14.0,0.0
-8.0,-66.0,12.0,-2.0,-1.0,-18.0,5.0,-4.0,-8.0,-25.0,0.0
-25.0,-75.0,-4.0,-16.0,-6.0,-7.0,2.0,-7.0,-28.0,-36.0,0.0
18.0,-17.0,-1.0,-11.0,-7.0,-2.0,-23.0,-3.0,21.0,19.0,0.0
55.0,40.0,27.0,5.0,-9.0,-9.0,-37.0,-3.0,70.0,54.0,0.0
43.0,30.0,30.0,4.0,-15.0,-20.0,-34.0,-9.0,43.0,30.0,0.0
24.0,28.0,32.0,8.0,-15.0,-24.0,-20.0,1.0,41.0,-5.0,0.0
17.0,34.0,-26.0,6.0,-15.0,-30.0,-22.0,-1.0,10.0,-11.0,0.0
20.0,22.0,-34.0,11.0,4.0,-18.0,-43.0,-22.0,-53.0,14.0,0.0
17.0,3.0,11.0,3.0,8.0,5.0,-42.0,-22.0,-57.0,21.0,0.0
9.0,2.0,-33.0,-18.0,-11.0,9.0,-28.0,-3.0,-44.0,13.0,0.0
15.0,25.0,-37.0,-33.0,-17.0,2.0,-3.0,4.0,-14.0,12.0,0.0
16.0,46.0,-37.0,-28.0,-8.0,-9.0,24.0,13.0,0.0,24.0,0.0
10.0,82.0,-80.0,-38.0,-13.0,-15.0,28.0,13.0,-34.0,35.0,0.0
22.0,112.0,-44.0,-39.0,-6.0,-12.0,40.0,14.0,-45.0,18.0,0.0
2.0,108.0,-33.0,-26.0,-3.0,-9.0,31.0,5.0,-38.0,-12.0,0.0
-7.0,111.0,-25.0,-10.0,-19.0,-2.0,41.0,4.0,26.0,-23.0,0.0
-32.0,97.0,41.0,-1.0,-28.0,5.0,44.0,-8.0,16.0,-34.0,0.0
-76.0,45.0,68.0,21.0,-22.0,7.0,33.0,-18.0,0.0,-59.0,0.0
-47.0,4.0,58.0,46.0,-26.0,9.0,13.0,-14.0,-17.0,-57.0,0.0
-2.0,-24.0,45.0,51.0,-19.0,0.0,-16.0,-15.0,7.0,-11.0,0.0
-19.0,-123.0,5.0,35.0,-9.0,-4.0,-12.0,-15.0,27.0,29.0,0.0
-48.0,-225.0,-49.0,17.0,-5.0,12.0,21.0,0.0,37.0,23.0,0.0
-66.0,-213.0,-126.0,14.0,-4.0,6.0,28.0,0.0,42.0,4.0,0.0
-77.0,-168.0,-64.0,-4.0,-7.0,-10.0,15.0,3.0,29.0,-23.0,0.0
-64.0,-145.0,-63.0,-58.0,-14.0,-10.0,12.0,3.0,9.0,-41.0,0.0
-48.0,-126.0,-135.0,-71.0,-19.0,0.0,20.0,3.0,-14.0,-64.0,0.0
-32.0,-104.0,-27.0,-52.0,-2.0,7.0,23.0,-2.0,-21.0,-72.0,0.0
-30.0,-74.0,54.0,-51.0,-4.0,2.0,20.0,11.0,-31.0,-68.0,0.0
-5.0,-40.0,67.0,-32.0,-11.0,13.0,3.0,2.0,-25.0,-30.0,0.0
24.0,2.0,60.0,-17.0,0.0,18.0,6.0,3.0,-31.0,7.0,0.0
34.0,7.0,26.0,-17.0,2.0,13.0,3.0,2.0,0.0,32.0,0.0
33.0,2.0,4.0,-10.0,1.0,-1.0,-6.0,6.0,54.0,49.0,0.0
33.0,-3.0,10.0,1.0,-10.0,-15.0,-9.0,-1.0,59.0,52.0,0.0
45.0,-1.0,26.0,1.0,-16.0,-32.0,6.0,19.0,124.0,70.0,0.0
42.0,16.0,40.0,15.0,-16.0,-28.0,11.0,14.0,136.0,76.0,0.0
43.0,35.0,48.0,16.0,-17.0,-6.0,6.0,13.0,110.0,61.0,0.0
8.0,46.0,15.0,15.0,-10.0,10.0,3.0,0.0,39.0,19.0,0.0
22.0,83.0,17.0,26.0,1.0,16.0,1.0,15.0,5.0,22.0,0.0
81.0,128.0,58.0,29.0,11.0,-6.0,10.0,26.0,-1.0,55.0,0.0
98.0,137.0,64.0,22.0,5.0,-20.0,23.0,20.0,-26.0,44.0,0.0
44.0,107.0,53.0,12.0,9.0,-25.0,32.0,20.0,-31.0,18.0,0.0
1.0,67.0,35.0,-5.0,7.0,-8.0,27.0,10.0,-32.0,20.0,0.0
-24.0,-1.0,15.0,1.0,4.0,10.0,39.0,28.0,-22.0,29.0,0.0
-48.0,-82.0,-3.0,10.0,15.0,18.0,47.0,38.0,-22.0,13.0,0.0
-40.0,-103.0,-29.0,14.0,17.0,24.0,32.0,20.0,-27.0,-10.0,0.0
-20.0,-62.0,-27.0,18.0,15.0,23.0,5.0,15.0,-39.0,-17.0,0.0
-18.0,-37.0,-112.0,13.0,2.0,23.0,0.0,5.0,-39.0,-34.0,0.0
-15.0,-18.0,-72.0,5.0,14.0,27.0,-14.0,7.0,-42.0,-57.0,0.0
-5.0,-14.0,14.0,22.0,26.0,20.0,-13.0,6.0,-51.0,-41.0,0.0
4.0,-6.0,28.0,37.0,31.0,16.0,-14.0,-14.0,-54.0,-42.0,0.0
-11.0,-23.0,18.0,16.0,30.0,19.0,-28.0,-12.0,-58.0,-72.0,0.0
-3.0,-13.0,29.0,5.0,30.0,15.0,-21.0,-10.0,-51.0,-81.0,0.0
28.0,19.0,52.0,8.0,23.0,6.0,-24.0,-24.0,-43.0,-44.0,0.0
40.0,30.0,50.0,18.0,22.0,3.0,-27.0,-29.0,-33.0,-15.0,0.0
55.0,32.0,52.0,17.0,18.0,-8.0,0.0,-27.0,-32.0,6.0,0.0
92.0,27.0,34.0,14.0,14.0,-6.0,8.0,-26.0,-37.0,42.0,0.0
146.0,20.0,0.0,10.0,17.0,-13.0,5.0,-26.0,-42.0,89.0,0.0
149.0,40.0,39.0,12.0,11.0,-26.0,-13.0,-39.0,-23.0,84.0,0.0
-88.0,-60.0,-80.0,-21.0,21.0,-26.0,-48.0,-3.0,10.0,-16.0,0.0
-85.0,-113.0,-31.0,-13.0,20.0,-25.0,-33.0,-19.0,11.0,-24.0,0.0
-89.0,-124.0,-30.0,-19.0,16.0,-9.0,-16.0,-17.0,16.0,-49.0,0.0
-80.0,-119.0,-41.0,-16.0,8.0,4.0,-11.0,-7.0,17.0,-63.0,0.0
-61.0,-88.0,-56.0,-12.0,6.0,10.0,-14.0,-5.0,-6.0,-41.0,0.0
-21.0,-23.0,-68.0,-12.0,14.0,11.0,-14.0,5.0,-1.0,17.0,0.0
23.0,12.0,-20.0,0.0,19.0,11.0,-11.0,25.0,27.0,54.0,0.0
32.0,15.0,18.0,-1.0,12.0,3.0,0.0,12.0,47.0,59.0,0.0
32.0,17.0,33.0,-1.0,-1.0,0.0,32.0,13.0,43.0,44.0,0.0
16.0,26.0,32.0,-11.0,5.0,-15.0,30.0,-3.0,19.0,13.0,0.0
8.0,47.0,29.0,-15.0,7.0,-12.0,-6.0,6.0,6.0,6.0,0.0
-1.0,52.0,17.0,-12.0,14.0,-10.0,-10.0,3.0,-1.0,4.0,0.0
-20.0,39.0,17.0,-14.0,16.0,-1.0,-2.0,8.0,-23.0,-28.0,0.0
-32.0,19.0,15.0,-10.0,10.0,3.0,9.0,5.0,-48.0,-59.0,0.0
-30.0,10.0,40.0,7.0,-3.0,6.0,15.0,0.0,-54.0,-41.0,0.0
-1.0,15.0,40.0,13.0,-3.0,8.0,31.0,-4.0,-47.0,-21.0,0.0
-15.0,-3.0,44.0,18.0,-2.0,13.0,36.0,-4.0,-46.0,-27.0,0.0
-22.0,-7.0,45.0,13.0,9.0,19.0,23.0,-8.0,-52.0,-24.0,0.0
19.0,5.0,42.0,13.0,13.0,20.0,-28.0,-13.0,-53.0,12.0,0.0
54.0,10.0,37.0,12.0,11.0,12.0,-34.0,-17.0,-44.0,50.0,0.0
43.0,-18.0,13.0,9.0,3.0,0.0,-35.0,-12.0,-40.0,30.0,0.0
11.0,-28.0,1.0,14.0,-4.0,-9.0,-31.0,-20.0,-47.0,-6.0,0.0
-2.0,-36.0,-22.0,17.0,-15.0,-15.0,-15.0,-14.0,-47.0,-32.0,0.0
-3.0,-34.0,-16.0,6.0,-3.0,-11.0,12.0,-6.0,-49.0,-28.0,0.0
13.0,-16.0,-43.0,-1.0,-5.0,-16.0,12.0,8.0,-11.0,-5.0,0.0
56.0,11.0,-108.0,-14.0,-14.0,-20.0,19.0,18.0,90.0,37.0,0.0
74.0,29.0,-36.0,-29.0,-31.0,-2.0,9.0,33.0,131.0,52.0,0.0
50.0,6.0,13.0,-38.0,-30.0,-4.0,-2.0,39.0,125.0,57.0,0.0
0.0,-46.0,-18.0,-48.0,-32.0,-25.0,-11.0,33.0,45.0,37.0,0.0
-28.0,-61.0,-36.0,-35.0,-28.0,-26.0,-8.0,27.0,33.0,21.0,0.0
-51.0,-30.0,-12.0,-9.0,-26.0,-22.0,-21.0,13.0,44.0,11.0,0.0
-24.0,23.0,25.0,3.0,-27.0,-19.0,-23.0,27.0,78.0,15.0,0.0
4.0,128.0,48.0,16.0,-27.0,-5.0,12.0,23.0,73.0,13.0,0.0
16.0,212.0,61.0,24.0,-24.0,17.0,47.0,21.0,70.0,12.0,0.0
30.0,211.0,66.0,24.0,-13.0,29.0,75.0,56.0,124.0,19.0,0.0
50.0,144.0,56.0,22.0,2.0,24.0,86.0,72.0,139.0,64.0,0.0
38.0,57.0,45.0,18.0,6.0,28.0,76.0,52.0,105.0,86.0,0.0
6.0,23.0,50.0,25.0,9.0,25.0,46.0,35.0,72.0,51.0,0.0
18.0,2.0,51.0,28.0,13.0,26.0,21.0,40.0,87.0,30.0,0.0
17.0,-36.0,10.0,7.0,23.0,21.0,14.0,56.0,86.0,26.0,0.0
-12.0,-121.0,-17.0,0.0,24.0,22.0,16.0,57.0,63.0,1.0,0.0
-30.0,-200.0,-46.0,-1.0,25.0,28.0,30.0,59.0,68.0,4.0,0.0
-18.0,-191.0,-26.0,-4.0,25.0,25.0,43.0,44.0,75.0,3.0,0.0
6.0,-123.0,-13.0,6.0,25.0,26.0,19.0,20.0,58.0,5.0,0.0
-6.0,-86.0,-16.0,10.0,27.0,24.0,15.0,17.0,-5.0,-11.0,0.0
-3.0,-67.0,-23.0,2.0,12.0,23.0,51.0,30.0,2.0,-30.0,0.0
15.0,-37.0,-14.0,2.0,10.0,10.0,44.0,8.0,7.0,-14.0,0.0
29.0,-28.0,42.0,6.0,14.0,3.0,33.0,-13.0,-4.0,18.0,0.0
11.0,-41.0,24.0,18.0,15.0,-3.0,6.0,-12.0,-61.0,11.0,0.0
-28.0,-56.0,-19.0,12.0,9.0,-9.0,-18.0,-20.0,-108.0,-8.0,0.0
-27.0,-32.0,-59.0,0.0,-4.0,-7.0,-36.0,-11.0,-69.0,5.0,0.0
40.0,30.0,15.0,0.0,-9.0,-11.0,-55.0,-3.0,12.0,51.0,0.0
78.0,97.0,60.0,13.0,-13.0,-23.0,-51.0,-23.0,70.0,83.0,0.0
36.0,101.0,14.0,26.0,-12.0,-39.0,-52.0,-26.0,35.0,50.0,0.0
-7.0,53.0,-6.0,17.0,-8.0,-36.0,-46.0,-23.0,35.0,4.0,0.0
-47.0,2.0,21.0,10.0,4.0,-20.0,-37.0,-5.0,10.0,-36.0,0.0
-73.0,-19.0,-3.0,17.0,19.0,-3.0,-32.0,-16.0,-85.0,-45.0,0.0
-56.0,-20.0,-64.0,20.0,17.0,10.0,-41.0,-28.0,-115.0,-35.0,0.0
-39.0,0.0,-118.0,1.0,1.0,10.0,-37.0,-6.0,-75.0,-43.0,0.0
-19.0,26.0,-113.0,-45.0,0.0,19.0,-6.0,2.0,2.0,-30.0,0.0
-23.0,25.0,-59.0,-59.0,-5.0,25.0,19.0,2.0,-20.0,-67.0,0.0
-39.0,24.0,26.0,-37.0,-2.0,21.0,14.0,-3.0,-73.0,-92.0,0.0
4.0,66.0,65.0,-35.0,11.0,15.0,23.0,2.0,6.0,-32.0,0.0
11.0,75.0,76.0,-24.0,16.0,14.0,39.0,10.0,26.0,-16.0,0.0
-11.0,55.0,54.0,-9.0,18.0,12.0,53.0,-2.0,-28.0,-47.0,0.0
9.0,74.0,45.0,-11.0,22.0,13.0,61.0,-12.0,-2.0,-43.0,0.0
18.0,73.0,20.0,-8.0,10.0,19.0,42.0,-8.0,-19.0,-34.0,0.0
18.0,53.0,1.0,-20.0,0.0,21.0,41.0,-5.0,-33.0,-37.0,0.0
50.0,44.0,29.0,-15.0,1.0,5.0,42.0,0.0,-4.0,0.0,0.0
68.0,31.0,41.0,1.0,-1.0,-9.0,30.0,-4.0,7.0,51.0,0.0
70.0,7.0,44.0,5.0,-9.0,-4.0,1.0,-10.0,30.0,100.0,0.0
65.0,-13.0,25.0,-4.0,-13.0,0.0,-29.0,0.0,19.0,99.0,0.0
66.0,6.0,-12.0,-1.0,-12.0,4.0,-25.0,-13.0,6.0,77.0,0.0
40.0,5.0,-73.0,0.0,-4.0,6.0,-14.0,-13.0,1.0,47.0,0.0
-1.0,-3.0,-47.0,-11.0,-5.0,-1.0,-12.0,-3.0,11.0,29.0,0.0
-28.0,-13.0,10.0,-11.0,0.0,-19.0,-33.0,-8.0,2.0,11.0,0.0
0.0,-20.0,8.0,-19.0,4.0,-19.0,-32.0,-1.0,39.0,36.0,0.0
11.0,-26.0,-84.0,-30.0,-4.0,-14.0,-23.0,-7.0,23.0,13.0,0.0
0.0,7.0,-131.0,-39.0,-11.0,-18.0,3.0,-15.0,-4.0,-32.0,0.0
-9.0,47.0,-58.0,-26.0,-12.0,-20.0,0.0,-21.0,-50.0,-57.0,0.0
3.0,71.0,50.0,-5.0,-3.0,-17.0,8.0,-18.0,-27.0,-44.0,0.0
22.0,66.0,47.0,2.0,-1.0,0.0,13.0,-13.0,-39.0,-10.0,0.0
16.0,39.0,54.0,3.0,-2.0,4.0,17.0,-6.0,-32.0,-29.0,0.0
-13.0,-1.0,38.0,9.0,4.0,9.0,28.0,6.0,-41.0,-74.0,0.0
-5.0,-8.0,37.0,17.0,19.0,14.0,8.0,-2.0,-40.0,-54.0,0.0
36.0,-18.0,48.0,20.0,24.0,17.0,-8.0,0.0,1.0,5.0,0.0
16.0,-53.0,43.0,14.0,28.0,31.0,14.0,5.0,1.0,2.0,0.0
-23.0,-65.0,29.0,14.0,21.0,23.0,15.0,-8.0,-37.0,-21.0,0.0
-28.0,-22.0,40.0,6.0,13.0,18.0,-13.0,-12.0,-57.0,-6.0,0.0
-25.0,17.0,58.0,15.0,16.0,16.0,10.0,-18.0,-18.0,10.0,0.0
-24.0,5.0,43.0,21.0,12.0,18.0,15.0,-2.0,-21.0,-2.0,0.0
-6.0,-7.0,11.0,16.0,10.0,11.0,4.0,4.0,-27.0,2.0,0.0
12.0,-2.0,-60.0,4.0,5.0,0.0,3.0,9.0,-35.0,20.0,0.0
-1.0,0.0,3.0,4.0,6.0,7.0,16.0,18.0,-32.0,27.0,0.0
-5.0,-6.0,43.0,4.0,7.0,8.0,12.0,12.0,-5.0,15.0,0.0
-20.0,-24.0,29.0,4.0,3.0,7.0,6.0,8.0,-12.0,-4.0,0.0
-44.0,-43.0,0.0,0.0,7.0,9.0,0.0,5.0,-49.0,-30.0,0.0
-45.0,-41.0,-40.0,-8.0,11.0,18.0,0.0,-4.0,-55.0,-38.0,0.0
-4.0,-40.0,-21.0,-12.0,20.0,19.0,7.0,10.0,0.0,16.0,0.0
2.0,-55.0,-1.0,-19.0,20.0,15.0,1.0,7.0,3.0,37.0,0.0
0.0,-68.0,-8.0,-24.0,6.0,4.0,-8.0,-3.0,5.0,20.0,0.0
7.0,-28.0,5.0,-13.0,-6.0,0.0,-17.0,-3.0,-27.0,2.0,0.0
-4.0,0.0,13.0,0.0,-16.0,-2.0,-46.0,-21.0,-105.0,1.0,0.0
-12.0,-5.0,-6.0,-12.0,-17.0,-21.0,-46.0,-22.0,-92.0,20.0,0.0
-36.0,-7.0,-17.0,-26.0,-17.0,-32.0,-49.0,-29.0,-63.0,26.0,0.0
-49.0,7.0,-53.0,-22.0,-14.0,-21.0,-45.0,-18.0,-62.0,17.0,0.0
-47.0,2.0,-140.0,-19.0,-6.0,-15.0,-43.0,-24.0,-68.0,-12.0,0.0
-62.0,-16.0,-108.0,-14.0,-4.0,-8.0,-38.0,-10.0,-66.0,-27.0,0.0
-62.0,-37.0,-32.0,-17.0,-21.0,-3.0,-31.0,-1.0,-34.0,-27.0,0.0
-56.0,-48.0,-33.0,-15.0,-16.0,-2.0,-33.0,7.0,-24.0,0.0,0.0
-51.0,-42.0,-11.0,-5.0,-9.0,-4.0,-31.0,-8.0,-11.0,48.0,0.0
-58.0,-51.0,0.0,8.0,-10.0,-4.0,-24.0,-1.0,-23.0,-9.0,0.0
-58.0,-52.0,20.0,15.0,4.0,7.0,-20.0,5.0,-34.0,-36.0,0.0
-35.0,-34.0,23.0,13.0,6.0,10.0,-36.0,-10.0,-28.0,-32.0,0.0
-4.0,2.0,27.0,14.0,-3.0,6.0,-41.0,4.0,-30.0,-16.0,0.0
2.0,21.0,10.0,6.0,-5.0,4.0,-11.0,4.0,-40.0,-9.0,0.0
4.0,8.0,37.0,-5.0,0.0,2.0,-10.0,12.0,-47.0,-7.0,0.0
11.0,5.0,15.0,6.0,7.0,7.0,-20.0,8.0,-59.0,0.0,0.0
15.0,19.0,8.0,14.0,-1.0,6.0,-32.0,4.0,-50.0,-26.0,0.0
30.0,35.0,51.0,7.0,-13.0,-5.0,-46.0,-4.0,-33.0,-33.0,0.0
33.0,42.0,39.0,10.0,-11.0,-6.0,-28.0,-16.0,-43.0,-14.0,0.0
57.0,51.0,46.0,17.0,-13.0,-13.0,17.0,0.0,-16.0,-14.0,0.0
63.0,61.0,52.0,14.0,-27.0,-24.0,31.0,-7.0,0.0,-10.0,0.0
59.0,55.0,34.0,9.0,-21.0,-24.0,14.0,-22.0,-36.0,18.0,0.0
74.0,44.0,24.0,7.0,-15.0,-33.0,10.0,-34.0,-44.0,18.0,0.0
60.0,40.0,26.0,-4.0,-12.0,-31.0,8.0,-30.0,-44.0,-5.0,0.0
20.0,28.0,-30.0,-14.0,-11.0,-20.0,8.0,-23.0,-26.0,-25.0,0.0
-14.0,-8.0,-144.0,-22.0,-10.0,-14.0,8.0,-5.0,-6.0,-37.0,0.0
-24.0,-25.0,-78.0,-27.0,-15.0,-24.0,-1.0,-3.0,-3.0,-42.0,0.0
-52.0,-51.0,4.0,-36.0,-1.0,-32.0,1.0,8.0,-15.0,-65.0,0.0
-79.0,-77.0,-7.0,-13.0,30.0,-25.0,-13.0,2.0,-25.0,-34.0,0.0
-48.0,-64.0,10.0,11.0,52.0,-16.0,-14.0,6.0,45.0,-2.0,0.0
-1.0,-46.0,23.0,19.0,62.0,-3.0,-7.0,1.0,109.0,37.0,0.0
4.0,-56.0,15.0,12.0,59.0,-5.0,-8.0,2.0,107.0,27.0,0.0
1.0,-75.0,-1.0,13.0,36.0,-1.0,-22.0,-12.0,60.0,21.0,0.0
-5.0,-76.0,-18.0,3.0,10.0,-6.0,-10.0,-21.0,-3.0,8.0,0.0
30.0,-53.0,19.0,-17.0,0.0,-20.0,15.0,-22.0,73.0,22.0,0.0
42.0,-40.0,39.0,-21.0,2.0,-31.0,11.0,-31.0,94.0,31.0,0.0
29.0,-18.0,29.0,-13.0,-9.0,-34.0,8.0,-14.0,72.0,12.0,0.0
2.0,-8.0,22.0,-24.0,-37.0,-17.0,19.0,5.0,59.0,1.0,0.0
3.0,-6.0,22.0,-38.0,-44.0,-9.0,25.0,4.0,82.0,-5.0,0.0
20.0,31.0,3.0,-26.0,-37.0,-8.0,-11.0,8.0,80.0,20.0,0.0
19.0,52.0,14.0,-4.0,-42.0,-14.0,-18.0,13.0,34.0,6.0,0.0
5.0,63.0,24.0,-4.0,-52.0,-19.0,-4.0,27.0,35.0,-26.0,0.0
37.0,70.0,27.0,4.0,-38.0,-27.0,-14.0,46.0,47.0,-19.0,0.0
73.0,66.0,28.0,3.0,-19.0,-10.0,-29.0,44.0,54.0,5.0,0.0
58.0,38.0,35.0,0.0,-24.0,4.0,-11.0,23.0,47.0,1.0,0.0
43.0,23.0,36.0,3.0,-19.0,0.0,-4.0,21.0,43.0,-9.0,0.0
14.0,-1.0,14.0,4.0,-11.0,-10.0,-16.0,28.0,6.0,-27.0,0.0
21.0,0.0,11.0,18.0,0.0,-5.0,1.0,32.0,51.0,-25.0,0.0
40.0,11.0,-22.0,33.0,7.0,-2.0,4.0,24.0,32.0,-41.0,0.0
58.0,56.0,-97.0,44.0,-7.0,0.0,-4.0,6.0,-12.0,-13.0,0.0
67.0,108.0,-55.0,32.0,-14.0,-5.0,-21.0,-20.0,-80.0,10.0,0.0
58.0,116.0,-20.0,3.0,-19.0,0.0,-24.0,-22.0,-105.0,1.0,0.0
56.0,99.0,-1.0,3.0,-15.0,-1.0,-26.0,-23.0,-93.0,19.0,0.0
66.0,58.0,27.0,-4.0,-10.0,-19.0,-40.0,-25.0,-28.0,76.0,0.0
34.0,5.0,22.0,-24.0,-19.0,-15.0,-29.0,-31.0,-6.0,61.0,0.0
8.0,-14.0,14.0,-45.0,-28.0,1.0,3.0,-18.0,13.0,42.0,0.0
6.0,-9.0,25.0,-40.0,-25.0,-2.0,9.0,-8.0,38.0,29.0,0.0
1.0,-14.0,19.0,-16.0,-22.0,4.0,1.0,7.0,20.0,11.0,0.0
-45.0,-100.0,0.0,-9.0,-8.0,6.0,8.0,0.0,-8.0,-16.0,0.0
-79.0,-194.0,-24.0,8.0,2.0,9.0,18.0,15.0,1.0,-19.0,0.0
-61.0,-156.0,6.0,24.0,-1.0,12.0,26.0,26.0,34.0,0.0,0.0
-28.0,-90.0,32.0,26.0,-7.0,0.0,24.0,4.0,7.0,7.0,0.0
0.0,-61.0,23.0,9.0,-26.0,5.0,20.0,19.0,23.0,17.0,0.0
0.0,-52.0,-15.0,-34.0,-26.0,21.0,49.0,16.0,-3.0,3.0,0.0
-18.0,-55.0,-8.0,-36.0,-18.0,25.0,52.0,-4.0,-46.0,-28.0,0.0
-3.0,-18.0,25.0,-14.0,-14.0,14.0,51.0,-4.0,-11.0,-23.0,0.0
36.0,13.0,36.0,-5.0,-11.0,8.0,37.0,-21.0,-19.0,-23.0,0.0
59.0,14.0,25.0,0.0,-19.0,13.0,35.0,-7.0,-10.0,-11.0,0.0
17.0,-5.0,-4.0,-11.0,-20.0,17.0,17.0,-6.0,-9.0,-8.0,0.0
-34.0,-23.0,-39.0,-15.0,-8.0,15.0,-26.0,-2.0,-50.0,-19.0,0.0
-87.0,-58.0,-137.0,-11.0,2.0,6.0,-50.0,-21.0,-120.0,-66.0,0.0
-93.0,-73.0,-144.0,-23.0,0.0,-6.0,-49.0,-20.0,-121.0,-80.0,0.0
-67.0,-87.0,-70.0,-27.0,-7.0,-16.0,-31.0,-23.0,-116.0,-39.0,0.0
-55.0,-82.0,-50.0,-29.0,-11.0,-11.0,1.0,-17.0,-95.0,-21.0,0.0
-61.0,-63.0,-37.0,-29.0,-3.0,0.0,5.0,-27.0,-77.0,-37.0,0.0
-58.0,-40.0,-40.0,-17.0,2.0,15.0,-28.0,-28.0,-45.0,-43.0,0.0
-21.0,-9.0,-22.0,-3.0,9.0,12.0,-10.0,-20.0,-1.0,-13.0,0.0
-1.0,27.0,0.0,0.0,9.0,17.0,26.0,-5.0,27.0,1.0,0.0
11.0,45.0,-3.0,5.0,2.0,15.0,38.0,9.0,62.0,17.0,0.0
19.0,64.0,6.0,7.0,11.0,16.0,22.0,18.0,75.0,19.0,0.0
14.0,59.0,2.0,19.0,23.0,25.0,8.0,16.0,39.0,1.0,0.0
3.0,53.0,25.0,9.0,29.0,23.0,1.0,23.0,-1.0,-33.0,0.0
-18.0,41.0,17.0,2.0,24.0,22.0,-3.0,19.0,-37.0,-56.0,0.0
-42.0,34.0,8.0,6.0,14.0,26.0,-2.0,18.0,-49.0,-55.0,0.0
-35.0,25.0,-21.0,18.0,9.0,18.0,11.0,19.0,-41.0,-7.0,0.0
-15.0,19.0,-118.0,10.0,15.0,10.0,41.0,3.0,-30.0,26.0,0.0
-31.0,1.0,-160.0,3.0,22.0,22.0,39.0,5.0,-58.0,-4.0,0.0
-24.0,19.0,-101.0,9.0,21.0,9.0,19.0,18.0,-48.0,20.0,0.0
20.0,54.0,16.0,20.0,0.0,3.0,4.0,-1.0,-17.0,63.0,0.0
30.0,74.0,63.0,33.0,-1.0,8.0,-6.0,-8.0,-1.0,67.0,0.0
37.0,82.0,67.0,27.0,4.0,5.0,-6.0,-13.0,19.0,63.0,0.0
49.0,78.0,46.0,23.0,12.0,0.0,-26.0,3.0,64.0,61.0,0.0
74.0,89.0,56.0,25.0,13.0,0.0,-33.0,21.0,118.0,85.0,0.0
56.0,83.0,58.0,15.0,11.0,-16.0,-21.0,19.0,84.0,69.0,0.0
42.0,65.0,48.0,12.0,6.0,-19.0,-17.0,23.0,85.0,53.0,0.0
1.0,23.0,27.0,1.0,8.0,-23.0,-13.0,3.0,0.0,13.0,0.0
-30.0,-18.0,-3.0,-2.0,9.0,-11.0,0.0,-4.0,-71.0,-24.0,0.0
-27.0,-31.0,-23.0,0.0,10.0,2.0,2.0,-4.0,-76.0,-27.0,0.0
8.0,-45.0,-15.0,9.0,2.0,4.0,-9.0,-9.0,-58.0,-1.0,0.0
21.0,-51.0,-19.0,8.0,-16.0,8.0,0.0,-1.0,2.0,6.0,0.0
34.0,-62.0,-23.0,-4.0,-25.0,7.0,15.0,7.0,79.0,-1.0,0.0
19.0,-73.0,-9.0,-19.0,-22.0,9.0,8.0,19.0,76.0,-10.0,0.0
-9.0,-69.0,-38.0,-21.0,-17.0,0.0,-32.0,0.0,-10.0,-45.0,0.0
-3.0,-56.0,-38.0,-29.0,-24.0,2.0,-60.0,-9.0,-67.0,-62.0,0.0
12.0,-40.0,-29.0,-29.0,-23.0,1.0,-67.0,-8.0,-79.0,-54.0,0.0
9.0,-23.0,-18.0,-31.0,-13.0,-9.0,-59.0,-4.0,-66.0,-36.0,0.0
17.0,3.0,-29.0,-21.0,-10.0,-19.0,-37.0,9.0,-43.0,-33.0,0.0
21.0,33.0,-33.0,-26.0,-16.0,-26.0,-34.0,-2.0,-37.0,-23.0,0.0
6.0,50.0,-10.0,-23.0,-17.0,-26.0,-35.0,6.0,-26.0,-25.0,0.0
-1.0,69.0,1.0,-5.0,-10.0,-9.0,-16.0,21.0,-1.0,-1.0,0.0
-13.0,70.0,0.0,12.0,2.0,-7.0,-2.0,26.0,3.0,0.0,0.0
-64.0,25.0,14.0,16.0,6.0,0.0,10.0,44.0,7.0,-16.0,0.0
-83.0,-10.0,15.0,10.0,0.0,9.0,23.0,39.0,8.0,-16.0,0.0
-60.0,-5.0,10.0,11.0,4.0,5.0,46.0,20.0,9.0,-22.0,0.0
-53.0,10.0,6.0,17.0,5.0,3.0,39.0,23.0,23.0,-9.0,0.0
-33.0,22.0,11.0,3.0,-6.0,-6.0,44.0,33.0,61.0,-1.0,0.0
-57.0,31.0,20.0,13.0,-13.0,-21.0,27.0,23.0,69.0,-23.0,0.0
-48.0,37.0,17.0,18.0,-10.0,-25.0,32.0,22.0,109.0,-47.0,0.0
-29.0,62.0,35.0,4.0,-12.0,-12.0,41.0,27.0,120.0,-59.0,0.0
-36.0,74.0,21.0,3.0,-10.0,0.0,16.0,32.0,79.0,-45.0,0.0
-14.0,71.0,12.0,6.0,-1.0,5.0,1.0,4.0,4.0,-23.0,0.0
28.0,63.0,0.0,3.0,4.0,1.0,6.0,-5.0,4.0,24.0,0.0
62.0,92.0,-7.0,8.0,6.0,-7.0,4.0,7.0,-11.0,52.0,0.0
88.0,119.0,-50.0,25.0,13.0,-29.0,0.0,-2.0,-24.0,76.0,0.0
82.0,91.0,-9.0,3.0,16.0,-35.0,0.0,-13.0,-29.0,41.0,0.0
44.0,9.0,14.0,-12.0,14.0,-27.0,-4.0,-5.0,-33.0,6.0,0.0
41.0,-67.0,-5.0,-11.0,11.0,-6.0,0.0,-10.0,-33.0,19.0,0.0
18.0,-82.0,-27.0,-7.0,-1.0,-4.0,3.0,-2.0,-42.0,-1.0,0.0
0.0,-85.0,-18.0,-12.0,0.0,-11.0,-23.0,-2.0,-33.0,-18.0,0.0
2.0,-75.0,-8.0,-21.0,8.0,-24.0,-53.0,-17.0,-40.0,-23.0,0.0
-24.0,-70.0,-18.0,-19.0,21.0,-15.0,-49.0,-16.0,-47.0,-49.0,0.0
-46.0,-58.0,-12.0,1.0,29.0,1.0,-42.0,-19.0,-54.0,-73.0,0.0
-49.0,-55.0,10.0,18.0,32.0,17.0,-32.0,-7.0,-38.0,-58.0,0.0
-41.0,-46.0,18.0,2.0,17.0,13.0,-31.0,1.0,-16.0,-31.0,0.0
-13.0,-30.0,1.0,11.0,10.0,7.0,-45.0,-10.0,-29.0,4.0,0.0
8.0,-30.0,-18.0,23.0,5.0,-10.0,-52.0,-6.0,-19.0,39.0,0.0
14.0,-31.0,3.0,15.0,-9.0,-17.0,-46.0,-18.0,-25.0,32.0,0.0
24.0,-20.0,7.0,20.0,-11.0,-18.0,-41.0,1.0,-3.0,25.0,0.0
21.0,-39.0,6.0,16.0,-8.0,0.0,-33.0,7.0,7.0,21.0,0.0
-7.0,-51.0,12.0,24.0,-10.0,9.0,-21.0,-10.0,-21.0,-5.0,0.0
-21.0,-33.0,1.0,22.0,-8.0,13.0,-8.0,-8.0,-5.0,-1.0,0.0
-7.0,-2.0,6.0,24.0,-19.0,22.0,-10.0,-8.0,12.0,8.0,0.0
-16.0,23.0,5.0,17.0,-22.0,28.0,-7.0,-2.0,13.0,1.0,0.0
-30.0,30.0,-49.0,6.0,-13.0,22.0,-2.0,10.0,29.0,4.0,0.0
-35.0,32.0,-90.0,5.0,-6.0,26.0,-6.0,-1.0,48.0,11.0,0.0
-14.0,39.0,0.0,17.0,-5.0,36.0,-9.0,8.0,57.0,10.0,0.0
-10.0,41.0,19.0,11.0,1.0,34.0,-10.0,20.0,65.0,6.0,0.0
-10.0,9.0,6.0,-7.0,9.0,31.0,5.0,17.0,68.0,15.0,0.0
-11.0,-18.0,-1.0,-18.0,7.0,20.0,9.0,17.0,52.0,18.0,0.0
-8.0,-14.0,-8.0,-16.0,1.0,13.0,-4.0,17.0,36.0,14.0,0.0
-5.0,3.0,0.0,-24.0,0.0,4.0,-3.0,5.0,13.0,-3.0,0.0
-3.0,0.0,22.0,-20.0,10.0,0.0,17.0,10.0,7.0,-26.0,0.0
-2.0,-3.0,2.0,-2.0,8.0,-9.0,11.0,13.0,7.0,-36.0,0.0
6.0,-9.0,1.0,14.0,5.0,0.0,13.0,7.0,34.0,-41.0,0.0
-5.0,-11.0,-5.0,12.0,0.0,-4.0,27.0,4.0,41.0,-56.0,0.0
-5.0,-14.0,-4.0,3.0,2.0,-18.0,29.0,20.0,60.0,-63.0,0.0
39.0,1.0,33.0,8.0,0.0,-16.0,31.0,17.0,101.0,0.0,0.0
105.0,8.0,41.0,19.0,1.0,-7.0,21.0,-5.0,108.0,102.0,0.0
96.0,11.0,57.0,32.0,-4.0,0.0,5.0,-7.0,85.0,115.0,0.0
40.0,-12.0,47.0,39.0,-1.0,6.0,10.0,-22.0,22.0,55.0,0.0
-11.0,-20.0,6.0,13.0,1.0,9.0,-4.0,-38.0,-32.0,-12.0,0.0
-32.0,-26.0,-14.0,4.0,9.0,1.0,-21.0,-53.0,-73.0,-25.0,0.0
-3.0,5.0,6.0,7.0,4.0,-29.0,-24.0,-63.0,-79.0,-10.0,0.0
10.0,13.0,10.0,11.0,-2.0,-43.0,-29.0,-57.0,-58.0,4.0,0.0
2.0,10.0,21.0,3.0,-5.0,-40.0,-15.0,-38.0,15.0,-2.0,0.0
0.0,35.0,4.0,-14.0,-17.0,-28.0,0.0,-23.0,64.0,-14.0,0.0
6.0,106.0,-52.0,-13.0,-24.0,-43.0,12.0,-21.0,71.0,-31.0,0.0
12.0,147.0,14.0,-8.0,-28.0,-58.0,-3.0,-35.0,14.0,-38.0,0.0
6.0,132.0,18.0,-9.0,-25.0,-43.0,-16.0,-45.0,-42.0,-47.0,0.0
24.0,130.0,22.0,-16.0,-17.0,-48.0,4.0,-44.0,19.0,-31.0,0.0
50.0,132.0,19.0,-4.0,-18.0,-44.0,11.0,-36.0,84.0,-16.0,0.0
55.0,105.0,42.0,16.0,-9.0,-18.0,13.0,-17.0,96.0,-11.0,0.0
29.0,62.0,18.0,22.0,-4.0,-12.0,21.0,-12.0,59.0,-10.0,0.0
33.0,5.0,19.0,19.0,0.0,-18.0,29.0,1.0,74.0,3.0,0.0
13.0,-97.0,8.0,17.0,1.0,-5.0,38.0,7.0,81.0,7.0,0.0
-29.0,-194.0,-3.0,12.0,6.0,14.0,52.0,37.0,72.0,10.0,0.0
-32.0,-177.0,-23.0,9.0,-2.0,17.0,48.0,43.0,86.0,-5.0,0.0
-28.0,-121.0,-23.0,6.0,-5.0,17.0,31.0,18.0,30.0,-31.0,0.0
-36.0,-97.0,-24.0,12.0,2.0,13.0,16.0,11.0,-46.0,-40.0,0.0
2.0,-50.0,-31.0,18.0,9.0,-13.0,23.0,11.0,-6.0,-14.0,0.0
-1.0,-39.0,-83.0,10.0,8.0,-15.0,48.0,4.0,23.0,-2.0,0.0
-36.0,-47.0,-66.0,-10.0,4.0,1.0,64.0,0.0,10.0,-21.0,0.0
-41.0,-39.0,-44.0,-13.0,-1.0,15.0,75.0,1.0,43.0,-12.0,0.0
-75.0,-20.0,-125.0,-1.0,4.0,19.0,57.0,0.0,11.0,-22.0,0.0
-88.0,-19.0,-69.0,-4.0,0.0,11.0,34.0,-16.0,-17.0,-34.0,0.0
-26.0,0.0,20.0,-14.0,-13.0,-8.0,16.0,-16.0,21.0,-4.0,0.0
19.0,22.0,6.0,-8.0,-21.0,-12.0,-24.0,-27.0,29.0,24.0,0.0
5.0,15.0,-22.0,-18.0,-14.0,-8.0,-35.0,-24.0,3.0,41.0,0.0
-20.0,-6.0,-113.0,-35.0,-5.0,6.0,-43.0,-29.0,-30.0,29.0,0.0
0.0,1.0,-57.0,-25.0,4.0,7.0,-33.0,-13.0,12.0,36.0,0.0
0.0,6.0,31.0,-18.0,-1.0,-6.0,-27.0,-6.0,22.0,27.0,0.0
-8.0,-8.0,6.0,-23.0,-12.0,-11.0,-15.0,-13.0,-10.0,0.0,0.0
-44.0,-33.0,-30.0,-24.0,-18.0,-11.0,0.0,-18.0,-83.0,-25.0,0.0
-56.0,0.0,-48.0,-18.0,-12.0,-2.0,-11.0,-18.0,-108.0,-39.0,0.0
-37.0,29.0,25.0,-19.0,-9.0,-2.0,-19.0,-21.0,-115.0,-5.0,0.0
-33.0,-8.0,31.0,-18.0,-7.0,-7.0,-4.0,-26.0,-115.0,0.0,0.0
-6.0,-23.0,31.0,-8.0,6.0,3.0,9.0,-25.0,-96.0,16.0,0.0
8.0,-19.0,16.0,2.0,6.0,-2.0,7.0,-24.0,-63.0,23.0,0.0
0.0,-19.0,-11.0,4.0,8.0,17.0,-3.0,-19.0,-50.0,2.0,0.0
25.0,0.0,43.0,28.0,12.0,26.0,8.0,11.0,12.0,-2.0,0.0
44.0,16.0,34.0,30.0,3.0,21.0,18.0,28.0,57.0,12.0,0.0
34.0,29.0,-19.0,0.0,-1.0,19.0,12.0,-1.0,23.0,2.0,0.0
60.0,64.0,-100.0,24.0,1.0,24.0,14.0,0.0,46.0,32.0,0.0
54.0,73.0,-53.0,30.0,-3.0,34.0,19.0,-4.0,50.0,38.0,0.0
16.0,71.0,75.0,9.0,-7.0,38.0,17.0,9.0,28.0,8.0,0.0
-6.0,76.0,77.0,-27.0,-22.0,31.0,18.0,2.0,-9.0,-7.0,0.0
6.0,83.0,78.0,-65.0,-28.0,32.0,-1.0,17.0,42.0,-1.0,0.0
28.0,73.0,76.0,-46.0,-17.0,21.0,-7.0,8.0,62.0,-1.0,0.0
19.0,57.0,51.0,-38.0,-9.0,0.0,-24.0,3.0,20.0,-23.0,0.0
-3.0,36.0,49.0,-52.0,0.0,1.0,-15.0,2.0,19.0,-43.0,0.0
9.0,31.0,37.0,-44.0,-10.0,2.0,-26.0,1.0,22.0,-42.0,0.0
64.0,45.0,21.0,-18.0,-11.0,-14.0,-38.0,-9.0,6.0,7.0,0.0
112.0,60.0,9.0,-11.0,-13.0,-5.0,-34.0,-24.0,-42.0,45.0,0.0
126.0,86.0,-21.0,-5.0,-21.0,6.0,-25.0,-24.0,-25.0,41.0,0.0
101.0,102.0,47.0,-2.0,-20.0,0.0,-7.0,-20.0,1.0,40.0,0.0
74.0,85.0,73.0,0.0,-16.0,-14.0,-10.0,-21.0,-3.0,26.0,0.0
0.0,10.0,-23.0,-7.0,-18.0,-17.0,-21.0,-24.0,-25.0,-12.0,0.0
-69.0,-51.0,-128.0,-18.0,-9.0,-14.0,1.0,-18.0,7.0,-41.0,0.0
-67.0,-106.0,-95.0,-13.0,5.0,-4.0,33.0,-21.0,15.0,-44.0,0.0
-53.0,-164.0,-12.0,15.0,11.0,3.0,35.0,-21.0,12.0,-4.0,0.0
-36.0,-150.0,18.0,13.0,12.0,3.0,5.0,-10.0,39.0,11.0,0.0
-14.0,-93.0,23.0,29.0,7.0,11.0,-5.0,-2.0,59.0,24.0,0.0
-33.0,-73.0,-10.0,46.0,3.0,24.0,-11.0,4.0,20.0,-9.0,0.0
-47.0,-65.0,6.0,22.0,2.0,33.0,-10.0,2.0,3.0,-46.0,0.0
-44.0,-65.0,-31.0,-2.0,-2.0,33.0,-6.0,-1.0,9.0,-49.0,0.0
0.0,-41.0,-88.0,-12.0,8.0,26.0,-9.0,-8.0,12.0,5.0,0.0
37.0,-48.0,-83.0,-7.0,9.0,22.0,-12.0,-11.0,-13.0,51.0,0.0
42.0,-45.0,-43.0,-13.0,5.0,32.0,-1.0,4.0,-13.0,40.0,0.0
47.0,-27.0,36.0,-8.0,0.0,37.0,10.0,25.0,4.0,53.0,0.0
60.0,2.0,56.0,18.0,6.0,36.0,3.0,11.0,15.0,97.0,0.0
31.0,3.0,51.0,29.0,8.0,29.0,-11.0,3.0,-49.0,83.0,0.0
-3.0,-20.0,43.0,32.0,13.0,34.0,6.0,-15.0,-101.0,43.0,0.0
-19.0,-12.0,50.0,32.0,26.0,35.0,32.0,-2.0,-125.0,20.0,0.0
-14.0,0.0,45.0,28.0,21.0,19.0,52.0,13.0,-93.0,14.0,0.0
-4.0,18.0,54.0,18.0,16.0,11.0,32.0,21.0,-27.0,21.0,0.0
-32.0,5.0,14.0,16.0,11.0,10.0,-13.0,14.0,-86.0,4.0,0.0
-48.0,-3.0,12.0,15.0,7.0,2.0,-26.0,10.0,-108.0,-12.0,0.0
-65.0,-12.0,-51.0,13.0,8.0,-4.0,3.0,-1.0,-114.0,-16.0,0.0
-59.0,-9.0,-59.0,13.0,0.0,-8.0,21.0,-6.0,-96.0,-29.0,0.0
-50.0,-12.0,-67.0,-1.0,-8.0,-11.0,-21.0,-8.0,-82.0,-33.0,0.0
-49.0,-15.0,-100.0,-6.0,-7.0,-10.0,-37.0,-8.0,-84.0,-28.0,0.0
-50.0,-30.0,-37.0,-8.0,3.0,5.0,-38.0,-7.0,-82.0,-25.0,0.0
-57.0,-36.0,21.0,-11.0,7.0,4.0,-36.0,0.0,-61.0,-36.0,0.0
-59.0,-15.0,11.0,-12.0,-4.0,0.0,-19.0,-11.0,-16.0,-29.0,0.0
-24.0,-6.0,2.0,-14.0,-4.0,-3.0,0.0,7.0,75.0,-8.0,0.0
9.0,27.0,5.0,-4.0,-1.0,9.0,3.0,18.0,118.0,19.0,0.0
39.0,119.0,-4.0,-4.0,-8.0,7.0,-15.0,10.0,119.0,52.0,0.0
36.0,194.0,-31.0,-10.0,-7.0,-1.0,-15.0,7.0,91.0,31.0,0.0
46.0,175.0,-85.0,-6.0,-15.0,-1.0,0.0,17.0,108.0,31.0,0.0
57.0,130.0,-78.0,-5.0,-20.0,12.0,1.0,21.0,88.0,50.0,0.0
37.0,110.0,-82.0,-2.0,-19.0,15.0,-12.0,6.0,2.0,31.0,0.0
3.0,69.0,2.0,4.0,-22.0,12.0,-28.0,-14.0,-96.0,-2.0,0.0
12.0,30.0,61.0,18.0,-5.0,9.0,-28.0,-15.0,-110.0,-16.0,0.0
11.0,-2.0,-20.0,19.0,9.0,13.0,-9.0,-21.0,-104.0,-23.0,0.0
-8.0,-64.0,-16.0,26.0,7.0,16.0,7.0,-10.0,-90.0,-20.0,0.0
-10.0,-144.0,61.0,18.0,11.0,15.0,47.0,24.0,11.0,6.0,0.0
2.0,-140.0,74.0,9.0,23.0,13.0,51.0,30.0,78.0,29.0,0.0
-4.0,-42.0,54.0,26.0,29.0,8.0,42.0,22.0,53.0,34.0,0.0
-39.0,-24.0,-27.0,23.0,17.0,5.0,38.0,19.0,-41.0,-17.0,0.0
-65.0,-38.0,13.0,5.0,2.0,8.0,32.0,12.0,-71.0,-64.0,0.0
-47.0,-32.0,42.0,-17.0,11.0,19.0,26.0,12.0,-59.0,-36.0,0.0
-10.0,-10.0,63.0,-16.0,17.0,12.0,22.0,1.0,-46.0,24.0,0.0
0.0,-10.0,63.0,-7.0,15.0,-3.0,14.0,4.0,-36.0,34.0,0.0
-6.0,-15.0,43.0,-4.0,11.0,-10.0,-12.0,5.0,-38.0,13.0,0.0
-10.0,-18.0,39.0,-14.0,12.0,-6.0,-1.0,6.0,-35.0,10.0,0.0
18.0,-1.0,43.0,-6.0,5.0,-8.0,-11.0,0.0,-14.0,53.0,0.0
55.0,19.0,57.0,-2.0,-5.0,-12.0,-16.0,2.0,0.0,69.0,0.0
70.0,37.0,56.0,-4.0,-10.0,-7.0,-7.0,6.0,19.0,77.0,0.0
68.0,52.0,57.0,-8.0,-7.0,2.0,11.0,2.0,45.0,56.0,0.0
86.0,66.0,63.0,-6.0,0.0,6.0,53.0,17.0,100.0,52.0,0.0
69.0,53.0,59.0,-8.0,-1.0,6.0,65.0,15.0,107.0,45.0,0.0
41.0,48.0,46.0,-11.0,-10.0,2.0,61.0,22.0,93.0,35.0,0.0
5.0,34.0,41.0,-11.0,-11.0,-1.0,55.0,21.0,82.0,41.0,0.0
-27.0,18.0,36.0,-3.0,-8.0,-3.0,62.0,28.0,99.0,38.0,0.0
-48.0,6.0,27.0,-1.0,11.0,5.0,64.0,40.0,91.0,21.0,0.0
-55.0,6.0,20.0,18.0,12.0,8.0,39.0,31.0,49.0,25.0,0.0
-9.0,28.0,22.0,16.0,5.0,-2.0,17.0,22.0,50.0,49.0,0.0
51.0,47.0,28.0,8.0,2.0,-10.0,-5.0,28.0,112.0,70.0,0.0
61.0,33.0,27.0,13.0,0.0,-7.0,-19.0,6.0,77.0,63.0,0.0
48.0,11.0,26.0,10.0,-3.0,-13.0,-28.0,2.0,32.0,27.0,0.0
56.0,27.0,34.0,4.0,-6.0,-4.0,-15.0,13.0,50.0,30.0,0.0
42.0,28.0,24.0,6.0,0.0,-1.0,-18.0,-4.0,4.0,1.0,0.0
39.0,15.0,27.0,8.0,0.0,-8.0,-14.0,-11.0,7.0,-5.0,0.0
30.0,12.0,24.0,2.0,-8.0,-11.0,-18.0,-25.0,0.0,-14.0,0.0
22.0,9.0,31.0,-1.0,-11.0,-25.0,-35.0,-30.0,3.0,-22.0,0.0
20.0,12.0,48.0,6.0,-10.0,-41.0,-51.0,-37.0,12.0,-21.0,0.0
14.0,10.0,44.0,-3.0,-6.0,-36.0,-44.0,-26.0,3.0,-32.0,0.0
-16.0,-11.0,2.0,-23.0,0.0,-31.0,-48.0,-28.0,-71.0,-71.0,0.0
-20.0,-48.0,-25.0,-29.0,-6.0,-22.0,-37.0,-34.0,-110.0,-73.0,0.0
-8.0,-66.0,-50.0,-1.0,-13.0,-12.0,-23.0,-29.0,-72.0,-35.0,0.0
-32.0,-110.0,-52.0,11.0,-5.0,-2.0,-14.0,-17.0,-39.0,-15.0,0.0
-73.0,-121.0,-56.0,-4.0,-3.0,15.0,-5.0,8.0,-31.0,-60.0,0.0
-72.0,-95.0,-33.0,-6.0,7.0,17.0,35.0,22.0,23.0,-78.0,0.0
-45.0,-71.0,3.0,-9.0,15.0,12.0,72.0,35.0,57.0,-77.0,0.0
-46.0,-59.0,25.0,-3.0,8.0,10.0,77.0,29.0,7.0,-80.0,0.0
-14.0,-20.0,35.0,0.0,5.0,11.0,84.0,16.0,9.0,-36.0,0.0
-38.0,6.0,22.0,7.0,18.0,15.0,87.0,21.0,-2.0,-29.0,0.0
-88.0,-29.0,-26.0,3.0,13.0,12.0,56.0,5.0,-63.0,-51.0,0.0
-91.0,-62.0,-32.0,0.0,0.0,9.0,36.0,-5.0,-113.0,-54.0,0.0
-69.0,-49.0,-14.0,-8.0,-7.0,0.0,21.0,-2.0,-95.0,-38.0,0.0
-35.0,-17.0,-7.0,-12.0,-11.0,0.0,20.0,9.0,-27.0,-22.0,0.0
-14.0,20.0,4.0,-16.0,-6.0,4.0,29.0,23.0,48.0,-14.0,0.0
-2.0,24.0,-16.0,-14.0,-13.0,-12.0,28.0,11.0,64.0,-20.0,0.0
23.0,25.0,-25.0,-12.0,-22.0,-46.0,12.0,-6.0,52.0,24.0,0.0
56.0,26.0,-31.0,-18.0,-20.0,-55.0,9.0,-24.0,48.0,51.0,0.0
82.0,35.0,-6.0,-21.0,-6.0,-37.0,-9.0,-24.0,90.0,51.0,0.0
66.0,22.0,-4.0,-19.0,0.0,-34.0,-15.0,-19.0,87.0,36.0,0.0
31.0,-1.0,2.0,3.0,5.0,-38.0,-1.0,-6.0,31.0,28.0,0.0
33.0,17.0,23.0,19.0,3.0,-39.0,0.0,-3.0,18.0,32.0,0.0
18.0,35.0,28.0,19.0,7.0,-36.0,16.0,1.0,13.0,23.0,0.0
9.0,47.0,29.0,12.0,5.0,-19.0,14.0,-8.0,-1.0,-3.0,0.0
10.0,39.0,33.0,12.0,4.0,-27.0,1.0,-16.0,-31.0,-14.0,0.0
36.0,48.0,23.0,18.0,12.0,-41.0,-21.0,-10.0,10.0,8.0,0.0
66.0,40.0,16.0,12.0,6.0,-41.0,-38.0,-5.0,1.0,11.0,0.0
37.0,22.0,0.0,9.0,4.0,-17.0,-35.0,-15.0,-47.0,-16.0,0.0
55.0,15.0,-23.0,8.0,9.0,-18.0,-34.0,-10.0,-49.0,-13.0,0.0
91.0,10.0,6.0,13.0,22.0,-32.0,-4.0,-8.0,6.0,11.0,0.0
71.0,-32.0,-5.0,0.0,27.0,-36.0,15.0,-1.0,-4.0,1.0,0.0
5.0,-107.0,-42.0,-4.0,22.0,-12.0,26.0,-8.0,-29.0,-20.0,0.0
-22.0,-116.0,-130.0,-12.0,28.0,-11.0,29.0,-3.0,-23.0,-22.0,0.0
-31.0,-69.0,-184.0,-3.0,39.0,-25.0,21.0,-11.0,-57.0,-44.0,0.0
-19.0,-42.0,-185.0,0.0,43.0,-21.0,13.0,15.0,-31.0,-24.0,0.0
3.0,-19.0,-108.0,0.0,36.0,-4.0,13.0,23.0,16.0,-8.0,0.0
-20.0,-17.0,0.0,18.0,39.0,-1.0,6.0,12.0,-50.0,-44.0,0.0
-43.0,-36.0,4.0,27.0,35.0,-23.0,-4.0,-8.0,-117.0,-84.0,0.0
-31.0,19.0,-52.0,14.0,26.0,-22.0,-21.0,-1.0,-108.0,-83.0,0.0
-28.0,79.0,-110.0,13.0,25.0,-8.0,-44.0,1.0,-94.0,-65.0,0.0
-36.0,61.0,-45.0,16.0,24.0,-13.0,-51.0,0.0,-101.0,-55.0,0.0
-56.0,27.0,-14.0,13.0,24.0,-27.0,-41.0,-3.0,-97.0,-62.0,0.0
-47.0,16.0,-13.0,31.0,22.0,-20.0,-41.0,-16.0,-82.0,-72.0,0.0
-14.0,28.0,19.0,37.0,14.0,-7.0,-45.0,-20.0,-66.0,-41.0,0.0
8.0,13.0,29.0,35.0,2.0,-21.0,-56.0,1.0,-46.0,-8.0,0.0
23.0,-3.0,40.0,17.0,-3.0,-25.0,-45.0,0.0,-43.0,20.0,0.0
23.0,7.0,32.0,-11.0,2.0,-6.0,-31.0,4.0,-20.0,42.0,0.0
-13.0,-46.0,38.0,2.0,14.0,17.0,2.0,16.0,-8.0,22.0,0.0
-24.0,-98.0,26.0,26.0,29.0,21.0,6.0,13.0,-13.0,8.0,0.0
-1.0,-63.0,38.0,26.0,23.0,-1.0,-12.0,0.0,-27.0,11.0,0.0
-22.0,-28.0,38.0,16.0,20.0,-17.0,-41.0,0.0,-41.0,0.0,0.0
-30.0,6.0,55.0,23.0,27.0,2.0,-44.0,5.0,-36.0,14.0,0.0
-32.0,17.0,39.0,19.0,34.0,26.0,-33.0,4.0,-52.0,15.0,0.0
-28.0,-13.0,-10.0,-2.0,26.0,42.0,9.0,26.0,-49.0,6.0,0.0
-18.0,-47.0,-12.0,-27.0,19.0,47.0,16.0,27.0,-17.0,-3.0,0.0
11.0,-50.0,3.0,-29.0,17.0,37.0,21.0,35.0,68.0,12.0,0.0
3.0,-36.0,-6.0,-22.0,20.0,20.0,53.0,35.0,86.0,21.0,0.0
4.0,-30.0,-8.0,-23.0,11.0,-5.0,50.0,17.0,55.0,3.0,0.0
22.0,-18.0,1.0,-30.0,1.0,-20.0,51.0,13.0,62.0,12.0,0.0
42.0,-11.0,-1.0,-25.0,3.0,-12.0,54.0,23.0,95.0,32.0,0.0
79.0,5.0,17.0,-9.0,5.0,4.0,35.0,4.0,78.0,51.0,0.0
57.0,-9.0,5.0,-10.0,1.0,4.0,9.0,-11.0,14.0,33.0,0.0
6.0,-23.0,-7.0,-11.0,-14.0,-10.0,-12.0,-26.0,-61.0,9.0,0.0
-4.0,-13.0,1.0,-7.0,-25.0,-18.0,-10.0,-13.0,-48.0,6.0,0.0
31.0,8.0,11.0,-5.0,-27.0,-7.0,14.0,-4.0,27.0,11.0,0.0
15.0,6.0,9.0,-19.0,-21.0,10.0,16.0,2.0,25.0,-8.0,0.0
-23.0,-11.0,-20.0,-9.0,-24.0,13.0,8.0,0.0,-6.0,-25.0,0.0
-8.0,0.0,-3.0,-10.0,-20.0,0.0,11.0,6.0,65.0,-15.0,0.0
11.0,4.0,5.0,-18.0,-15.0,-12.0,16.0,13.0,91.0,6.0,0.0
2.0,30.0,-33.0,-14.0,-18.0,1.0,9.0,2.0,56.0,12.0,0.0
-29.0,28.0,-118.0,-4.0,-25.0,12.0,-1.0,15.0,15.0,-11.0,0.0
-30.0,29.0,-83.0,-8.0,-29.0,14.0,-15.0,31.0,63.0,-2.0,0.0
-59.0,28.0,1.0,-11.0,-11.0,10.0,-18.0,28.0,23.0,-15.0,0.0
-54.0,41.0,28.0,-1.0,2.0,14.0,6.0,33.0,40.0,-4.0,0.0
-2.0,60.0,49.0,12.0,15.0,22.0,46.0,46.0,106.0,36.0,0.0
-7.0,40.0,40.0,5.0,23.0,6.0,11.0,24.0,52.0,16.0,0.0
-46.0,18.0,8.0,12.0,28.0,-3.0,-33.0,-2.0,-47.0,-23.0,0.0
-34.0,36.0,8.0,18.0,18.0,-4.0,-41.0,5.0,-19.0,-6.0,0.0
23.0,65.0,54.0,14.0,12.0,-3.0,-39.0,11.0,72.0,44.0,0.0
19.0,46.0,60.0,11.0,7.0,-19.0,-26.0,14.0,90.0,39.0,0.0
3.0,17.0,47.0,17.0,-11.0,-22.0,-17.0,2.0,58.0,17.0,0.0
-21.0,10.0,27.0,16.0,-8.0,-14.0,-55.0,-18.0,-27.0,10.0,0.0
-50.0,-14.0,11.0,12.0,-1.0,-6.0,-69.0,-29.0,-79.0,2.0,0.0
-42.0,-5.0,-8.0,15.0,-4.0,-17.0,-57.0,-45.0,-70.0,-13.0,0.0
13.0,27.0,16.0,12.0,-15.0,-35.0,-56.0,-34.0,-29.0,14.0,0.0
32.0,46.0,47.0,15.0,-16.0,-29.0,-65.0,-27.0,-2.0,29.0,0.0
7.0,40.0,39.0,-4.0,-14.0,-21.0,-54.0,-23.0,-29.0,8.0,0.0
-21.0,44.0,-45.0,-27.0,-11.0,-12.0,-26.0,-9.0,-68.0,-23.0,0.0
-30.0,38.0,-128.0,-39.0,-3.0,-2.0,-9.0,3.0,-90.0,-55.0,0.0
6.0,23.0,-64.0,-30.0,-1.0,10.0,-9.0,-7.0,-105.0,-33.0,0.0
50.0,20.0,-3.0,-14.0,16.0,25.0,7.0,-26.0,-90.0,26.0,0.0
42.0,12.0,7.0,-15.0,15.0,1.0,2.0,-42.0,-81.0,18.0,0.0
16.0,3.0,-8.0,-6.0,-1.0,-22.0,-4.0,-30.0,-66.0,-26.0,0.0
18.0,-9.0,22.0,16.0,1.0,-10.0,-3.0,-24.0,-56.0,-12.0,0.0
7.0,-30.0,27.0,22.0,5.0,10.0,-2.0,-18.0,-58.0,6.0,0.0
-23.0,-53.0,19.0,6.0,-4.0,22.0,2.0,-13.0,-34.0,-3.0,0.0
-27.0,-52.0,4.0,0.0,-5.0,9.0,23.0,-10.0,-5.0,1.0,0.0
-22.0,-17.0,-14.0,10.0,5.0,0.0,33.0,6.0,19.0,12.0,0.0
-7.0,6.0,-95.0,24.0,21.0,5.0,37.0,9.0,12.0,2.0,0.0
-1.0,18.0,-76.0,42.0,29.0,12.0,26.0,11.0,0.0,-13.0,0.0
-6.0,12.0,31.0,33.0,20.0,18.0,-1.0,7.0,-5.0,-13.0,0.0
-34.0,2.0,23.0,19.0,2.0,25.0,-17.0,4.0,-25.0,-24.0,0.0
-64.0,-17.0,11.0,1.0,-5.0,15.0,6.0,15.0,-28.0,-46.0,0.0
-42.0,-16.0,1.0,-11.0,-9.0,-3.0,20.0,-1.0,-13.0,-42.0,0.0
-23.0,-7.0,12.0,-2.0,-13.0,-13.0,7.0,-2.0,7.0,9.0,0.0
-6.0,-6.0,5.0,13.0,-4.0,-10.0,6.0,-10.0,26.0,44.0,0.0
7.0,-11.0,24.0,13.0,-1.0,4.0,14.0,-5.0,45.0,62.0,0.0
4.0,-23.0,33.0,12.0,5.0,-7.0,11.0,0.0,40.0,52.0,0.0
29.0,-9.0,43.0,6.0,9.0,-14.0,-2.0,12.0,112.0,35.0,0.0
48.0,0.0,44.0,3.0,0.0,-3.0,-13.0,17.0,168.0,38.0,0.0
50.0,3.0,39.0,6.0,-6.0,10.0,-21.0,10.0,148.0,44.0,0.0
4.0,-6.0,-9.0,1.0,6.0,18.0,-40.0,-6.0,55.0,-2.0,0.0
-23.0,-20.0,10.0,2.0,20.0,20.0,-38.0,-31.0,-18.0,-46.0,0.0
-40.0,-25.0,12.0,0.0,16.0,11.0,-31.0,-28.0,-19.0,-44.0,0.0
-58.0,-33.0,13.0,-3.0,25.0,0.0,-21.0,-21.0,-34.0,-52.0,0.0
-17.0,-34.0,0.0,-6.0,17.0,-4.0,-31.0,-30.0,-21.0,-37.0,0.0
37.0,-7.0,21.0,4.0,16.0,7.0,-27.0,-34.0,26.0,24.0,0.0
66.0,3.0,50.0,3.0,17.0,8.0,-17.0,-23.0,95.0,45.0,0.0
67.0,0.0,39.0,-8.0,8.0,7.0,1.0,-4.0,117.0,34.0,0.0
34.0,5.0,34.0,-1.0,-5.0,-5.0,14.0,0.0,91.0,27.0,0.0
23.0,14.0,34.0,2.0,-9.0,-14.0,12.0,1.0,66.0,16.0,0.0
25.0,26.0,44.0,0.0,-2.0,-14.0,37.0,11.0,98.0,6.0,0.0
-6.0,20.0,31.0,2.0,-1.0,3.0,46.0,19.0,97.0,-15.0,0.0
-31.0,16.0,-1.0,-3.0,-2.0,16.0,38.0,10.0,50.0,-33.0,0.0
-66.0,21.0,-26.0,-18.0,-4.0,5.0,37.0,7.0,-46.0,-74.0,0.0
-79.0,16.0,-10.0,-20.0,-7.0,11.0,48.0,-3.0,-79.0,-83.0,0.0
-51.0,32.0,-77.0,-25.0,-16.0,1.0,36.0,1.0,-67.0,-25.0,0.0
-39.0,47.0,-113.0,-17.0,-10.0,2.0,0.0,4.0,-54.0,-2.0,0.0
-80.0,-6.0,-69.0,-17.0,-18.0,9.0,10.0,13.0,-60.0,-30.0,0.0
-70.0,-52.0,4.0,-15.0,-19.0,10.0,8.0,15.0,-62.0,-42.0,0.0
-8.0,-66.0,-7.0,-19.0,-21.0,16.0,2.0,13.0,-50.0,-3.0,0.0
10.0,-18.0,-67.0,-39.0,-27.0,1.0,-25.0,3.0,-29.0,29.0,0.0
19.0,119.0,-17.0,-46.0,-28.0,-31.0,-45.0,-16.0,-6.0,29.0,0.0
51.0,216.0,-17.0,-43.0,-31.0,-31.0,-39.0,-4.0,84.0,44.0,0.0
65.0,228.0,-54.0,-41.0,-32.0,-29.0,-25.0,1.0,131.0,49.0,0.0
70.0,222.0,-22.0,-40.0,-27.0,-33.0,-31.0,-4.0,140.0,50.0,0.0
48.0,184.0,30.0,-41.0,-19.0,-24.0,-40.0,-20.0,104.0,41.0,0.0
26.0,113.0,73.0,-22.0,-13.0,-6.0,-25.0,-6.0,89.0,26.0,0.0
21.0,45.0,88.0,8.0,6.0,-7.0,-19.0,7.0,66.0,16.0,0.0
32.0,-32.0,87.0,29.0,35.0,-15.0,-7.0,8.0,-39.0,26.0,0.0
11.0,-175.0,65.0,25.0,48.0,2.0,13.0,6.0,-80.0,31.0,0.0
-55.0,-331.0,-2.0,11.0,46.0,23.0,3.0,24.0,-36.0,24.0,0.0
-46.0,-313.0,-21.0,9.0,38.0,27.0,1.0,28.0,63.0,60.0,0.0
-3.0,-207.0,-11.0,7.0,40.0,25.0,1.0,30.0,62.0,105.0,0.0
18.0,-134.0,-27.0,2.0,40.0,27.0,-1.0,21.0,13.0,90.0,0.0
33.0,-60.0,-63.0,-8.0,44.0,34.0,9.0,1.0,-50.0,39.0,0.0
38.0,-5.0,-13.0,-11.0,24.0,21.0,6.0,3.0,-106.0,5.0,0.0
30.0,12.0,14.0,2.0,14.0,8.0,-15.0,-6.0,-134.0,-21.0,0.0
20.0,20.0,6.0,23.0,22.0,0.0,-11.0,-7.0,-124.0,-47.0,0.0
-15.0,-1.0,-16.0,14.0,32.0,0.0,-7.0,-21.0,-121.0,-80.0,0.0
-44.0,-37.0,-24.0,0.0,20.0,19.0,-6.0,-15.0,-115.0,-108.0,0.0
-23.0,-38.0,-12.0,1.0,12.0,22.0,-3.0,-10.0,-72.0,-77.0,0.0
-22.0,-30.0,-76.0,0.0,12.0,22.0,-4.0,13.0,-47.0,-64.0,0.0
-36.0,-24.0,-128.0,-3.0,12.0,27.0,0.0,14.0,-22.0,-77.0,0.0
-39.0,-16.0,-25.0,9.0,13.0,30.0,15.0,8.0,-5.0,-70.0,0.0
-64.0,-9.0,25.0,16.0,16.0,29.0,11.0,0.0,8.0,-62.0,0.0
-84.0,-18.0,31.0,9.0,13.0,30.0,7.0,8.0,-24.0,-75.0,0.0
-56.0,-22.0,-21.0,10.0,11.0,25.0,13.0,23.0,-44.0,-67.0,0.0
-30.0,-2.0,-119.0,11.0,8.0,18.0,17.0,7.0,-46.0,-36.0,0.0
-23.0,2.0,-64.0,6.0,-4.0,21.0,7.0,4.0,-35.0,2.0,0.0
-25.0,10.0,37.0,19.0,4.0,21.0,-3.0,2.0,-21.0,10.0,0.0
-53.0,8.0,15.0,19.0,5.0,27.0,-10.0,0.0,-7.0,-6.0,0.0
-53.0,3.0,-79.0,22.0,0.0,27.0,11.0,-2.0,10.0,-23.0,0.0
-37.0,6.0,-46.0,25.0,-4.0,24.0,15.0,-14.0,-6.0,-23.0,0.0
-20.0,-3.0,29.0,4.0,-7.0,18.0,-14.0,-6.0,-14.0,-19.0,0.0
-20.0,-6.0,19.0,-17.0,-6.0,4.0,-23.0,0.0,-2.0,-23.0,0.0
-16.0,1.0,32.0,-15.0,-14.0,-18.0,-32.0,-7.0,-4.0,-4.0,0.0
12.0,22.0,46.0,-4.0,-22.0,-25.0,-36.0,-25.0,-3.0,35.0,0.0
30.0,19.0,19.0,-3.0,-27.0,-17.0,-40.0,-25.0,-14.0,28.0,0.0
18.0,11.0,-80.0,5.0,-15.0,-12.0,-49.0,-19.0,-12.0,1.0,0.0
-4.0,8.0,-128.0,-4.0,-10.0,-7.0,-47.0,-20.0,-25.0,-21.0,0.0
5.0,17.0,-93.0,-9.0,-11.0,-4.0,-42.0,-34.0,-12.0,9.0,0.0
52.0,34.0,24.0,10.0,-1.0,-1.0,-27.0,-42.0,0.0,61.0,0.0
44.0,27.0,67.0,13.0,-15.0,-18.0,2.0,-24.0,17.0,52.0,0.0
38.0,34.0,69.0,5.0,-26.0,-25.0,9.0,-21.0,62.0,66.0,0.0
16.0,9.0,44.0,-10.0,-27.0,-19.0,2.0,-32.0,33.0,48.0,0.0
-15.0,-31.0,25.0,-18.0,-26.0,0.0,12.0,-30.0,2.0,19.0,0.0
-12.0,-34.0,7.0,-15.0,-24.0,14.0,5.0,-25.0,-8.0,-15.0,0.0
31.0,11.0,10.0,0.0,-24.0,7.0,1.0,-28.0,-12.0,8.0,0.0
57.0,41.0,40.0,8.0,-27.0,-7.0,-6.0,-29.0,0.0,30.0,0.0
49.0,31.0,45.0,9.0,-12.0,-21.0,-15.0,-31.0,3.0,15.0,0.0
19.0,26.0,6.0,-2.0,-5.0,-22.0,-9.0,-25.0,-4.0,1.0,0.0
7.0,17.0,0.0,-32.0,-30.0,-21.0,-5.0,-19.0,-18.0,-24.0,0.0
14.0,17.0,-49.0,-60.0,-44.0,-6.0,3.0,7.0,39.0,-23.0,0.0
56.0,35.0,-7.0,-42.0,-29.0,6.0,4.0,7.0,127.0,27.0,0.0
73.0,19.0,84.0,-4.0,-13.0,17.0,0.0,-4.0,137.0,94.0,0.0
60.0,7.0,72.0,8.0,0.0,21.0,-6.0,1.0,97.0,90.0,0.0
19.0,17.0,45.0,20.0,-3.0,24.0,-12.0,14.0,3.0,28.0,0.0
5.0,34.0,34.0,15.0,0.0,28.0,-2.0,13.0,-22.0,-7.0,0.0
15.0,48.0,34.0,18.0,5.0,26.0,-5.0,12.0,-15.0,-13.0,0.0
30.0,49.0,46.0,29.0,6.0,19.0,-8.0,7.0,-13.0,-17.0,0.0
41.0,41.0,38.0,30.0,7.0,18.0,16.0,26.0,47.0,4.0,0.0
39.0,28.0,21.0,26.0,0.0,16.0,26.0,30.0,82.0,3.0,0.0
33.0,24.0,42.0,15.0,1.0,19.0,45.0,27.0,104.0,-13.0,0.0
28.0,26.0,-49.0,9.0,-2.0,10.0,57.0,26.0,95.0,-9.0,0.0
-5.0,21.0,-32.0,6.0,-9.0,-2.0,43.0,9.0,32.0,-20.0,0.0
-8.0,12.0,28.0,9.0,-18.0,-10.0,13.0,12.0,20.0,-13.0,0.0
4.0,-2.0,48.0,11.0,-16.0,-22.0,-6.0,1.0,68.0,0.0,0.0
-8.0,-6.0,53.0,0.0,-4.0,-26.0,-18.0,3.0,73.0,-2.0,0.0
-26.0,-20.0,37.0,-16.0,-3.0,-12.0,-29.0,1.0,48.0,0.0,0.0
-53.0,-27.0,-4.0,-3.0,0.0,-11.0,-43.0,-10.0,-20.0,-23.0,0.0
-64.0,-19.0,0.0,-5.0,-3.0,-13.0,-47.0,-18.0,-32.0,-32.0,0.0
-63.0,-8.0,-10.0,-20.0,-17.0,-22.0,-43.0,-23.0,-29.0,-24.0,0.0
-54.0,-11.0,-22.0,-29.0,-9.0,-27.0,-28.0,-24.0,-25.0,-24.0,0.0
-36.0,-31.0,-19.0,-18.0,-2.0,-19.0,-14.0,-21.0,-16.0,-7.0,0.0
-23.0,-34.0,-33.0,5.0,-2.0,-5.0,-1.0,-18.0,-10.0,-8.0,0.0
-9.0,-19.0,-15.0,15.0,5.0,3.0,19.0,-20.0,-15.0,5.0,0.0
2.0,-16.0,-47.0,26.0,3.0,7.0,22.0,-16.0,-28.0,14.0,0.0
-12.0,-20.0,-33.0,20.0,-2.0,-4.0,-1.0,-15.0,-56.0,-13.0,0.0
-7.0,-21.0,20.0,30.0,-9.0,-12.0,-13.0,-12.0,-25.0,-9.0,0.0
3.0,-20.0,47.0,14.0,-16.0,-22.0,8.0,2.0,29.0,-12.0,0.0
4.0,-25.0,41.0,2.0,-15.0,-15.0,33.0,1.0,51.0,0.0,0.0
2.0,-34.0,9.0,4.0,-23.0,1.0,8.0,8.0,43.0,5.0,0.0
-9.0,-37.0,11.0,5.0,-21.0,9.0,-24.0,0.0,29.0,13.0,0.0
-3.0,-41.0,2.0,11.0,-26.0,14.0,-14.0,0.0,94.0,18.0,0.0
1.0,-55.0,-7.0,0.0,-22.0,6.0,-15.0,-2.0,68.0,1.0,0.0
18.0,-38.0,-1.0,1.0,-17.0,-5.0,-7.0,-1.0,80.0,14.0,0.0
12.0,-16.0,11.0,14.0,-2.0,0.0,4.0,13.0,16.0,-3.0,0.0
-6.0,-4.0,21.0,21.0,17.0,4.0,7.0,1.0,-93.0,-43.0,0.0
0.0,17.0,30.0,29.0,30.0,12.0,25.0,7.0,-111.0,-53.0,0.0
25.0,35.0,7.0,39.0,25.0,9.0,31.0,8.0,-92.0,-20.0,0.0
57.0,51.0,15.0,29.0,10.0,10.0,29.0,23.0,-57.0,24.0,0.0
87.0,75.0,27.0,22.0,5.0,10.0,23.0,19.0,33.0,44.0,0.0
71.0,79.0,32.0,18.0,-2.0,7.0,14.0,26.0,69.0,28.0,0.0
15.0,58.0,20.0,16.0,-3.0,9.0,-9.0,12.0,38.0,-17.0,0.0
-50.0,34.0,-12.0,22.0,-8.0,12.0,-17.0,11.0,-57.0,-48.0,0.0
-22.0,49.0,-4.0,15.0,-4.0,29.0,-11.0,2.0,-105.0,4.0,0.0
26.0,48.0,13.0,9.0,-4.0,30.0,-2.0,-10.0,-73.0,33.0,0.0
26.0,39.0,31.0,22.0,2.0,24.0,34.0,-14.0,0.0,10.0,0.0
0.0,23.0,25.0,7.0,4.0,17.0,34.0,-14.0,-46.0,-33.0,0.0
-28.0,8.0,-2.0,-6.0,-6.0,8.0,15.0,-15.0,-116.0,-61.0,0.0
-23.0,-6.0,-39.0,-10.0,-18.0,14.0,21.0,-4.0,-111.0,-49.0,0.0
-36.0,-22.0,-24.0,-13.0,-11.0,16.0,26.0,-12.0,-89.0,-49.0,0.0
-43.0,-39.0,-27.0,5.0,23.0,21.0,27.0,-9.0,-72.0,-42.0,0.0
-36.0,-50.0,-94.0,19.0,40.0,17.0,25.0,-12.0,-70.0,-8.0,0.0
-28.0,-43.0,-103.0,28.0,41.0,15.0,17.0,-17.0,-62.0,11.0,0.0
-31.0,-31.0,-62.0,25.0,45.0,-1.0,20.0,-18.0,-59.0,2.0,0.0
-30.0,-20.0,-117.0,23.0,31.0,-23.0,11.0,-9.0,-32.0,-5.0,0.0
0.0,-17.0,-65.0,20.0,18.0,-17.0,-4.0,-3.0,2.0,-18.0,0.0
15.0,0.0,38.0,26.0,10.0,-27.0,12.0,8.0,36.0,-25.0,0.0
61.0,28.0,39.0,28.0,11.0,-13.0,29.0,-5.0,48.0,17.0,0.0
67.0,26.0,34.0,26.0,10.0,-8.0,3.0,-21.0,-25.0,34.0,0.0
53.0,14.0,38.0,6.0,-2.0,-10.0,-16.0,-18.0,-14.0,19.0,0.0
40.0,-3.0,46.0,-9.0,-18.0,-21.0,-17.0,-12.0,35.0,23.0,0.0
32.0,-16.0,47.0,-24.0,-31.0,-42.0,-19.0,2.0,50.0,11.0,0.0
26.0,-42.0,40.0,-40.0,-39.0,-41.0,-23.0,7.0,76.0,16.0,0.0
10.0,-38.0,27.0,-50.0,-42.0,-23.0,-2.0,5.0,74.0,22.0,0.0
-30.0,-36.0,-3.0,-55.0,-49.0,-6.0,30.0,9.0,33.0,3.0,0.0
-54.0,20.0,9.0,-61.0,-51.0,-16.0,46.0,14.0,48.0,0.0,0.0
-57.0,100.0,20.0,-62.0,-42.0,-18.0,48.0,18.0,59.0,15.0,0.0
-35.0,125.0,29.0,-58.0,-43.0,-17.0,41.0,15.0,43.0,32.0,0.0
-21.0,134.0,0.0,-46.0,-43.0,-13.0,37.0,8.0,54.0,46.0,0.0
18.0,112.0,-62.0,-40.0,-39.0,-1.0,15.0,7.0,100.0,44.0,0.0
25.0,75.0,1.0,-35.0,-44.0,4.0,-3.0,15.0,85.0,33.0,0.0
0.0,37.0,18.0,-21.0,-32.0,-9.0,-2.0,12.0,34.0,10.0,0.0
-34.0,-2.0,15.0,-10.0,-27.0,-2.0,12.0,38.0,62.0,0.0,0.0
-56.0,-73.0,3.0,-10.0,-25.0,3.0,4.0,49.0,66.0,6.0,0.0
-17.0,-149.0,2.0,2.0,5.0,9.0,0.0,29.0,66.0,89.0,0.0
-4.0,-206.0,-6.0,13.0,18.0,21.0,2.0,39.0,61.0,137.0,0.0
-30.0,-165.0,5.0,3.0,11.0,20.0,-3.0,38.0,65.0,102.0,0.0
-46.0,-107.0,-34.0,4.0,0.0,16.0,-6.0,40.0,39.0,48.0,0.0
-31.0,-88.0,-60.0,9.0,0.0,9.0,-2.0,57.0,10.0,22.0,0.0
0.0,-77.0,-9.0,7.0,9.0,1.0,1.0,44.0,14.0,5.0,0.0
7.0,-66.0,-18.0,12.0,3.0,6.0,12.0,26.0,19.0,-20.0,0.0
-17.0,-59.0,8.0,10.0,0.0,12.0,18.0,25.0,2.0,-36.0,0.0
-45.0,-46.0,5.0,0.0,5.0,18.0,20.0,13.0,-52.0,-46.0,0.0
-33.0,-46.0,-14.0,0.0,0.0,23.0,23.0,6.0,-68.0,-77.0,0.0
-29.0,-33.0,-15.0,7.0,-10.0,10.0,34.0,31.0,-22.0,-59.0,0.0
10.0,-8.0,-24.0,12.0,-9.0,-3.0,28.0,17.0,-17.0,7.0,0.0
52.0,6.0,24.0,20.0,4.0,-8.0,12.0,2.0,-56.0,53.0,0.0
26.0,-16.0,17.0,28.0,3.0,-9.0,-21.0,-15.0,-121.0,31.0,0.0
15.0,-24.0,8.0,16.0,-9.0,-15.0,-26.0,-33.0,-129.0,11.0,0.0
7.0,-18.0,-2.0,0.0,-5.0,-7.0,-46.0,-27.0,-129.0,9.0,0.0
3.0,-10.0,-10.0,-5.0,-6.0,1.0,-68.0,-20.0,-116.0,8.0,0.0
10.0,4.0,-4.0,2.0,-11.0,13.0,-63.0,-3.0,-43.0,25.0,0.0
-1.0,1.0,-66.0,2.0,-9.0,10.0,-48.0,-1.0,-47.0,19.0,0.0
-13.0,-14.0,-28.0,-6.0,-4.0,3.0,-33.0,-1.0,-46.0,18.0,0.0
-22.0,-12.0,19.0,0.0,-9.0,0.0,-7.0,0.0,-27.0,-6.0,0.0
-38.0,-17.0,-7.0,-10.0,-12.0,-6.0,9.0,-21.0,-66.0,-48.0,0.0
-57.0,-21.0,-61.0,-8.0,-12.0,-17.0,0.0,-34.0,-111.0,-58.0,0.0
-62.0,-13.0,-29.0,-8.0,-6.0,-21.0,-14.0,-33.0,-78.0,-39.0,0.0
-67.0,-8.0,7.0,1.0,4.0,-4.0,-23.0,-25.0,-50.0,-37.0,0.0
-70.0,-21.0,-16.0,6.0,9.0,-3.0,-23.0,-23.0,-41.0,-50.0,0.0
-75.0,-25.0,-17.0,8.0,13.0,10.0,-15.0,-13.0,-28.0,-64.0,0.0
-43.0,12.0,8.0,16.0,20.0,22.0,-12.0,-7.0,-23.0,-47.0,0.0
-28.0,22.0,10.0,12.0,28.0,25.0,5.0,0.0,-23.0,-29.0,0.0
-39.0,2.0,14.0,6.0,33.0,26.0,49.0,4.0,-43.0,-37.0,0.0
-40.0,0.0,0.0,19.0,25.0,19.0,80.0,9.0,-49.0,-27.0,0.0
-21.0,9.0,17.0,38.0,30.0,19.0,58.0,3.0,-24.0,-15.0,0.0
20.0,17.0,31.0,42.0,41.0,22.0,1.0,18.0,-17.0,-2.0,0.0
12.0,47.0,34.0,36.0,37.0,26.0,-7.0,18.0,-25.0,5.0,0.0
5.0,60.0,22.0,27.0,35.0,17.0,-17.0,25.0,-6.0,10.0,0.0
31.0,25.0,30.0,20.0,20.0,8.0,-25.0,22.0,11.0,51.0,0.0
57.0,-16.0,16.0,3.0,18.0,8.0,-28.0,26.0,26.0,96.0,0.0
66.0,-21.0,-57.0,-35.0,13.0,11.0,-23.0,27.0,11.0,90.0,0.0
57.0,-17.0,-32.0,-29.0,11.0,-2.0,-34.0,11.0,6.0,90.0,0.0
42.0,-33.0,-12.0,-24.0,14.0,-16.0,-34.0,2.0,-13.0,69.0,0.0
35.0,-30.0,-13.0,-13.0,17.0,-18.0,-25.0,-4.0,-35.0,48.0,0.0
33.0,-4.0,16.0,-19.0,10.0,-32.0,-34.0,0.0,-48.0,30.0,0.0
35.0,19.0,1.0,-38.0,9.0,-24.0,-39.0,-9.0,-44.0,21.0,0.0
52.0,34.0,-82.0,-25.0,14.0,-11.0,-48.0,-17.0,-29.0,24.0,0.0
39.0,37.0,-59.0,-36.0,11.0,-2.0,-42.0,-8.0,-25.0,46.0,0.0
17.0,40.0,-3.0,-30.0,11.0,5.0,-33.0,-2.0,-30.0,33.0,0.0
6.0,36.0,-25.0,-25.0,6.0,-8.0,-28.0,10.0,-23.0,5.0,0.0
-23.0,0.0,-46.0,-32.0,4.0,-10.0,-7.0,10.0,-12.0,-35.0,0.0
-57.0,-36.0,-35.0,-37.0,1.0,-1.0,7.0,2.0,-12.0,-79.0,0.0
-36.0,-22.0,-6.0,-28.0,8.0,-7.0,-20.0,-16.0,0.0,-43.0,0.0
-21.0,-15.0,-21.0,-4.0,17.0,-10.0,-27.0,-29.0,10.0,17.0,0.0
-16.0,-36.0,-33.0,1.0,12.0,-3.0,-15.0,-17.0,18.0,4.0,0.0
-20.0,-21.0,-22.0,-6.0,7.0,4.0,13.0,4.0,24.0,-5.0,0.0
-2.0,18.0,17.0,8.0,4.0,9.0,16.0,-1.0,18.0,28.0,0.0
13.0,30.0,22.0,2.0,-1.0,6.0,7.0,0.0,0.0,27.0,0.0
8.0,46.0,8.0,-13.0,1.0,8.0,11.0,1.0,-16.0,-21.0,0.0
9.0,71.0,-11.0,0.0,10.0,9.0,22.0,16.0,-15.0,-29.0,0.0
13.0,64.0,-7.0,-12.0,17.0,-9.0,29.0,8.0,-12.0,-28.0,0.0
11.0,49.0,41.0,-5.0,8.0,-15.0,35.0,11.0,-5.0,-45.0,0.0
6.0,39.0,45.0,0.0,6.0,-18.0,48.0,1.0,9.0,-34.0,0.0
-5.0,37.0,48.0,-10.0,0.0,-16.0,67.0,12.0,17.0,-35.0,0.0
-8.0,37.0,40.0,-9.0,11.0,-8.0,49.0,27.0,23.0,-41.0,0.0
-1.0,43.0,41.0,-1.0,5.0,7.0,23.0,20.0,71.0,-15.0,0.0
35.0,57.0,21.0,-7.0,2.0,13.0,33.0,28.0,146.0,23.0,0.0
70.0,45.0,-38.0,-3.0,12.0,17.0,39.0,23.0,157.0,51.0,0.0
55.0,23.0,-3.0,10.0,18.0,13.0,28.0,13.0,122.0,39.0,0.0
4.0,0.0,-6.0,4.0,10.0,5.0,2.0,6.0,55.0,-5.0,0.0
0.0,-3.0,13.0,-15.0,7.0,-12.0,2.0,-3.0,100.0,-28.0,0.0
-2.0,-4.0,25.0,-14.0,5.0,-12.0,6.0,14.0,119.0,-50.0,0.0
-18.0,-16.0,10.0,-6.0,4.0,-18.0,13.0,11.0,82.0,-75.0,0.0
-47.0,-29.0,10.0,-16.0,12.0,-15.0,6.0,7.0,-6.0,-107.0,0.0
-20.0,-19.0,13.0,-10.0,8.0,1.0,-20.0,16.0,-41.0,-43.0,0.0
42.0,22.0,25.0,-3.0,13.0,8.0,-24.0,-15.0,-41.0,38.0,0.0
54.0,23.0,-81.0,-16.0,14.0,14.0,-10.0,-6.0,-41.0,61.0,0.0
35.0,-5.0,-162.0,-24.0,15.0,16.0,-5.0,-7.0,-47.0,16.0,0.0
20.0,-21.0,-127.0,-11.0,21.0,5.0,-21.0,-10.0,-46.0,-21.0,0.0
8.0,-21.0,7.0,-3.0,19.0,1.0,-28.0,-14.0,-41.0,-13.0,0.0
-6.0,-15.0,34.0,-4.0,11.0,-8.0,-27.0,-16.0,-15.0,-10.0,0.0
-7.0,-23.0,20.0,-5.0,0.0,-22.0,-16.0,-19.0,-13.0,-16.0,0.0
8.0,0.0,38.0,-13.0,-11.0,-32.0,-22.0,-15.0,-8.0,-13.0,0.0
1.0,29.0,35.0,-14.0,-25.0,-11.0,-15.0,-10.0,8.0,-12.0,0.0
4.0,14.0,21.0,-22.0,-22.0,5.0,0.0,4.0,10.0,-18.0,0.0
4.0,9.0,11.0,-34.0,-21.0,16.0,9.0,26.0,6.0,-16.0,0.0
19.0,14.0,30.0,-37.0,-21.0,19.0,13.0,30.0,9.0,13.0,0.0
51.0,38.0,38.0,-29.0,-23.0,18.0,25.0,33.0,2.0,64.0,0.0
67.0,72.0,51.0,-5.0,-7.0,11.0,34.0,26.0,-2.0,80.0,0.0
59.0,85.0,60.0,0.0,-1.0,3.0,51.0,22.0,54.0,45.0,0.0
58.0,85.0,70.0,-12.0,12.0,-12.0,55.0,34.0,125.0,13.0,0.0
73.0,95.0,62.0,-8.0,4.0,-10.0,47.0,34.0,125.0,23.0,0.0
62.0,81.0,58.0,4.0,5.0,-4.0,24.0,19.0,64.0,33.0,0.0
39.0,58.0,57.0,6.0,13.0,-4.0,16.0,14.0,29.0,22.0,0.0
36.0,47.0,58.0,15.0,20.0,3.0,36.0,28.0,71.0,21.0,0.0
39.0,49.0,47.0,24.0,18.0,14.0,63.0,27.0,74.0,20.0,0.0
34.0,36.0,3.0,24.0,9.0,12.0,67.0,0.0,23.0,0.0,0.0
33.0,17.0,0.0,17.0,7.0,11.0,40.0,-5.0,2.0,-14.0,0.0
34.0,-23.0,8.0,3.0,3.0,6.0,26.0,14.0,53.0,-29.0,0.0
17.0,-49.0,-20.0,9.0,7.0,5.0,16.0,13.0,52.0,-56.0,0.0
21.0,-55.0,-10.0,-5.0,-1.0,0.0,3.0,23.0,37.0,-42.0,0.0
23.0,-56.0,-12.0,-19.0,-4.0,0.0,-6.0,17.0,20.0,-21.0,0.0
27.0,-42.0,-1.0,-17.0,-6.0,-10.0,-6.0,-2.0,24.0,-22.0,0.0
5.0,-39.0,-3.0,-13.0,-15.0,-15.0,-4.0,-12.0,-24.0,-41.0,0.0
39.0,-6.0,12.0,-7.0,-27.0,-24.0,-1.0,-17.0,8.0,5.0,0.0
69.0,30.0,31.0,-5.0,-29.0,-18.0,-18.0,-17.0,26.0,33.0,0.0
28.0,3.0,26.0,1.0,-22.0,-3.0,-34.0,-21.0,-76.0,-20.0,0.0
-5.0,-29.0,-19.0,15.0,-22.0,9.0,-39.0,-27.0,-133.0,-54.0,0.0
-20.0,-41.0,-39.0,11.0,-22.0,13.0,-34.0,-30.0,-120.0,-57.0,0.0
-13.0,-49.0,5.0,-11.0,-16.0,9.0,-28.0,-25.0,-106.0,-54.0,0.0
-12.0,-44.0,0.0,-33.0,-13.0,14.0,-26.0,-14.0,-64.0,-28.0,0.0
-3.0,-37.0,5.0,-25.0,7.0,15.0,0.0,-5.0,29.0,11.0,0.0
17.0,-27.0,17.0,-3.0,22.0,28.0,11.0,17.0,126.0,33.0,0.0
1.0,-32.0,14.0,-2.0,30.0,37.0,0.0,19.0,96.0,42.0,0.0
-55.0,-63.0,-35.0,-12.0,28.0,28.0,-3.0,4.0,-3.0,22.0,0.0
-69.0,-105.0,-31.0,-11.0,-3.0,28.0,-8.0,9.0,-45.0,20.0,0.0
-51.0,-109.0,-16.0,-5.0,-20.0,22.0,10.0,9.0,-62.0,28.0,0.0
-39.0,-80.0,-1.0,2.0,-16.0,27.0,21.0,9.0,-50.0,28.0,0.0
-5.0,-36.0,18.0,0.0,-10.0,15.0,31.0,24.0,17.0,41.0,0.0
4.0,-25.0,28.0,2.0,-13.0,9.0,30.0,1.0,37.0,36.0,0.0
2.0,-28.0,1.0,8.0,-19.0,7.0,21.0,0.0,-4.0,14.0,0.0
39.0,-13.0,-7.0,2.0,-15.0,5.0,30.0,19.0,36.0,33.0,0.0
30.0,-6.0,9.0,-12.0,-26.0,6.0,23.0,0.0,24.0,40.0,0.0
1.0,1.0,7.0,-19.0,-29.0,-2.0,-8.0,-3.0,15.0,15.0,0.0
-1.0,6.0,11.0,-21.0,-22.0,-8.0,-20.0,3.0,60.0,7.0,0.0
-8.0,-11.0,-21.0,-8.0,-17.0,-12.0,-41.0,-9.0,39.0,-13.0,0.0
22.0,-9.0,-43.0,-1.0,-22.0,-14.0,-40.0,-2.0,56.0,19.0,0.0
39.0,-15.0,-25.0,-7.0,-31.0,-24.0,-28.0,-16.0,29.0,59.0,0.0
-1.0,-21.0,-35.0,-3.0,-33.0,-19.0,-45.0,-28.0,-62.0,22.0,0.0
-34.0,-32.0,-82.0,11.0,-15.0,2.0,-41.0,-32.0,-99.0,-7.0,0.0
-43.0,-36.0,-166.0,19.0,2.0,11.0,-28.0,-21.0,-104.0,-16.0,0.0
-39.0,-28.0,-73.0,7.0,9.0,9.0,-9.0,-10.0,-89.0,-24.0,0.0
-5.0,-1.0,19.0,13.0,11.0,16.0,23.0,0.0,-19.0,0.0,0.0
34.0,23.0,40.0,21.0,22.0,13.0,31.0,35.0,65.0,20.0,0.0
23.0,27.0,40.0,7.0,21.0,15.0,32.0,28.0,65.0,7.0,0.0
19.0,22.0,4.0,4.0,13.0,4.0,13.0,18.0,37.0,5.0,0.0
11.0,13.0,17.0,21.0,9.0,-5.0,3.0,17.0,6.0,15.0,0.0
12.0,23.0,23.0,27.0,3.0,-15.0,20.0,19.0,51.0,18.0,0.0
20.0,39.0,-14.0,31.0,0.0,-11.0,16.0,14.0,79.0,37.0,0.0
49.0,38.0,19.0,54.0,6.0,-2.0,34.0,23.0,63.0,64.0,0.0
35.0,23.0,37.0,53.0,2.0,-6.0,43.0,27.0,35.0,45.0,0.0
21.0,16.0,16.0,49.0,-2.0,-1.0,45.0,14.0,71.0,18.0,0.0
-6.0,10.0,-92.0,35.0,2.0,2.0,48.0,5.0,61.0,-5.0,0.0
-13.0,-3.0,-76.0,25.0,0.0,1.0,9.0,-3.0,-2.0,-13.0,0.0
-2.0,-10.0,22.0,13.0,-15.0,-6.0,-29.0,-12.0,12.0,14.0,0.0
27.0,-9.0,42.0,1.0,-25.0,-8.0,-25.0,0.0,63.0,47.0,0.0
34.0,50.0,37.0,-17.0,-19.0,-7.0,-22.0,1.0,47.0,37.0,0.0
15.0,136.0,30.0,-15.0,-11.0,-17.0,-29.0,-8.0,-15.0,-9.0,0.0
13.0,167.0,40.0,0.0,-6.0,-23.0,-22.0,-5.0,-13.0,-22.0,0.0
4.0,146.0,27.0,13.0,-9.0,-25.0,-11.0,-20.0,16.0,-16.0,0.0
-12.0,77.0,-92.0,-2.0,-16.0,-33.0,-3.0,-21.0,18.0,-15.0,0.0
-31.0,21.0,-102.0,-11.0,-19.0,-18.0,-13.0,-32.0,-52.0,-42.0,0.0
-63.0,-2.0,-8.0,-5.0,-13.0,-1.0,8.0,-28.0,-104.0,-90.0,0.0
-62.0,-27.0,-2.0,10.0,-4.0,9.0,6.0,-36.0,-122.0,-90.0,0.0
-47.0,-68.0,-28.0,15.0,-1.0,13.0,23.0,-30.0,-136.0,-73.0,0.0
-59.0,-153.0,-13.0,10.0,4.0,26.0,20.0,-29.0,-139.0,-60.0,0.0
-49.0,-200.0,-10.0,25.0,10.0,24.0,9.0,-42.0,-116.0,19.0,0.0
-46.0,-169.0,-18.0,34.0,9.0,15.0,-1.0,-46.0,-114.0,24.0,0.0
-58.0,-122.0,-10.0,12.0,9.0,6.0,7.0,-40.0,-118.0,-18.0,0.0
-46.0,-116.0,0.0,-9.0,2.0,6.0,2.0,-44.0,-116.0,-44.0,0.0
-34.0,-104.0,-29.0,2.0,-2.0,7.0,1.0,-45.0,-112.0,-42.0,0.0
-47.0,-81.0,-36.0,25.0,1.0,11.0,-3.0,-32.0,-104.0,-41.0,0.0
-49.0,-80.0,-23.0,28.0,0.0,13.0,-28.0,-36.0,-83.0,-53.0,0.0
-36.0,-53.0,1.0,36.0,0.0,5.0,-25.0,-27.0,-61.0,-40.0,0.0
-27.0,-35.0,-23.0,15.0,-17.0,5.0,-40.0,-12.0,-60.0,-29.0,0.0
-10.0,-22.0,-19.0,-24.0,-19.0,14.0,-33.0,-2.0,-46.0,-19.0,0.0
14.0,-12.0,3.0,-25.0,-9.0,13.0,-19.0,6.0,-17.0,-9.0,0.0
25.0,9.0,9.0,-12.0,-3.0,12.0,-24.0,7.0,5.0,4.0,0.0
12.0,13.0,-3.0,-8.0,3.0,13.0,-30.0,6.0,1.0,-21.0,0.0
-7.0,14.0,-34.0,-10.0,9.0,16.0,-28.0,-2.0,0.0,-37.0,0.0
-30.0,4.0,-29.0,2.0,16.0,21.0,-19.0,-1.0,12.0,-39.0,0.0
-53.0,-16.0,-60.0,-1.0,12.0,17.0,-15.0,0.0,8.0,-40.0,0.0
-74.0,-40.0,-78.0,-10.0,13.0,14.0,-13.0,-7.0,16.0,-41.0,0.0
-42.0,-32.0,-14.0,-9.0,13.0,9.0,-14.0,-5.0,25.0,0.0,0.0
-5.0,16.0,21.0,-15.0,18.0,7.0,-19.0,-6.0,26.0,42.0,0.0
-25.0,87.0,39.0,-15.0,13.0,-3.0,-20.0,-7.0,9.0,16.0,0.0
-41.0,115.0,39.0,-2.0,10.0,-14.0,-8.0,-10.0,11.0,-21.0,0.0
-44.0,58.0,27.0,2.0,3.0,-12.0,25.0,-17.0,15.0,-39.0,0.0
-42.0,30.0,21.0,-10.0,-3.0,-1.0,23.0,-16.0,25.0,-38.0,0.0
-5.0,35.0,13.0,-1.0,-1.0,1.0,18.0,-16.0,36.0,10.0,0.0
20.0,34.0,38.0,12.0,3.0,0.0,18.0,-4.0,17.0,56.0,0.0
19.0,32.0,37.0,6.0,10.0,10.0,15.0,0.0,-23.0,42.0,0.0
19.0,29.0,41.0,-2.0,10.0,1.0,5.0,3.0,-31.0,23.0,0.0
7.0,31.0,32.0,-16.0,7.0,-3.0,3.0,-3.0,-24.0,0.0,0.0
-18.0,14.0,26.0,-13.0,16.0,0.0,2.0,-5.0,-23.0,3.0,0.0
-36.0,-9.0,11.0,-16.0,13.0,3.0,-4.0,-18.0,-24.0,-5.0,0.0
-39.0,-31.0,2.0,-34.0,12.0,0.0,-13.0,-9.0,-11.0,-8.0,0.0
-25.0,-30.0,11.0,-39.0,13.0,1.0,-37.0,-10.0,-4.0,-8.0,0.0
-24.0,-12.0,-10.0,-24.0,9.0,4.0,-55.0,-11.0,1.0,-9.0,0.0
-23.0,2.0,-97.0,-24.0,4.0,3.0,-55.0,0.0,10.0,3.0,0.0
-28.0,-2.0,-107.0,-32.0,5.0,5.0,-48.0,-2.0,7.0,-6.0,0.0
6.0,12.0,-88.0,-31.0,22.0,0.0,-23.0,7.0,4.0,0.0,0.0
35.0,35.0,-24.0,-31.0,22.0,-1.0,-24.0,6.0,13.0,11.0,0.0
36.0,35.0,23.0,-23.0,6.0,-8.0,-15.0,11.0,17.0,-4.0,0.0
26.0,55.0,33.0,-11.0,2.0,-19.0,-12.0,0.0,17.0,-2.0,0.0
30.0,74.0,-40.0,-14.0,13.0,-31.0,-1.0,7.0,34.0,-8.0,0.0
13.0,72.0,-23.0,-10.0,18.0,-24.0,13.0,7.0,38.0,-16.0,0.0
1.0,63.0,59.0,-1.0,17.0,-22.0,8.0,19.0,13.0,-26.0,0.0
4.0,50.0,58.0,2.0,2.0,-18.0,15.0,14.0,11.0,-48.0,0.0
-14.0,40.0,52.0,0.0,-5.0,-13.0,29.0,12.0,0.0,-64.0,0.0
-37.0,39.0,25.0,-6.0,-16.0,-10.0,25.0,2.0,-10.0,-62.0,0.0
-27.0,41.0,30.0,2.0,-9.0,-7.0,20.0,0.0,-10.0,-46.0,0.0
-25.0,28.0,27.0,20.0,-9.0,-4.0,10.0,0.0,-2.0,0.0,0.0
-24.0,-2.0,35.0,28.0,-7.0,0.0,9.0,0.0,-7.0,21.0,0.0
-39.0,-50.0,32.0,24.0,-1.0,9.0,11.0,-1.0,-15.0,-25.0,0.0
-47.0,-82.0,25.0,28.0,2.0,15.0,11.0,16.0,-14.0,-60.0,0.0
-60.0,-101.0,19.0,28.0,5.0,9.0,38.0,3.0,-20.0,-67.0,0.0
-42.0,-80.0,23.0,16.0,-2.0,2.0,56.0,-3.0,-30.0,-49.0,0.0
-1.0,-32.0,22.0,-6.0,-18.0,-10.0,42.0,-3.0,-17.0,-25.0,0.0
7.0,-8.0,8.0,-14.0,-19.0,-22.0,1.0,0.0,-21.0,-18.0,0.0
-9.0,-9.0,8.0,-1.0,-2.0,-25.0,-11.0,-12.0,-28.0,-21.0,0.0
-12.0,-20.0,-23.0,-5.0,-2.0,-32.0,19.0,-11.0,-13.0,-16.0,0.0
-20.0,-35.0,-103.0,-10.0,-11.0,-25.0,18.0,-18.0,11.0,-19.0,0.0
-15.0,-32.0,-163.0,-7.0,-23.0,-11.0,1.0,-23.0,38.0,-8.0,0.0
14.0,-28.0,-95.0,-4.0,-26.0,-3.0,22.0,-6.0,74.0,25.0,0.0
43.0,-26.0,2.0,1.0,-16.0,0.0,28.0,-10.0,71.0,73.0,0.0
54.0,-33.0,-3.0,2.0,-22.0,-2.0,13.0,-3.0,78.0,88.0,0.0
49.0,-23.0,24.0,4.0,-25.0,-15.0,13.0,0.0,122.0,87.0,0.0
56.0,22.0,39.0,24.0,-22.0,-13.0,17.0,13.0,117.0,87.0,0.0
54.0,74.0,43.0,29.0,-12.0,-19.0,17.0,7.0,59.0,73.0,0.0
48.0,89.0,53.0,22.0,-6.0,-7.0,20.0,10.0,14.0,55.0,0.0
44.0,70.0,39.0,20.0,-9.0,-2.0,27.0,7.0,-17.0,15.0,0.0
25.0,48.0,44.0,3.0,-9.0,5.0,25.0,3.0,-36.0,-18.0,0.0
17.0,36.0,42.0,2.0,-11.0,6.0,5.0,6.0,-26.0,-15.0,0.0
-19.0,9.0,26.0,0.0,-17.0,9.0,-19.0,9.0,-17.0,-13.0,0.0
-38.0,-8.0,-11.0,-3.0,-13.0,10.0,6.0,15.0,-5.0,-24.0,0.0
-24.0,-24.0,-6.0,3.0,-7.0,10.0,33.0,22.0,11.0,-6.0,0.0
-1.0,-37.0,-11.0,6.0,-2.0,11.0,33.0,32.0,15.0,32.0,0.0
8.0,-27.0,-9.0,21.0,1.0,19.0,12.0,28.0,7.0,65.0,0.0
-4.0,-30.0,13.0,25.0,18.0,30.0,11.0,31.0,-6.0,67.0,0.0
-51.0,-49.0,2.0,15.0,17.0,33.0,20.0,45.0,-14.0,20.0,0.0
-58.0,-45.0,-24.0,-5.0,3.0,32.0,19.0,25.0,-23.0,-23.0,0.0
-29.0,-28.0,-7.0,-20.0,2.0,25.0,5.0,16.0,-18.0,-22.0,0.0
-29.0,-9.0,4.0,-15.0,8.0,23.0,-3.0,24.0,-25.0,-7.0,0.0
-28.0,3.0,0.0,-15.0,5.0,14.0,8.0,18.0,-32.0,-24.0,0.0
-8.0,12.0,28.0,-7.0,8.0,6.0,0.0,12.0,-28.0,-36.0,0.0
2.0,9.0,33.0,15.0,-2.0,-6.0,-5.0,1.0,-19.0,-24.0,0.0
6.0,8.0,25.0,19.0,-7.0,-7.0,9.0,-4.0,-18.0,-25.0,0.0
17.0,8.0,23.0,30.0,-7.0,4.0,14.0,1.0,-13.0,-25.0,0.0
25.0,5.0,11.0,25.0,-15.0,10.0,14.0,3.0,-7.0,-29.0,0.0
24.0,6.0,-46.0,18.0,-1.0,4.0,4.0,6.0,-18.0,-20.0,0.0
29.0,19.0,2.0,21.0,8.0,3.0,-14.0,-12.0,-15.0,-1.0,0.0
43.0,12.0,28.0,20.0,11.0,1.0,-41.0,-3.0,2.0,7.0,0.0
56.0,8.0,26.0,11.0,11.0,5.0,-53.0,-11.0,16.0,13.0,0.0
42.0,9.0,27.0,8.0,-4.0,5.0,-56.0,-20.0,-3.0,8.0,0.0
41.0,18.0,13.0,4.0,-9.0,2.0,-55.0,-24.0,6.0,9.0,0.0
37.0,9.0,12.0,6.0,-7.0,-1.0,-48.0,-18.0,17.0,0.0,0.0
40.0,1.0,10.0,2.0,-11.0,5.0,-18.0,-21.0,9.0,-13.0,0.0
49.0,-1.0,-49.0,-4.0,-17.0,0.0,3.0,-11.0,-18.0,-18.0,0.0
28.0,2.0,-41.0,-12.0,-19.0,-3.0,15.0,-5.0,-19.0,-11.0,0.0
34.0,16.0,-7.0,0.0,-6.0,2.0,10.0,-5.0,10.0,15.0,0.0
37.0,16.0,-5.0,12.0,8.0,10.0,5.0,-15.0,12.0,39.0,0.0
-1.0,0.0,2.0,-2.0,9.0,4.0,-20.0,-5.0,-6.0,33.0,0.0
-27.0,2.0,-4.0,5.0,3.0,0.0,-33.0,-1.0,7.0,26.0,0.0
-33.0,-14.0,-94.0,18.0,4.0,0.0,-29.0,0.0,33.0,21.0,0.0
-36.0,-9.0,-118.0,13.0,6.0,-1.0,1.0,2.0,67.0,7.0,0.0
-45.0,13.0,-35.0,6.0,6.0,2.0,19.0,0.0,77.0,-6.0,0.0
-57.0,32.0,47.0,12.0,3.0,13.0,20.0,-6.0,65.0,-8.0,0.0
-14.0,33.0,66.0,20.0,-1.0,15.0,22.0,-1.0,85.0,31.0,0.0
30.0,46.0,74.0,14.0,-11.0,13.0,26.0,-1.0,182.0,64.0,0.0
20.0,44.0,65.0,11.0,-6.0,2.0,8.0,-3.0,184.0,47.0,0.0
-1.0,31.0,60.0,11.0,-2.0,1.0,-1.0,-12.0,127.0,28.0,0.0
21.0,35.0,72.0,5.0,4.0,11.0,17.0,9.0,95.0,21.0,0.0
40.0,44.0,67.0,11.0,2.0,13.0,36.0,15.0,99.0,32.0,0.0
52.0,77.0,51.0,-3.0,-3.0,8.0,31.0,22.0,91.0,53.0,0.0
63.0,151.0,33.0,-9.0,-11.0,2.0,38.0,14.0,57.0,56.0,0.0
49.0,176.0,31.0,0.0,-12.0,-1.0,42.0,7.0,74.0,42.0,0.0
30.0,141.0,22.0,-5.0,-23.0,-10.0,15.0,7.0,71.0,8.0,0.0
-9.0,92.0,37.0,-1.0,-36.0,-14.0,13.0,-2.0,40.0,-19.0,0.0
-21.0,41.0,30.0,4.0,-39.0,-3.0,-11.0,-6.0,-51.0,-23.0,0.0
32.0,18.0,26.0,3.0,-42.0,0.0,-29.0,0.0,-71.0,9.0,0.0
60.0,19.0,-12.0,0.0,-33.0,-3.0,-13.0,19.0,15.0,25.0,0.0
52.0,10.0,-65.0,-4.0,-27.0,0.0,1.0,9.0,43.0,5.0,0.0
4.0,-77.0,-84.0,-6.0,-20.0,5.0,21.0,15.0,38.0,-27.0,0.0
-41.0,-201.0,-151.0,-4.0,-12.0,13.0,36.0,20.0,4.0,-31.0,0.0
-28.0,-216.0,-72.0,-11.0,-4.0,14.0,13.0,15.0,39.0,4.0,0.0
7.0,-150.0,-41.0,-20.0,-3.0,2.0,-14.0,14.0,57.0,48.0,0.0
-3.0,-120.0,-117.0,-8.0,-4.0,-1.0,-32.0,-4.0,-17.0,60.0,0.0
-26.0,-121.0,-38.0,8.0,8.0,-2.0,-43.0,-10.0,-77.0,30.0,0.0
-3.0,-90.0,42.0,11.0,5.0,-11.0,-31.0,-17.0,-48.0,15.0,0.0
37.0,-20.0,55.0,-4.0,-1.0,-14.0,-28.0,-3.0,23.0,30.0,0.0
31.0,24.0,61.0,-9.0,1.0,-8.0,-32.0,-2.0,22.0,13.0,0.0
-17.0,9.0,31.0,-27.0,3.0,-7.0,-43.0,-18.0,-55.0,-20.0,0.0
-26.0,12.0,35.0,-35.0,8.0,-3.0,-26.0,-16.0,-44.0,-20.0,0.0
-6.0,28.0,49.0,-25.0,18.0,-9.0,3.0,-4.0,15.0,-21.0,0.0
-21.0,40.0,53.0,-23.0,19.0,-31.0,0.0,-10.0,9.0,-57.0,0.0
-60.0,61.0,38.0,-14.0,6.0,-49.0,-18.0,-21.0,-42.0,-87.0,0.0
-97.0,70.0,-8.0,0.0,0.0,-38.0,-24.0,-14.0,-100.0,-112.0,0.0
-75.0,79.0,24.0,-11.0,1.0,-15.0,-37.0,0.0,-102.0,-76.0,0.0
-36.0,94.0,22.0,-8.0,8.0,-13.0,-50.0,-2.0,-95.0,-11.0,0.0
-36.0,80.0,31.0,-1.0,0.0,-8.0,-41.0,11.0,-37.0,18.0,0.0
-14.0,68.0,55.0,-4.0,-9.0,8.0,-17.0,21.0,72.0,30.0,0.0
-29.0,39.0,37.0,1.0,0.0,19.0,0.0,22.0,40.0,-7.0,0.0
-38.0,12.0,7.0,19.0,5.0,17.0,23.0,46.0,47.0,-22.0,0.0
-27.0,-23.0,-19.0,22.0,1.0,9.0,19.0,35.0,59.0,-2.0,0.0
-18.0,-81.0,1.0,16.0,-8.0,9.0,1.0,19.0,14.0,31.0,0.0
-36.0,-119.0,-2.0,10.0,-1.0,6.0,2.0,31.0,-39.0,35.0,0.0
1.0,-85.0,-4.0,9.0,-11.0,-5.0,5.0,29.0,-22.0,40.0,0.0
17.0,-55.0,10.0,14.0,-21.0,-3.0,-19.0,11.0,-1.0,47.0,0.0
20.0,-43.0,-21.0,4.0,-32.0,3.0,-18.0,22.0,0.0,53.0,0.0
18.0,-41.0,-47.0,-7.0,-22.0,16.0,0.0,17.0,-16.0,26.0,0.0
29.0,-28.0,-77.0,-12.0,-21.0,14.0,-9.0,0.0,-20.0,11.0,0.0
51.0,-10.0,-29.0,-4.0,-30.0,11.0,-14.0,1.0,-34.0,29.0,0.0
36.0,2.0,6.0,13.0,-28.0,11.0,-10.0,-5.0,-52.0,31.0,0.0
19.0,22.0,27.0,18.0,-8.0,15.0,14.0,-10.0,-51.0,17.0,0.0
19.0,23.0,22.0,19.0,2.0,15.0,0.0,-13.0,-94.0,7.0,0.0
15.0,9.0,2.0,24.0,17.0,14.0,-11.0,-9.0,-102.0,2.0,0.0
-3.0,-38.0,3.0,5.0,14.0,15.0,-11.0,-10.0,-77.0,12.0,0.0
-25.0,-63.0,2.0,-4.0,0.0,11.0,-4.0,-3.0,-45.0,-5.0,0.0
-13.0,-44.0,14.0,-7.0,-8.0,-2.0,25.0,19.0,39.0,7.0,0.0
17.0,-24.0,42.0,-8.0,-11.0,-12.0,42.0,15.0,91.0,49.0,0.0
31.0,-20.0,46.0,3.0,13.0,-5.0,52.0,20.0,85.0,44.0,0.0
1.0,-29.0,41.0,11.0,27.0,-2.0,63.0,11.0,-4.0,0.0,0.0
-31.0,-44.0,21.0,13.0,17.0,-6.0,57.0,-9.0,-56.0,-28.0,0.0
-52.0,-50.0,-12.0,4.0,7.0,-18.0,50.0,-7.0,-57.0,-37.0,0.0
-57.0,-51.0,-13.0,18.0,11.0,-14.0,45.0,-8.0,-72.0,-42.0,0.0
-5.0,-26.0,3.0,35.0,16.0,-6.0,17.0,-12.0,-56.0,10.0,0.0
26.0,11.0,24.0,33.0,17.0,-7.0,4.0,-15.0,-44.0,41.0,0.0
14.0,22.0,24.0,21.0,15.0,-19.0,23.0,-16.0,-38.0,27.0,0.0
4.0,24.0,11.0,14.0,15.0,-15.0,40.0,-1.0,-38.0,0.0,0.0
-8.0,34.0,-85.0,21.0,16.0,-15.0,49.0,0.0,-45.0,-26.0,0.0
-23.0,44.0,-136.0,33.0,22.0,-17.0,51.0,4.0,-53.0,-55.0,0.0
-34.0,56.0,-99.0,33.0,23.0,-3.0,47.0,-1.0,-58.0,-75.0,0.0
-32.0,51.0,-4.0,28.0,20.0,-1.0,26.0,11.0,-51.0,-59.0,0.0
-5.0,36.0,37.0,14.0,6.0,-4.0,22.0,10.0,-40.0,-37.0,0.0
20.0,20.0,14.0,-14.0,0.0,-1.0,21.0,10.0,11.0,-14.0,0.0
62.0,16.0,15.0,-16.0,6.0,4.0,31.0,28.0,73.0,-14.0,0.0
81.0,35.0,-63.0,-2.0,10.0,3.0,33.0,21.0,108.0,0.0,0.0
90.0,35.0,-73.0,0.0,-4.0,-1.0,32.0,8.0,122.0,42.0,0.0
70.0,19.0,-4.0,-4.0,-6.0,-1.0,8.0,10.0,86.0,56.0,0.0
44.0,1.0,32.0,-12.0,3.0,-6.0,4.0,0.0,53.0,45.0,0.0
32.0,-9.0,9.0,-24.0,3.0,-6.0,-5.0,2.0,9.0,22.0,0.0
15.0,-6.0,-1.0,-22.0,-3.0,-18.0,-8.0,4.0,14.0,11.0,0.0
15.0,17.0,-9.0,-7.0,-8.0,-25.0,-5.0,-1.0,5.0,9.0,0.0
25.0,22.0,40.0,1.0,-5.0,-22.0,21.0,-1.0,-2.0,7.0,0.0
15.0,21.0,50.0,0.0,-4.0,-20.0,44.0,6.0,58.0,11.0,0.0
-12.0,-7.0,64.0,3.0,14.0,-13.0,57.0,14.0,65.0,0.0,0.0
-17.0,-30.0,54.0,13.0,23.0,1.0,50.0,21.0,66.0,5.0,0.0
-23.0,-47.0,24.0,6.0,21.0,6.0,33.0,11.0,19.0,-7.0,0.0
-27.0,-57.0,-12.0,-13.0,15.0,1.0,38.0,6.0,-6.0,-34.0,0.0
-11.0,-53.0,-67.0,-9.0,15.0,5.0,50.0,19.0,34.0,-17.0,0.0
-5.0,-34.0,-1.0,0.0,19.0,8.0,41.0,17.0,51.0,3.0,0.0
-18.0,5.0,37.0,-2.0,16.0,6.0,24.0,4.0,19.0,7.0,0.0
-47.0,-1.0,-42.0,4.0,19.0,11.0,-11.0,2.0,-49.0,-28.0,0.0
-40.0,0.0,-32.0,-6.0,11.0,17.0,-33.0,-5.0,-63.0,-37.0,0.0
-8.0,14.0,8.0,-5.0,6.0,13.0,-21.0,1.0,15.0,-12.0,0.0
0.0,4.0,-3.0,-17.0,-11.0,0.0,9.0,2.0,72.0,12.0,0.0
8.0,-4.0,-28.0,-20.0,-4.0,-15.0,24.0,1.0,48.0,-5.0,0.0
-2.0,-4.0,37.0,-15.0,-1.0,-23.0,3.0,14.0,46.0,-29.0,0.0
10.0,0.0,59.0,-3.0,-4.0,-26.0,-31.0,14.0,27.0,5.0,0.0
83.0,31.0,55.0,12.0,0.0,-14.0,-30.0,-3.0,56.0,55.0,0.0
93.0,25.0,53.0,5.0,-2.0,1.0,-16.0,-3.0,74.0,38.0,0.0
48.0,10.0,17.0,11.0,-3.0,6.0,-16.0,-3.0,56.0,11.0,0.0
-1.0,3.0,-48.0,4.0,-2.0,17.0,-15.0,-3.0,-6.0,-6.0,0.0
-30.0,-2.0,-24.0,-5.0,6.0,12.0,-19.0,6.0,-70.0,-39.0,0.0
-42.0,12.0,-31.0,-4.0,23.0,17.0,-25.0,2.0,-100.0,-55.0,0.0
-45.0,26.0,-9.0,6.0,25.0,15.0,-21.0,-7.0,-111.0,-50.0,0.0
-51.0,27.0,33.0,8.0,22.0,16.0,-12.0,-18.0,-116.0,-30.0,0.0
-56.0,-1.0,0.0,-1.0,23.0,17.0,-16.0,-26.0,-125.0,-35.0,0.0
-62.0,-19.0,-42.0,-25.0,18.0,11.0,-26.0,-11.0,-121.0,-43.0,0.0
-42.0,-37.0,-4.0,-31.0,15.0,9.0,-35.0,-5.0,-99.0,-19.0,0.0
-37.0,-31.0,-2.0,-9.0,11.0,7.0,-36.0,4.0,-82.0,-14.0,0.0
-29.0,-34.0,3.0,0.0,17.0,0.0,-33.0,4.0,-72.0,-2.0,0.0
-42.0,-41.0,-3.0,-15.0,19.0,-3.0,-23.0,-12.0,-73.0,1.0,0.0
-24.0,-46.0,10.0,-23.0,8.0,-4.0,5.0,6.0,-82.0,8.0,0.0
-15.0,-32.0,3.0,-13.0,-5.0,-2.0,21.0,-2.0,-75.0,23.0,0.0
-34.0,-24.0,12.0,-11.0,2.0,-5.0,13.0,-4.0,-78.0,22.0,0.0
-30.0,-17.0,-4.0,-1.0,18.0,-8.0,9.0,1.0,-85.0,30.0,0.0
-27.0,8.0,-74.0,0.0,25.0,-17.0,0.0,-12.0,-73.0,9.0,0.0
-2.0,34.0,-102.0,-3.0,15.0,-47.0,-14.0,-16.0,-44.0,11.0,0.0
8.0,41.0,-140.0,-2.0,0.0,-43.0,-25.0,-18.0,-16.0,16.0,0.0
-4.0,17.0,-136.0,-25.0,1.0,-28.0,-16.0,-4.0,7.0,16.0,0.0
-31.0,7.0,-88.0,-22.0,-2.0,-14.0,0.0,0.0,31.0,-2.0,0.0
-38.0,-5.0,-7.0,-22.0,-3.0,-16.0,5.0,4.0,15.0,-37.0,0.0
-10.0,-2.0,43.0,-17.0,-1.0,-41.0,11.0,26.0,82.0,-32.0,0.0
-11.0,22.0,68.0,6.0,-2.0,-46.0,-3.0,12.0,120.0,-14.0,0.0
-8.0,29.0,83.0,18.0,-5.0,-18.0,-29.0,4.0,122.0,-15.0,0.0
-22.0,15.0,64.0,19.0,-11.0,-3.0,-30.0,19.0,84.0,-31.0,0.0
8.0,3.0,53.0,24.0,-16.0,8.0,-17.0,21.0,81.0,4.0,0.0
37.0,10.0,50.0,16.0,-7.0,8.0,-4.0,8.0,67.0,39.0,0.0
62.0,34.0,52.0,8.0,-5.0,-15.0,0.0,8.0,72.0,77.0,0.0
82.0,51.0,47.0,8.0,-9.0,-32.0,2.0,7.0,77.0,73.0,0.0
89.0,53.0,-8.0,0.0,-12.0,-27.0,10.0,15.0,109.0,55.0,0.0
55.0,39.0,-53.0,-4.0,2.0,-4.0,4.0,17.0,49.0,38.0,0.0
32.0,31.0,9.0,-4.0,2.0,0.0,-19.0,2.0,34.0,28.0,0.0
43.0,42.0,29.0,-5.0,-4.0,-12.0,-42.0,1.0,106.0,33.0,0.0
58.0,97.0,43.0,-17.0,-5.0,-22.0,-55.0,18.0,114.0,29.0,0.0
61.0,156.0,57.0,-17.0,-11.0,-27.0,-61.0,14.0,103.0,22.0,0.0
43.0,135.0,52.0,-22.0,-4.0,-14.0,-60.0,-2.0,90.0,14.0,0.0
32.0,89.0,51.0,-40.0,5.0,1.0,-53.0,3.0,84.0,23.0,0.0
21.0,46.0,49.0,-45.0,10.0,2.0,-58.0,-3.0,65.0,25.0,0.0
-6.0,18.0,45.0,-33.0,12.0,-1.0,-55.0,-25.0,11.0,9.0,0.0
-10.0,30.0,66.0,-16.0,5.0,-7.0,-43.0,-8.0,-10.0,-1.0,0.0
17.0,64.0,60.0,-13.0,9.0,-8.0,-41.0,-16.0,-18.0,14.0,0.0
31.0,8.0,35.0,-7.0,19.0,13.0,-48.0,-20.0,-35.0,37.0,0.0
-9.0,-103.0,12.0,-3.0,26.0,26.0,-37.0,-20.0,-72.0,13.0,0.0
-15.0,-175.0,16.0,13.0,43.0,30.0,-19.0,-2.0,-24.0,8.0,0.0
-17.0,-150.0,1.0,10.0,43.0,34.0,-14.0,1.0,-19.0,-7.0,0.0
-6.0,-108.0,13.0,-4.0,22.0,31.0,-6.0,-3.0,10.0,3.0,0.0
9.0,-73.0,25.0,-10.0,7.0,25.0,-28.0,-3.0,27.0,20.0,0.0
30.0,-61.0,-45.0,-5.0,10.0,25.0,-39.0,-16.0,20.0,33.0,0.0
13.0,-66.0,-137.0,-2.0,6.0,26.0,-15.0,-24.0,-7.0,8.0,0.0
-15.0,-68.0,-51.0,-7.0,2.0,20.0,13.0,-13.0,12.0,0.0,0.0
-50.0,-72.0,-2.0,-14.0,10.0,22.0,13.0,-17.0,-25.0,-36.0,0.0
-89.0,-75.0,-18.0,-5.0,6.0,19.0,-3.0,-24.0,-123.0,-78.0,0.0
-85.0,-73.0,-6.0,8.0,15.0,6.0,-5.0,-26.0,-114.0,-85.0,0.0
-55.0,-61.0,-24.0,3.0,4.0,5.0,17.0,-2.0,-10.0,-52.0,0.0
-35.0,-63.0,-73.0,-6.0,2.0,16.0,18.0,3.0,14.0,-40.0,0.0
-16.0,-54.0,-36.0,0.0,-5.0,7.0,-4.0,0.0,-29.0,12.0,0.0
11.0,-27.0,16.0,4.0,-6.0,-13.0,-3.0,-5.0,32.0,41.0,0.0
14.0,-7.0,31.0,-4.0,0.0,-30.0,-10.0,0.0,84.0,21.0,0.0
-15.0,-35.0,6.0,-12.0,-5.0,-34.0,-19.0,19.0,72.0,-7.0,0.0
-41.0,-62.0,-20.0,-9.0,-13.0,-21.0,-20.0,2.0,-4.0,-42.0,0.0
-32.0,-41.0,-14.0,-2.0,-18.0,-5.0,-29.0,1.0,-45.0,-24.0,0.0
46.0,7.0,0.0,1.0,-12.0,0.0,-26.0,-8.0,21.0,40.0,0.0
65.0,33.0,-13.0,13.0,-2.0,9.0,-34.0,-10.0,16.0,68.0,0.0
12.0,29.0,-21.0,14.0,-11.0,21.0,-47.0,-6.0,-76.0,32.0,0.0
-28.0,17.0,-1.0,20.0,-14.0,18.0,-43.0,-18.0,-123.0,0.0,0.0
-29.0,6.0,-16.0,24.0,-6.0,15.0,-16.0,-5.0,-115.0,-10.0,0.0
-39.0,-4.0,-26.0,19.0,10.0,16.0,13.0,3.0,-101.0,-28.0,0.0
-40.0,6.0,-10.0,26.0,15.0,13.0,24.0,11.0,-86.0,-46.0,0.0
-39.0,3.0,-9.0,25.0,26.0,0.0,37.0,3.0,-75.0,-45.0,0.0
-36.0,4.0,0.0,24.0,30.0,4.0,33.0,-2.0,-86.0,-46.0,0.0
-39.0,15.0,0.0,26.0,13.0,6.0,18.0,3.0,-89.0,-40.0,0.0
-14.0,23.0,-12.0,19.0,11.0,4.0,18.0,-6.0,-72.0,-28.0,0.0
2.0,25.0,-14.0,16.0,6.0,-4.0,7.0,-23.0,-55.0,-27.0,0.0
20.0,17.0,-14.0,18.0,-3.0,-9.0,-33.0,-30.0,-59.0,-17.0,0.0
46.0,2.0,-25.0,4.0,-14.0,-7.0,-39.0,-14.0,-55.0,0.0,0.0
33.0,-17.0,-22.0,-22.0,-22.0,-2.0,-30.0,-18.0,-46.0,-2.0,0.0
11.0,-26.0,-38.0,-36.0,-22.0,3.0,-26.0,-14.0,-39.0,2.0,0.0
26.0,-4.0,-40.0,-36.0,-20.0,12.0,-20.0,-24.0,-41.0,-2.0,0.0
47.0,-3.0,-22.0,-16.0,-21.0,5.0,-17.0,-21.0,-49.0,-16.0,0.0
31.0,9.0,-5.0,-3.0,-16.0,8.0,-22.0,-28.0,-62.0,-31.0,0.0
13.0,22.0,-9.0,6.0,-23.0,12.0,-16.0,-18.0,-67.0,-32.0,0.0
11.0,40.0,12.0,-7.0,-16.0,6.0,-1.0,-12.0,-25.0,-38.0,0.0
18.0,65.0,23.0,-12.0,-13.0,5.0,9.0,7.0,59.0,2.0,0.0
37.0,100.0,-8.0,-12.0,-12.0,12.0,16.0,0.0,114.0,36.0,0.0
10.0,91.0,-65.0,-1.0,-12.0,18.0,-4.0,1.0,63.0,29.0,0.0
-45.0,26.0,-7.0,12.0,-7.0,25.0,-23.0,-6.0,-20.0,9.0,0.0
-72.0,-22.0,4.0,14.0,0.0,12.0,-23.0,-10.0,-30.0,-4.0,0.0
-79.0,-40.0,6.0,4.0,-2.0,4.0,-14.0,-13.0,-30.0,-21.0,0.0
-69.0,-66.0,-24.0,-20.0,-10.0,-8.0,-7.0,-5.0,-8.0,-16.0,0.0
-48.0,-55.0,-14.0,-19.0,-15.0,-24.0,7.0,2.0,82.0,-16.0,0.0
-45.0,-44.0,-15.0,-22.0,-14.0,-35.0,-3.0,20.0,129.0,-28.0,0.0
-49.0,-49.0,-99.0,-32.0,-15.0,-35.0,-6.0,28.0,127.0,-43.0,0.0
-51.0,-41.0,-46.0,-27.0,-15.0,-17.0,-18.0,8.0,80.0,-37.0,0.0
-50.0,-16.0,0.0,-14.0,-4.0,0.0,8.0,9.0,62.0,-3.0,0.0
-49.0,-9.0,27.0,1.0,-3.0,7.0,43.0,15.0,77.0,-5.0,0.0
-13.0,5.0,26.0,22.0,-8.0,4.0,11.0,20.0,88.0,12.0,0.0
10.0,23.0,-34.0,23.0,-5.0,9.0,-8.0,15.0,38.0,37.0,0.0
-28.0,0.0,-1.0,2.0,1.0,18.0,-20.0,-7.0,-36.0,-1.0,0.0
-45.0,-3.0,24.0,-3.0,2.0,15.0,-19.0,-5.0,-51.0,-33.0,0.0
-33.0,-9.0,11.0,5.0,-13.0,14.0,-17.0,-6.0,-59.0,-41.0,0.0
-16.0,-20.0,15.0,15.0,-8.0,10.0,4.0,11.0,-39.0,-26.0,0.0
-10.0,-22.0,13.0,7.0,0.0,9.0,40.0,25.0,16.0,-3.0,0.0
16.0,0.0,-27.0,8.0,10.0,15.0,45.0,28.0,66.0,17.0,0.0
-8.0,-22.0,-113.0,12.0,9.0,19.0,2.0,27.0,-8.0,1.0,0.0
-32.0,-39.0,-24.0,6.0,12.0,22.0,-24.0,13.0,-36.0,-26.0,0.0
-28.0,-15.0,45.0,5.0,19.0,19.0,-32.0,0.0,-40.0,-12.0,0.0
-23.0,9.0,23.0,-24.0,6.0,11.0,-27.0,7.0,-40.0,3.0,0.0
-7.0,-8.0,27.0,-32.0,0.0,11.0,-18.0,8.0,-47.0,17.0,0.0
20.0,-11.0,41.0,4.0,9.0,11.0,-19.0,9.0,-57.0,46.0,0.0
47.0,7.0,66.0,2.0,11.0,8.0,-9.0,12.0,-12.0,68.0,0.0
53.0,18.0,74.0,0.0,9.0,-1.0,18.0,3.0,71.0,47.0,0.0
42.0,15.0,82.0,-2.0,5.0,5.0,35.0,23.0,84.0,18.0,0.0
15.0,-7.0,39.0,-16.0,4.0,11.0,48.0,21.0,20.0,-15.0,0.0
5.0,-35.0,-2.0,-19.0,4.0,10.0,35.0,-10.0,-57.0,-23.0,0.0
10.0,-39.0,16.0,-11.0,5.0,6.0,11.0,-30.0,-62.0,-17.0,0.0
-10.0,-45.0,7.0,4.0,9.0,5.0,5.0,-41.0,-64.0,11.0,0.0
-26.0,-45.0,-17.0,3.0,0.0,5.0,-10.0,-45.0,-73.0,13.0,0.0
-17.0,-42.0,-7.0,5.0,2.0,7.0,-20.0,-34.0,-61.0,-18.0,0.0
1.0,-44.0,-2.0,14.0,9.0,11.0,-18.0,-24.0,-63.0,-5.0,0.0
-15.0,-38.0,5.0,-7.0,5.0,6.0,-13.0,-15.0,-54.0,-10.0,0.0
-18.0,-14.0,1.0,-22.0,11.0,0.0,0.0,-4.0,-39.0,4.0,0.0
-9.0,20.0,19.0,-31.0,12.0,-5.0,-3.0,1.0,-27.0,9.0,0.0
7.0,19.0,13.0,-21.0,21.0,-1.0,-17.0,6.0,-6.0,-1.0,0.0
29.0,32.0,2.0,-3.0,30.0,0.0,-13.0,1.0,35.0,1.0,0.0
19.0,33.0,2.0,18.0,18.0,9.0,-4.0,20.0,56.0,-6.0,0.0
2.0,30.0,-63.0,-1.0,0.0,8.0,-3.0,19.0,56.0,-17.0,0.0
7.0,40.0,-82.0,-6.0,-7.0,4.0,5.0,24.0,64.0,-5.0,0.0
43.0,71.0,15.0,9.0,8.0,9.0,2.0,26.0,68.0,48.0,0.0
50.0,85.0,25.0,8.0,15.0,9.0,-2.0,11.0,59.0,68.0,0.0
38.0,61.0,17.0,16.0,-1.0,1.0,0.0,19.0,50.0,73.0,0.0
29.0,42.0,-13.0,19.0,2.0,-16.0,-2.0,20.0,41.0,61.0,0.0
18.0,8.0,-27.0,19.0,9.0,-10.0,0.0,10.0,6.0,35.0,0.0
0.0,-17.0,7.0,19.0,5.0,1.0,-3.0,13.0,-4.0,13.0,0.0
4.0,-19.0,0.0,4.0,-3.0,1.0,-6.0,5.0,15.0,4.0,0.0
-3.0,-2.0,-3.0,6.0,-8.0,3.0,4.0,-8.0,16.0,-7.0,0.0
0.0,25.0,22.0,13.0,5.0,0.0,0.0,0.0,8.0,-23.0,0.0
5.0,26.0,3.0,11.0,6.0,-3.0,-5.0,-13.0,13.0,-32.0,0.0
9.0,23.0,-40.0,1.0,-9.0,-6.0,-19.0,-7.0,28.0,-49.0,0.0
27.0,13.0,12.0,-5.0,-11.0,0.0,0.0,-8.0,36.0,-45.0,0.0
23.0,0.0,14.0,-1.0,-18.0,8.0,26.0,-4.0,9.0,-44.0,0.0
16.0,-4.0,29.0,-2.0,-8.0,2.0,17.0,-20.0,-29.0,-55.0,0.0
37.0,38.0,42.0,0.0,-4.0,-1.0,-24.0,-31.0,-31.0,-41.0,0.0
62.0,83.0,54.0,0.0,-7.0,-5.0,-24.0,-39.0,-24.0,11.0,0.0
60.0,50.0,39.0,-4.0,-19.0,-4.0,-30.0,-33.0,-13.0,39.0,0.0
25.0,0.0,17.0,1.0,-24.0,-8.0,-28.0,-28.0,-5.0,21.0,0.0
-3.0,-19.0,0.0,-4.0,-19.0,-11.0,-19.0,-16.0,1.0,8.0,0.0
-12.0,-25.0,-13.0,-18.0,-6.0,2.0,-1.0,-11.0,18.0,16.0,0.0
22.0,-10.0,-10.0,-19.0,-8.0,3.0,10.0,12.0,71.0,25.0,0.0
36.0,17.0,24.0,-14.0,-16.0,-5.0,32.0,14.0,140.0,36.0,0.0
26.0,14.0,-28.0,-7.0,-18.0,-4.0,37.0,7.0,123.0,19.0,0.0
24.0,30.0,-136.0,-4.0,-21.0,9.0,59.0,16.0,84.0,1.0,0.0
0.0,55.0,-95.0,-1.0,-15.0,5.0,54.0,12.0,10.0,-19.0,0.0
-4.0,74.0,-32.0,3.0,-14.0,6.0,48.0,17.0,-24.0,-33.0,0.0
-8.0,60.0,12.0,9.0,-7.0,13.0,41.0,4.0,-26.0,-33.0,0.0
-3.0,47.0,8.0,0.0,0.0,10.0,34.0,6.0,-18.0,-14.0,0.0
56.0,60.0,32.0,6.0,0.0,-3.0,55.0,9.0,18.0,29.0,0.0
94.0,58.0,39.0,7.0,2.0,-1.0,69.0,13.0,124.0,79.0,0.0
80.0,60.0,45.0,0.0,0.0,6.0,86.0,32.0,154.0,85.0,0.0
62.0,35.0,21.0,-19.0,7.0,12.0,64.0,38.0,125.0,69.0,0.0
0.0,-28.0,2.0,-18.0,12.0,2.0,28.0,13.0,33.0,12.0,0.0
-37.0,-53.0,6.0,-2.0,5.0,-1.0,6.0,15.0,28.0,-3.0,0.0
-13.0,-42.0,10.0,0.0,5.0,2.0,16.0,23.0,68.0,0.0,0.0
2.0,-41.0,34.0,2.0,5.0,0.0,27.0,15.0,68.0,4.0,0.0
-17.0,-29.0,31.0,7.0,1.0,-1.0,23.0,2.0,22.0,2.0,0.0
-21.0,-22.0,15.0,-1.0,10.0,4.0,26.0,-10.0,-21.0,-2.0,0.0
13.0,-4.0,19.0,-25.0,0.0,0.0,17.0,-2.0,42.0,5.0,0.0
12.0,0.0,7.0,-34.0,3.0,-7.0,6.0,5.0,28.0,-14.0,0.0
-34.0,-5.0,-36.0,-33.0,-4.0,0.0,-15.0,-8.0,-77.0,-67.0,0.0
-56.0,-11.0,-32.0,-35.0,-19.0,1.0,-22.0,-10.0,-119.0,-92.0,0.0
-59.0,-3.0,-19.0,-27.0,-18.0,-3.0,-14.0,-16.0,-100.0,-49.0,0.0
-46.0,1.0,-22.0,-11.0,-17.0,-4.0,-28.0,-18.0,-80.0,-7.0,0.0
-19.0,-30.0,-9.0,-7.0,-11.0,2.0,-38.0,-9.0,-58.0,-3.0,0.0
-1.0,-45.0,-8.0,-8.0,-4.0,3.0,-10.0,-1.0,0.0,-22.0,0.0
24.0,-34.0,-1.0,-22.0,-14.0,-4.0,11.0,29.0,108.0,22.0,0.0
37.0,-22.0,24.0,-18.0,-16.0,-3.0,3.0,31.0,135.0,54.0,0.0
35.0,-19.0,5.0,4.0,-6.0,-2.0,0.0,11.0,82.0,47.0,0.0
4.0,-14.0,-68.0,16.0,-1.0,3.0,-16.0,1.0,-26.0,19.0,0.0
-17.0,-26.0,-9.0,11.0,-6.0,9.0,-22.0,-17.0,-88.0,0.0,0.0
-35.0,-39.0,27.0,-7.0,-11.0,1.0,-25.0,-15.0,-102.0,-20.0,0.0
-64.0,-20.0,28.0,-16.0,-2.0,-1.0,-30.0,-11.0,-77.0,-30.0,0.0
-63.0,-11.0,-3.0,-12.0,-5.0,0.0,-44.0,-7.0,-51.0,-31.0,0.0
-34.0,11.0,21.0,1.0,-7.0,5.0,-31.0,5.0,-42.0,-29.0,0.0
-32.0,68.0,40.0,10.0,-13.0,4.0,-8.0,-4.0,-44.0,-41.0,0.0
-17.0,155.0,39.0,-5.0,-20.0,-1.0,-20.0,0.0,-48.0,-46.0,0.0
-2.0,198.0,48.0,-15.0,-14.0,-9.0,-26.0,-16.0,-49.0,-17.0,0.0
-8.0,167.0,48.0,-4.0,-1.0,0.0,-20.0,-11.0,-56.0,-27.0,0.0
-16.0,106.0,17.0,-1.0,-9.0,0.0,-12.0,-9.0,-58.0,-53.0,0.0
-17.0,63.0,7.0,-2.0,-14.0,-3.0,-13.0,-12.0,-48.0,-72.0,0.0
-2.0,36.0,-2.0,-2.0,-20.0,-10.0,2.0,-14.0,-15.0,-75.0,0.0
32.0,39.0,37.0,-17.0,-24.0,-9.0,9.0,0.0,31.0,-46.0,0.0
57.0,13.0,54.0,-24.0,-14.0,-7.0,-13.0,10.0,25.0,6.0,0.0
65.0,-72.0,43.0,-9.0,6.0,4.0,-3.0,4.0,50.0,53.0,0.0
-16.0,-185.0,-4.0,-11.0,27.0,17.0,4.0,8.0,-9.0,6.0,0.0
-30.0,-182.0,-21.0,-17.0,32.0,7.0,2.0,20.0,-10.0,0.0,0.0
29.0,-118.0,6.0,-25.0,20.0,-3.0,7.0,27.0,58.0,60.0,0.0
45.0,-77.0,9.0,-20.0,22.0,2.0,6.0,40.0,80.0,78.0,0.0
22.0,-65.0,23.0,-5.0,26.0,10.0,2.0,32.0,56.0,58.0,0.0
14.0,-45.0,-10.0,0.0,19.0,8.0,1.0,15.0,45.0,59.0,0.0
-6.0,-32.0,-38.0,-2.0,12.0,-6.0,-17.0,0.0,-31.0,4.0,0.0
5.0,-21.0,4.0,2.0,10.0,-10.0,-7.0,12.0,-7.0,4.0,0.0
20.0,-11.0,27.0,9.0,7.0,-10.0,4.0,8.0,68.0,-5.0,0.0
8.0,-15.0,-22.0,0.0,7.0,-5.0,-7.0,6.0,50.0,-7.0,0.0
7.0,-32.0,-101.0,-8.0,5.0,-14.0,-22.0,6.0,18.0,30.0,0.0
32.0,-18.0,-24.0,-21.0,-4.0,-19.0,-9.0,-1.0,71.0,74.0,0.0
38.0,0.0,23.0,-18.0,-10.0,-10.0,-11.0,-3.0,75.0,98.0,0.0
19.0,-12.0,40.0,-13.0,5.0,-5.0,-23.0,2.0,76.0,98.0,0.0
13.0,-10.0,59.0,-8.0,-3.0,-1.0,-17.0,2.0,113.0,105.0,0.0
10.0,-25.0,39.0,-2.0,-4.0,0.0,1.0,18.0,83.0,64.0,0.0
12.0,-15.0,22.0,-7.0,-5.0,-16.0,-5.0,20.0,99.0,41.0,0.0
19.0,-4.0,12.0,-5.0,-14.0,-19.0,-19.0,-2.0,65.0,49.0,0.0
-4.0,-14.0,0.0,0.0,-17.0,-14.0,-23.0,-11.0,-7.0,26.0,0.0
-13.0,-5.0,-20.0,5.0,-25.0,-18.0,-27.0,-7.0,-12.0,13.0,0.0
-17.0,6.0,-21.0,11.0,-7.0,-20.0,-32.0,-17.0,-19.0,5.0,0.0
3.0,10.0,-23.0,17.0,1.0,-15.0,-12.0,0.0,-14.0,0.0,0.0
12.0,26.0,-26.0,32.0,-9.0,-11.0,-2.0,-8.0,-15.0,-2.0,0.0
27.0,44.0,-7.0,34.0,-9.0,0.0,0.0,-12.0,-40.0,10.0,0.0
-7.0,36.0,-4.0,36.0,-1.0,7.0,14.0,-18.0,-71.0,-18.0,0.0
-50.0,23.0,11.0,35.0,11.0,15.0,33.0,-5.0,-86.0,-53.0,0.0
-59.0,16.0,-20.0,26.0,14.0,19.0,51.0,7.0,-88.0,-72.0,0.0
-71.0,12.0,-86.0,28.0,18.0,15.0,54.0,0.0,-80.0,-80.0,0.0
-66.0,19.0,-21.0,36.0,21.0,2.0,56.0,19.0,-82.0,-93.0,0.0
-79.0,0.0,-7.0,28.0,24.0,3.0,61.0,32.0,-78.0,-111.0,0.0
-73.0,0.0,-2.0,13.0,22.0,8.0,70.0,11.0,-61.0,-93.0,0.0
-57.0,16.0,7.0,17.0,27.0,3.0,59.0,-9.0,-67.0,-53.0,0.0
-31.0,19.0,-49.0,29.0,20.0,-4.0,44.0,-23.0,-54.0,-4.0,0.0
27.0,13.0,-36.0,21.0,20.0,-13.0,30.0,-22.0,-35.0,28.0,0.0
67.0,2.0,14.0,8.0,21.0,-11.0,20.0,-10.0,-13.0,38.0,0.0
58.0,18.0,19.0,14.0,19.0,1.0,-13.0,-16.0,-25.0,46.0,0.0
63.0,54.0,36.0,16.0,19.0,5.0,-8.0,0.0,-40.0,75.0,0.0
63.0,57.0,0.0,2.0,8.0,5.0,-3.0,-7.0,-31.0,66.0,0.0
49.0,48.0,-3.0,11.0,13.0,8.0,-32.0,-6.0,-27.0,43.0,0.0
15.0,42.0,38.0,9.0,13.0,5.0,-28.0,-13.0,-27.0,40.0,0.0
5.0,32.0,46.0,4.0,3.0,2.0,-19.0,-27.0,-45.0,30.0,0.0
6.0,13.0,40.0,0.0,10.0,-2.0,-22.0,-13.0,-56.0,7.0,0.0
1.0,-2.0,35.0,4.0,24.0,9.0,-21.0,-1.0,-50.0,-7.0,0.0
-12.0,-5.0,30.0,10.0,30.0,10.0,-13.0,-6.0,-46.0,-24.0,0.0
-36.0,-12.0,11.0,9.0,15.0,9.0,-9.0,-21.0,-51.0,-27.0,0.0
-35.0,-27.0,23.0,6.0,4.0,8.0,-12.0,-8.0,-62.0,-21.0,0.0
-19.0,-31.0,24.0,1.0,-5.0,-4.0,-22.0,-14.0,-48.0,-19.0,0.0
-19.0,-23.0,6.0,-11.0,-20.0,-7.0,-19.0,-13.0,-41.0,-22.0,0.0
-32.0,-24.0,0.0,-21.0,-34.0,1.0,-9.0,-9.0,-27.0,-19.0,0.0
-10.0,-16.0,-23.0,-18.0,-32.0,7.0,-12.0,-7.0,-17.0,-6.0,0.0
11.0,-17.0,-51.0,-17.0,-29.0,1.0,-23.0,-10.0,-10.0,0.0,0.0
6.0,-33.0,-6.0,-20.0,-28.0,-3.0,-15.0,-13.0,-14.0,-10.0,0.0
-3.0,-30.0,-17.0,-16.0,-31.0,1.0,-15.0,-4.0,-5.0,3.0,0.0
-3.0,-39.0,-16.0,-16.0,-38.0,2.0,-15.0,0.0,6.0,21.0,0.0
-6.0,-50.0,-44.0,-15.0,-28.0,-3.0,-9.0,19.0,0.0,29.0,0.0
-21.0,-45.0,-70.0,-7.0,-7.0,-15.0,17.0,4.0,12.0,25.0,0.0
-38.0,-52.0,-27.0,7.0,7.0,-28.0,2.0,0.0,25.0,18.0,0.0
-37.0,-74.0,-15.0,5.0,5.0,-18.0,-13.0,4.0,45.0,14.0,0.0
-48.0,-70.0,-13.0,-9.0,-3.0,-29.0,-2.0,0.0,48.0,-7.0,0.0
-37.0,-47.0,-10.0,12.0,-7.0,-32.0,5.0,13.0,39.0,0.0,0.0
3.0,-11.0,-22.0,18.0,0.0,-17.0,2.0,18.0,37.0,42.0,0.0
14.0,-10.0,-11.0,7.0,3.0,-10.0,17.0,13.0,67.0,64.0,0.0
18.0,-4.0,5.0,24.0,0.0,2.0,54.0,13.0,87.0,75.0,0.0
25.0,8.0,5.0,42.0,4.0,11.0,51.0,10.0,75.0,61.0,0.0
28.0,26.0,24.0,45.0,-2.0,16.0,21.0,14.0,53.0,36.0,0.0
28.0,64.0,24.0,29.0,-1.0,15.0,12.0,16.0,13.0,20.0,0.0
35.0,101.0,36.0,32.0,-12.0,8.0,7.0,3.0,1.0,-2.0,0.0
45.0,95.0,35.0,29.0,-28.0,10.0,-2.0,0.0,23.0,-19.0,0.0
29.0,52.0,29.0,22.0,-21.0,2.0,-9.0,-13.0,10.0,-3.0,0.0
6.0,36.0,26.0,17.0,-27.0,3.0,-4.0,-2.0,-8.0,0.0,0.0
-7.0,22.0,7.0,24.0,-14.0,13.0,13.0,0.0,-27.0,-13.0,0.0
-8.0,1.0,6.0,24.0,-6.0,11.0,12.0,-14.0,-26.0,-22.0,0.0
-14.0,-13.0,-1.0,20.0,-4.0,10.0,12.0,-7.0,-24.0,-24.0,0.0
-10.0,-14.0,-1.0,26.0,8.0,15.0,6.0,-22.0,-19.0,-38.0,0.0
-6.0,-20.0,-3.0,38.0,12.0,1.0,-1.0,-24.0,-23.0,-23.0,0.0
-7.0,-23.0,1.0,25.0,2.0,1.0,-6.0,-33.0,-25.0,-11.0,0.0
-11.0,-12.0,-5.0,-23.0,-7.0,1.0,-5.0,-22.0,-20.0,-23.0,0.0
-34.0,-16.0,-12.0,-53.0,-11.0,0.0,-4.0,-23.0,-14.0,-39.0,0.0
-53.0,-26.0,-2.0,-42.0,-15.0,6.0,-5.0,-18.0,-18.0,-59.0,0.0
-42.0,-33.0,-10.0,-38.0,-14.0,1.0,-8.0,-23.0,-13.0,-55.0,0.0
-28.0,-28.0,-7.0,-41.0,-2.0,-4.0,-2.0,-20.0,-6.0,-20.0,0.0
-15.0,-22.0,-28.0,-37.0,-4.0,0.0,24.0,-18.0,-8.0,-2.0,0.0
-29.0,-21.0,-96.0,-31.0,-1.0,-1.0,38.0,-15.0,-15.0,-20.0,0.0
-37.0,-28.0,-158.0,-30.0,4.0,-20.0,38.0,-16.0,-19.0,-37.0,0.0
-4.0,-17.0,-62.0,-15.0,0.0,-31.0,29.0,-27.0,-13.0,6.0,0.0
34.0,-11.0,-12.0,-22.0,1.0,-33.0,18.0,-36.0,-9.0,34.0,0.0
28.0,-15.0,-62.0,-20.0,2.0,-32.0,39.0,-20.0,-5.0,12.0,0.0
41.0,1.0,-14.0,-8.0,5.0,-24.0,77.0,1.0,26.0,10.0,0.0
41.0,10.0,29.0,-4.0,0.0,-4.0,81.0,2.0,10.0,-11.0,0.0
26.0,13.0,10.0,5.0,6.0,11.0,73.0,9.0,-17.0,-12.0,0.0
32.0,23.0,-34.0,28.0,21.0,15.0,59.0,-4.0,-4.0,4.0,0.0
28.0,28.0,-15.0,20.0,19.0,11.0,39.0,4.0,8.0,-1.0,0.0
11.0,28.0,-86.0,16.0,24.0,7.0,39.0,4.0,15.0,-32.0,0.0
-5.0,25.0,-34.0,15.0,32.0,5.0,30.0,3.0,2.0,-53.0,0.0
