channel0,channel1,channel2,channel3,channel4,channel5,channel6,channel7,channel8,channel9,true_locs
18.0,7.0,23.0,-17.0,-2.0,-9.0,-18.0,-14.0,25.0,28.0,0.0
25.0,22.0,23.0,-21.0,-11.0,-1.0,-3.0,-11.0,52.0,41.0,0.0
18.0,8.0,18.0,-27.0,-15.0,10.0,19.0,10.0,61.0,49.0,0.0
24.0,-14.0,9.0,-38.0,-20.0,10.0,26.0,16.0,62.0,73.0,0.0
19.0,-14.0,3.0,-39.0,-27.0,8.0,4.0,20.0,50.0,82.0,0.0
29.0,-19.0,0.0,-26.0,-42.0,0.0,-6.0,10.0,31.0,71.0,0.0
12.0,-35.0,-5.0,9.0,62.0,25.0,0.0,4.0,23.0,47.0,0.0
-11.0,-20.0,13.0,-8.0,51.0,25.0,21.0,15.0,-5.0,2.0,0.0
-55.0,-77.0,18.0,-33.0,20.0,-8.0,-68.0,0.0,-320.0,-29.0,0.0
-72.0,-155.0,-3.0,-95.0,-6.0,-37.0,-240.0,-27.0,-740.0,-26.0,0.0
-47.0,-35.0,-14.0,-34.0,29.0,39.0,-4.0,35.0,-111.0,-19.0,0.0
-38.0,-7.0,-9.0,-24.0,38.0,51.0,44.0,49.0,54.0,-30.0,0.0
-39.0,16.0,0.0,-10.0,39.0,54.0,39.0,62.0,72.0,-21.0,0.0
-31.0,15.0,-12.0,-13.0,36.0,49.0,46.0,57.0,81.0,-11.0,0.0
-25.0,-146.0,37.0,-57.0,-7.0,-98.0,-304.0,-51.0,-800.0,-36.0,0.0
-26.0,-184.0,25.0,-80.0,-27.0,-105.0,-361.0,-65.0,-991.0,-28.0,0.0
-12.0,-137.0,24.0,-62.0,-14.0,-73.0,-276.0,-44.0,-806.0,-26.0,0.0
-20.0,-147.0,-13.0,-80.0,-7.0,-97.0,-296.0,-54.0,-829.0,-30.0,0.0
-6.0,-85.0,-58.0,-30.0,-2.0,-64.0,-193.0,-28.0,-501.0,-33.0,0.0
19.0,42.0,23.0,68.0,26.0,26.0,107.0,40.0,269.0,-26.0,0.0
28.0,46.0,49.0,71.0,28.0,28.0,150.0,41.0,307.0,-25.0,0.0
32.0,59.0,64.0,71.0,5.0,22.0,147.0,33.0,276.0,-23.0,0.0
33.0,55.0,68.0,56.0,-11.0,15.0,106.0,34.0,259.0,-25.0,0.0
29.0,46.0,53.0,55.0,-25.0,18.0,84.0,35.0,249.0,-21.0,0.0
18.0,45.0,36.0,49.0,-28.0,24.0,79.0,36.0,241.0,-17.0,0.0
11.0,35.0,22.0,43.0,-15.0,39.0,77.0,42.0,222.0,-17.0,0.0
7.0,40.0,18.0,40.0,-1.0,52.0,90.0,32.0,235.0,-17.0,0.0
14.0,76.0,30.0,47.0,7.0,46.0,87.0,19.0,238.0,-5.0,0.0
34.0,81.0,21.0,33.0,-6.0,38.0,73.0,17.0,231.0,7.0,0.0
55.0,65.0,16.0,28.0,-14.0,31.0,68.0,9.0,228.0,9.0,0.0
61.0,72.0,-10.0,25.0,-5.0,21.0,64.0,4.0,219.0,19.0,0.0
104.0,74.0,11.0,20.0,-20.0,24.0,64.0,18.0,209.0,36.0,0.0
134.0,75.0,42.0,16.0,-28.0,26.0,56.0,19.0,195.0,43.0,0.0
135.0,72.0,33.0,6.0,-30.0,17.0,57.0,14.0,172.0,33.0,0.0
115.0,61.0,10.0,-7.0,-26.0,6.0,48.0,12.0,138.0,38.0,0.0
55.0,57.0,6.0,-2.0,-10.0,4.0,46.0,16.0,108.0,10.0,0.0
2.0,83.0,17.0,4.0,-7.0,-2.0,30.0,20.0,101.0,2.0,0.0
-34.0,114.0,37.0,12.0,-9.0,-10.0,19.0,20.0,83.0,23.0,0.0
-45.0,133.0,57.0,14.0,-18.0,-11.0,21.0,-7.0,46.0,-17.0,0.0
-38.0,128.0,69.0,11.0,-38.0,-22.0,7.0,-32.0,16.0,-50.0,0.0
-71.0,55.0,36.0,-1.0,-58.0,-25.0,13.0,-21.0,23.0,-37.0,0.0
-104.0,-67.0,-22.0,-8.0,-50.0,-2.0,36.0,7.0,36.0,-17.0,0.0
-138.0,-177.0,-61.0,3.0,-6.0,38.0,56.0,36.0,33.0,-8.0,0.0
-143.0,-177.0,-49.0,5.0,36.0,39.0,60.0,34.0,38.0,-7.0,0.0
-119.0,-124.0,-10.0,10.0,52.0,18.0,41.0,22.0,34.0,-30.0,0.0
-99.0,-97.0,3.0,15.0,33.0,4.0,19.0,22.0,28.0,-27.0,0.0
-87.0,-98.0,-31.0,-3.0,-4.0,20.0,34.0,35.0,55.0,0.0,0.0
-66.0,-92.0,-87.0,-10.0,-23.0,30.0,64.0,54.0,95.0,20.0,0.0
-65.0,-85.0,-42.0,-7.0,-20.0,41.0,78.0,56.0,101.0,11.0,0.0
-50.0,-50.0,-11.0,9.0,15.0,34.0,80.0,42.0,95.0,-3.0,0.0
-41.0,-35.0,-18.0,24.0,63.0,16.0,65.0,25.0,79.0,-24.0,0.0
-23.0,-28.0,-20.0,19.0,59.0,11.0,41.0,19.0,70.0,-7.0,0.0
-18.0,-11.0,-5.0,3.0,18.0,10.0,41.0,15.0,81.0,3.0,0.0
-25.0,-17.0,-3.0,4.0,9.0,14.0,70.0,11.0,63.0,-5.0,0.0
-19.0,-15.0,-58.0,6.0,8.0,12.0,40.0,10.0,47.0,-16.0,0.0
-10.0,-17.0,-13.0,11.0,10.0,4.0,23.0,9.0,45.0,-21.0,0.0
-6.0,-2.0,35.0,13.0,20.0,0.0,15.0,3.0,29.0,-22.0,0.0
-16.0,-1.0,9.0,5.0,50.0,-2.0,-1.0,-7.0,-5.0,-45.0,0.0
77.0,-69.0,21.0,-85.0,-19.0,-128.0,-341.0,-94.0,-902.0,3.0,0.0
70.0,-98.0,31.0,-115.0,-33.0,-143.0,-436.0,-105.0,-1144.0,7.0,0.0
70.0,-86.0,41.0,-116.0,-38.0,-137.0,-429.0,-106.0,-1118.0,11.0,0.0
70.0,-35.0,43.0,-54.0,-9.0,-78.0,-204.0,-47.0,-519.0,16.0,0.0
74.0,-1.0,30.0,-4.0,10.0,-16.0,-6.0,0.0,21.0,17.0,0.0
73.0,66.0,21.0,15.0,7.0,15.0,100.0,15.0,292.0,4.0,0.0
17.0,56.0,5.0,7.0,5.0,16.0,110.0,14.0,291.0,-16.0,0.0
-43.0,20.0,-6.0,27.0,30.0,19.0,106.0,14.0,275.0,-22.0,0.0
-26.0,34.0,-1.0,40.0,31.0,21.0,96.0,1.0,258.0,-20.0,0.0
-18.0,6.0,0.0,38.0,21.0,22.0,105.0,7.0,261.0,-23.0,0.0
-21.0,1.0,0.0,37.0,28.0,36.0,113.0,25.0,258.0,-35.0,0.0
-20.0,0.0,2.0,33.0,34.0,56.0,128.0,36.0,256.0,-40.0,0.0
-15.0,22.0,7.0,33.0,29.0,41.0,154.0,18.0,238.0,-26.0,0.0
-3.0,28.0,-4.0,23.0,25.0,13.0,130.0,-10.0,208.0,-31.0,0.0
-8.0,21.0,-19.0,20.0,24.0,6.0,115.0,-8.0,188.0,-27.0,0.0
-4.0,42.0,-117.0,26.0,23.0,15.0,104.0,5.0,172.0,-4.0,0.0
3.0,27.0,-108.0,17.0,25.0,19.0,87.0,19.0,160.0,-1.0,0.0
3.0,28.0,0.0,13.0,14.0,17.0,78.0,22.0,110.0,-8.0,0.0
12.0,39.0,18.0,11.0,-3.0,10.0,78.0,12.0,101.0,-6.0,0.0
15.0,37.0,14.0,7.0,-13.0,0.0,72.0,4.0,95.0,0.0,0.0
15.0,33.0,14.0,-3.0,-17.0,7.0,66.0,0.0,89.0,9.0,0.0
9.0,31.0,17.0,-23.0,-14.0,5.0,68.0,0.0,85.0,19.0,0.0
-2.0,23.0,-4.0,-18.0,-14.0,-1.0,64.0,1.0,70.0,8.0,0.0
-21.0,13.0,-13.0,-13.0,-18.0,0.0,52.0,6.0,67.0,-7.0,0.0
-8.0,7.0,-17.0,-16.0,-18.0,5.0,29.0,4.0,63.0,-5.0,0.0
-5.0,-1.0,-14.0,-15.0,-12.0,4.0,26.0,-19.0,53.0,-3.0,0.0
-8.0,15.0,-19.0,-14.0,-10.0,6.0,31.0,-21.0,41.0,-1.0,0.0
-4.0,15.0,-32.0,-12.0,-5.0,-2.0,15.0,-7.0,50.0,0.0,0.0
6.0,7.0,-36.0,0.0,-22.0,-6.0,0.0,4.0,65.0,0.0,0.0
10.0,25.0,-5.0,5.0,-34.0,-12.0,14.0,3.0,72.0,0.0,0.0
4.0,16.0,-28.0,18.0,-41.0,-9.0,34.0,2.0,87.0,-2.0,0.0
-4.0,14.0,-128.0,16.0,-51.0,-12.0,41.0,-3.0,85.0,0.0,0.0
3.0,20.0,-147.0,16.0,-12.0,0.0,33.0,-11.0,68.0,-4.0,0.0
0.0,6.0,-107.0,22.0,58.0,10.0,3.0,-15.0,41.0,-4.0,0.0
9.0,12.0,12.0,11.0,57.0,-8.0,-13.0,-12.0,29.0,1.0,0.0
12.0,29.0,44.0,9.0,31.0,-23.0,-6.0,-4.0,23.0,2.0,0.0
-10.0,16.0,47.0,17.0,20.0,-26.0,-12.0,-6.0,20.0,0.0,0.0
-10.0,6.0,47.0,12.0,13.0,-16.0,-19.0,-11.0,12.0,-4.0,0.0
-5.0,18.0,42.0,8.0,13.0,-15.0,-14.0,-7.0,7.0,0.0,0.0
-9.0,22.0,28.0,20.0,16.0,-8.0,-12.0,-4.0,12.0,1.0,0.0
-16.0,24.0,19.0,12.0,14.0,0.0,-27.0,-6.0,-9.0,0.0,0.0
-13.0,20.0,-17.0,-1.0,9.0,3.0,-34.0,-11.0,-21.0,-9.0,0.0
-15.0,28.0,-18.0,-7.0,-6.0,-7.0,-25.0,-17.0,-18.0,-5.0,1.0
-5.0,17.0,0.0,-6.0,-6.0,-12.0,-1.0,-2.0,-29.0,4.0,1.0
1.0,24.0,-22.0,0.0,-9.0,-4.0,15.0,111.0,47.0,26.0,1.0
9.0,157.0,13.0,32.0,-5.0,3.0,65.0,576.0,359.0,129.0,1.0
4.0,181.0,94.0,29.0,-1.0,-1.0,59.0,624.0,381.0,151.0,1.0
-7.0,15.0,24.0,-30.0,-10.0,-13.0,-4.0,15.0,-11.0,13.0,1.0
6.0,36.0,20.0,-17.0,6.0,-6.0,-2.0,60.0,35.0,27.0,1.0
20.0,50.0,24.0,1.0,26.0,6.0,1.0,109.0,66.0,43.0,1.0
24.0,-8.0,0.0,-2.0,12.0,-3.0,-9.0,-78.0,-52.0,9.0,1.0
37.0,-18.0,2.0,-1.0,8.0,-10.0,-2.0,-106.0,-58.0,11.0,1.0
42.0,9.0,7.0,-2.0,2.0,-14.0,12.0,-90.0,-37.0,15.0,1.0
38.0,28.0,-57.0,-4.0,-4.0,-14.0,7.0,-92.0,-37.0,4.0,1.0
32.0,22.0,-103.0,-5.0,-12.0,-9.0,-2.0,-94.0,-54.0,4.0,1.0
18.0,-1.0,-14.0,-24.0,-23.0,-12.0,-3.0,-78.0,-40.0,24.0,1.0
-4.0,22.0,20.0,-28.0,-31.0,-10.0,6.0,55.0,54.0,54.0,1.0
-10.0,46.0,-1.0,-29.0,-31.0,-12.0,2.0,88.0,57.0,40.0,1.0
5.0,23.0,-9.0,-38.0,-27.0,-14.0,-21.0,-64.0,-65.0,-11.0,1.0
18.0,15.0,-4.0,-53.0,-27.0,-26.0,-26.0,-93.0,-93.0,-1.0,1.0
12.0,-4.0,-80.0,-68.0,-44.0,-31.0,-29.0,-88.0,-83.0,2.0,0.0
2.0,-63.0,-120.0,-68.0,-47.0,-22.0,-39.0,-89.0,-84.0,-2.0,0.0
-32.0,-106.0,-64.0,-52.0,-16.0,-5.0,-48.0,-75.0,-80.0,-6.0,0.0
-52.0,-84.0,-39.0,-34.0,2.0,-5.0,-41.0,-38.0,-67.0,-4.0,0.0
-30.0,63.0,49.0,17.0,5.0,15.0,-6.0,387.0,198.0,87.0,0.0
-10.0,130.0,81.0,31.0,9.0,25.0,15.0,514.0,299.0,122.0,0.0
3.0,1.0,27.0,-18.0,-11.0,1.0,-25.0,-38.0,-27.0,9.0,0.0
19.0,3.0,32.0,-7.0,-15.0,0.0,-23.0,-127.0,-69.0,-9.0,0.0
30.0,10.0,12.0,8.0,-32.0,-12.0,0.0,-124.0,-74.0,-14.0,0.0
32.0,19.0,-38.0,-13.0,-75.0,-16.0,-3.0,-107.0,-62.0,0.0,0.0
26.0,-8.0,24.0,-10.0,-81.0,-9.0,0.0,-103.0,-36.0,8.0,0.0
-7.0,-61.0,-14.0,12.0,3.0,-2.0,-3.0,-97.0,-33.0,-9.0,0.0
-55.0,-69.0,0.0,27.0,78.0,-15.0,-22.0,-105.0,-54.0,-35.0,0.0
-52.0,-74.0,35.0,16.0,44.0,-28.0,-7.0,-97.0,-49.0,-36.0,0.0
-36.0,-30.0,64.0,15.0,9.0,-21.0,-12.0,-91.0,-68.0,-48.0,0.0
0.0,-26.0,68.0,24.0,-1.0,-29.0,-39.0,-93.0,-91.0,-59.0,0.0
46.0,-11.0,35.0,7.0,-17.0,-33.0,-57.0,-95.0,-101.0,-31.0,0.0
72.0,16.0,18.0,-19.0,-26.0,-28.0,-61.0,-89.0,-94.0,-15.0,0.0
74.0,23.0,16.0,-19.0,-29.0,-38.0,-69.0,-86.0,-83.0,-21.0,0.0
56.0,43.0,47.0,-3.0,-23.0,-27.0,-61.0,-79.0,-78.0,-26.0,0.0
37.0,26.0,49.0,-5.0,-9.0,-11.0,-29.0,-53.0,-45.0,-5.0,0.0
42.0,25.0,42.0,-10.0,-1.0,-15.0,-26.0,-39.0,-34.0,5.0,0.0
13.0,19.0,35.0,1.0,0.0,0.0,-35.0,-42.0,-60.0,-27.0,0.0
-33.0,-18.0,16.0,5.0,-2.0,16.0,-12.0,-35.0,-64.0,-54.0,0.0
-62.0,-72.0,0.0,1.0,-2.0,19.0,0.0,-26.0,-52.0,-33.0,0.0
-63.0,-91.0,1.0,17.0,8.0,24.0,2.0,-24.0,-43.0,-14.0,0.0
-86.0,-95.0,10.0,28.0,18.0,33.0,8.0,-15.0,-32.0,-7.0,0.0
-100.0,-73.0,24.0,34.0,8.0,18.0,-16.0,-32.0,-32.0,-29.0,0.0
-70.0,-49.0,25.0,26.0,-8.0,2.0,-20.0,-35.0,-24.0,-38.0,0.0
-25.0,-27.0,32.0,10.0,-14.0,0.0,5.0,-18.0,-9.0,-22.0,0.0
-5.0,-4.0,12.0,-1.0,-13.0,5.0,21.0,-7.0,10.0,-14.0,0.0
9.0,47.0,6.0,-10.0,-20.0,13.0,25.0,-18.0,17.0,-12.0,0.0
25.0,57.0,-4.0,-2.0,-18.0,12.0,12.0,-32.0,27.0,-8.0,0.0
18.0,20.0,-28.0,-13.0,-14.0,9.0,7.0,-24.0,38.0,5.0,0.0
0.0,-3.0,-37.0,-15.0,-19.0,13.0,18.0,-22.0,36.0,9.0,0.0
-12.0,-6.0,-81.0,-11.0,-4.0,26.0,28.0,-16.0,15.0,-10.0,0.0
-32.0,-40.0,-131.0,-12.0,18.0,38.0,34.0,3.0,-1.0,-11.0,0.0
-44.0,-74.0,-46.0,-14.0,19.0,33.0,45.0,16.0,14.0,4.0,0.0
-43.0,-66.0,-2.0,-6.0,21.0,25.0,43.0,17.0,20.0,12.0,0.0
-31.0,-44.0,5.0,0.0,22.0,15.0,9.0,12.0,4.0,6.0,0.0
-17.0,-34.0,9.0,9.0,21.0,9.0,10.0,10.0,7.0,3.0,0.0
20.0,-11.0,0.0,10.0,8.0,6.0,-3.0,-3.0,-8.0,10.0,0.0
29.0,-16.0,-39.0,9.0,-2.0,2.0,-43.0,-21.0,-34.0,3.0,0.0
8.0,-12.0,-56.0,14.0,0.0,3.0,-56.0,-27.0,-42.0,-7.0,0.0
-18.0,-25.0,6.0,10.0,2.0,1.0,-63.0,-35.0,-54.0,-17.0,0.0
-44.0,-17.0,27.0,29.0,-1.0,9.0,-69.0,-36.0,-58.0,-24.0,0.0
-51.0,-18.0,41.0,27.0,-9.0,-1.0,-69.0,-21.0,-66.0,-22.0,0.0
-31.0,-18.0,37.0,1.0,-16.0,-7.0,-62.0,-28.0,-63.0,-20.0,0.0
-8.0,-18.0,30.0,4.0,-19.0,1.0,-56.0,-36.0,-49.0,-19.0,0.0
-1.0,-10.0,11.0,0.0,-17.0,5.0,-42.0,-16.0,-26.0,-28.0,0.0
-4.0,-10.0,-15.0,-3.0,-16.0,1.0,-32.0,-9.0,-5.0,-27.0,0.0
-25.0,-14.0,3.0,-14.0,-21.0,12.0,-27.0,-13.0,-1.0,-31.0,0.0
-38.0,-2.0,16.0,-12.0,-5.0,11.0,-9.0,0.0,10.0,-16.0,0.0
-28.0,-3.0,18.0,-7.0,4.0,0.0,19.0,16.0,32.0,0.0,0.0
-24.0,25.0,7.0,15.0,0.0,-4.0,38.0,30.0,58.0,33.0,0.0
-16.0,50.0,11.0,9.0,11.0,0.0,40.0,32.0,61.0,49.0,0.0
3.0,33.0,11.0,-3.0,-7.0,0.0,23.0,18.0,54.0,39.0,0.0
31.0,30.0,9.0,0.0,-18.0,-8.0,1.0,16.0,34.0,33.0,0.0
51.0,49.0,-31.0,-10.0,-23.0,-12.0,-18.0,9.0,11.0,16.0,0.0
36.0,42.0,-71.0,-9.0,-18.0,1.0,-34.0,8.0,-18.0,-13.0,0.0
5.0,-5.0,1.0,3.0,10.0,23.0,-26.0,21.0,-27.0,-44.0,0.0
0.0,-22.0,5.0,5.0,8.0,16.0,-20.0,25.0,-19.0,-55.0,0.0
11.0,-21.0,-4.0,-6.0,-4.0,4.0,-23.0,18.0,-20.0,-42.0,0.0
11.0,-16.0,13.0,-2.0,0.0,1.0,-17.0,18.0,-32.0,-29.0,0.0
5.0,-18.0,2.0,-4.0,2.0,1.0,-14.0,19.0,-39.0,-18.0,0.0
9.0,-17.0,0.0,-5.0,1.0,1.0,-17.0,12.0,-30.0,-25.0,0.0
17.0,-5.0,13.0,-16.0,2.0,-7.0,-16.0,-2.0,-37.0,-14.0,0.0
12.0,-16.0,3.0,-14.0,5.0,-9.0,-15.0,-9.0,-51.0,-1.0,0.0
8.0,-13.0,-3.0,-9.0,-3.0,-6.0,-8.0,-4.0,-38.0,13.0,0.0
18.0,-21.0,-2.0,-12.0,-2.0,3.0,-6.0,0.0,-31.0,12.0,0.0
15.0,5.0,3.0,-3.0,0.0,4.0,-7.0,-3.0,-32.0,-1.0,0.0
6.0,20.0,17.0,8.0,4.0,10.0,-9.0,-5.0,-32.0,-1.0,0.0
16.0,11.0,10.0,2.0,-9.0,5.0,-9.0,-4.0,-22.0,5.0,0.0
25.0,9.0,7.0,4.0,-7.0,-1.0,-7.0,6.0,-7.0,7.0,0.0
36.0,-1.0,-1.0,11.0,0.0,-1.0,-4.0,5.0,23.0,13.0,0.0
33.0,4.0,-16.0,12.0,-9.0,-6.0,2.0,3.0,46.0,18.0,0.0
36.0,26.0,-1.0,-2.0,-20.0,-9.0,19.0,13.0,43.0,26.0,0.0
33.0,5.0,-6.0,-8.0,-2.0,6.0,33.0,8.0,53.0,10.0,0.0
16.0,-5.0,-10.0,-2.0,61.0,26.0,16.0,-1.0,42.0,-1.0,0.0
7.0,10.0,-1.0,5.0,60.0,14.0,-7.0,-2.0,10.0,1.0,0.0
6.0,-1.0,12.0,-3.0,23.0,1.0,-1.0,6.0,13.0,0.0,0.0
12.0,-3.0,12.0,-8.0,9.0,-3.0,27.0,6.0,13.0,-2.0,0.0
8.0,-9.0,-28.0,-22.0,-14.0,-1.0,32.0,1.0,24.0,4.0,0.0
4.0,-8.0,-52.0,-23.0,-17.0,2.0,16.0,12.0,25.0,15.0,0.0
-6.0,-6.0,-15.0,-15.0,17.0,18.0,2.0,13.0,8.0,10.0,0.0
-14.0,-9.0,0.0,-8.0,41.0,24.0,6.0,9.0,-1.0,8.0,0.0
0.0,23.0,28.0,-7.0,24.0,13.0,-15.0,5.0,-9.0,3.0,0.0
11.0,46.0,49.0,14.0,24.0,-8.0,-17.0,-2.0,-30.0,-3.0,0.0
15.0,33.0,45.0,10.0,14.0,-23.0,-10.0,3.0,-21.0,1.0,0.0
26.0,4.0,21.0,0.0,-16.0,-24.0,2.0,10.0,-12.0,18.0,0.0
40.0,-16.0,2.0,-11.0,-41.0,-21.0,28.0,16.0,-22.0,27.0,0.0
22.0,-23.0,-23.0,-55.0,-35.0,-46.0,-169.0,-6.0,-428.0,25.0,0.0
16.0,-110.0,-27.0,-99.0,-39.0,-100.0,-345.0,-60.0,-867.0,6.0,0.0
10.0,-148.0,-31.0,-101.0,-37.0,-100.0,-367.0,-66.0,-892.0,6.0,0.0
-4.0,-179.0,-34.0,-131.0,-61.0,-126.0,-472.0,-98.0,-1135.0,17.0,0.0
-5.0,-168.0,-17.0,-108.0,-51.0,-117.0,-405.0,-95.0,-983.0,3.0,0.0
16.0,12.0,-1.0,29.0,-11.0,-1.0,32.0,-7.0,83.0,-3.0,0.0
20.0,50.0,-4.0,43.0,-3.0,25.0,123.0,9.0,265.0,-3.0,0.0
29.0,27.0,-3.0,32.0,-6.0,31.0,141.0,16.0,239.0,-5.0,0.0
47.0,35.0,1.0,31.0,0.0,34.0,127.0,8.0,218.0,12.0,0.0
56.0,47.0,-13.0,12.0,4.0,32.0,123.0,16.0,227.0,28.0,0.0
61.0,40.0,-12.0,15.0,21.0,34.0,126.0,28.0,224.0,31.0,0.0
67.0,33.0,-22.0,0.0,21.0,23.0,125.0,34.0,218.0,43.0,0.0
67.0,34.0,-58.0,-21.0,-17.0,11.0,116.0,35.0,223.0,49.0,0.0
49.0,40.0,-125.0,-36.0,-35.0,0.0,101.0,18.0,232.0,18.0,0.0
11.0,76.0,-69.0,-20.0,-16.0,13.0,103.0,21.0,231.0,-12.0,0.0
-51.0,64.0,11.0,0.0,2.0,32.0,126.0,36.0,224.0,-18.0,0.0
-63.0,49.0,14.0,9.0,27.0,45.0,133.0,41.0,224.0,-3.0,0.0
-32.0,87.0,19.0,14.0,28.0,28.0,111.0,36.0,200.0,17.0,0.0
0.0,113.0,27.0,14.0,6.0,16.0,73.0,24.0,177.0,-4.0,0.0
-4.0,123.0,51.0,39.0,17.0,25.0,46.0,9.0,161.0,-24.0,0.0
-12.0,133.0,95.0,72.0,13.0,29.0,36.0,5.0,146.0,-36.0,0.0
0.0,100.0,111.0,76.0,-5.0,18.0,27.0,-2.0,105.0,-35.0,0.0
20.0,21.0,65.0,51.0,-29.0,21.0,37.0,16.0,102.0,-5.0,0.0
7.0,-66.0,1.0,25.0,-33.0,55.0,77.0,47.0,131.0,12.0,0.0
-13.0,-104.0,14.0,36.0,33.0,71.0,82.0,46.0,118.0,-4.0,0.0
-37.0,-105.0,-11.0,41.0,108.0,59.0,49.0,23.0,76.0,-22.0,0.0
-49.0,-97.0,-78.0,31.0,76.0,44.0,40.0,18.0,60.0,-15.0,0.0
-54.0,-73.0,-136.0,67.0,67.0,29.0,27.0,12.0,55.0,-4.0,0.0
-51.0,-59.0,-123.0,77.0,66.0,29.0,14.0,0.0,44.0,6.0,0.0
-39.0,-17.0,-16.0,51.0,31.0,16.0,5.0,2.0,22.0,1.0,0.0
-60.0,2.0,74.0,42.0,20.0,10.0,0.0,14.0,15.0,-19.0,0.0
-60.0,1.0,84.0,36.0,26.0,-3.0,-14.0,-1.0,6.0,-37.0,0.0
-41.0,23.0,67.0,29.0,19.0,-12.0,-25.0,-13.0,6.0,-30.0,0.0
-9.0,12.0,49.0,14.0,9.0,-9.0,-24.0,-13.0,15.0,-23.0,0.0
10.0,-9.0,32.0,4.0,11.0,-3.0,-13.0,-8.0,4.0,-15.0,0.0
-10.0,10.0,21.0,-5.0,17.0,-9.0,-6.0,-9.0,9.0,-23.0,0.0
-44.0,9.0,31.0,-5.0,17.0,-16.0,1.0,-9.0,17.0,-17.0,0.0
-20.0,19.0,27.0,-1.0,11.0,-12.0,-1.0,-4.0,31.0,-20.0,0.0
15.0,33.0,28.0,6.0,-2.0,-4.0,23.0,-7.0,49.0,-4.0,0.0
19.0,40.0,19.0,4.0,5.0,-8.0,47.0,3.0,61.0,10.0,0.0
22.0,43.0,8.0,0.0,3.0,-7.0,71.0,2.0,67.0,12.0,0.0
38.0,24.0,8.0,-11.0,1.0,-6.0,44.0,3.0,66.0,15.0,0.0
63.0,16.0,4.0,-21.0,-5.0,-12.0,2.0,0.0,62.0,27.0,0.0
79.0,21.0,13.0,-15.0,-15.0,-25.0,-19.0,-12.0,56.0,36.0,0.0
-32.0,-91.0,-58.0,-83.0,-20.0,-64.0,-186.0,-34.0,-461.0,-5.0,0.0
-58.0,-138.0,-36.0,-90.0,-3.0,-66.0,-253.0,-44.0,-704.0,-20.0,0.0
-60.0,-159.0,-18.0,-86.0,-25.0,-105.0,-306.0,-66.0,-822.0,-30.0,0.0
-46.0,-133.0,-2.0,-74.0,-32.0,-106.0,-285.0,-61.0,-754.0,-26.0,0.0
-33.0,-60.0,9.0,-34.0,-9.0,-48.0,-112.0,-25.0,-298.0,-14.0,0.0
-26.0,39.0,20.0,9.0,14.0,13.0,74.0,22.0,188.0,-6.0,0.0
-28.0,69.0,-19.0,12.0,9.0,13.0,59.0,23.0,210.0,0.0,0.0
-19.0,72.0,-109.0,14.0,6.0,10.0,43.0,16.0,200.0,4.0,0.0
11.0,56.0,-65.0,16.0,-3.0,9.0,45.0,21.0,192.0,5.0,0.0
16.0,45.0,35.0,19.0,0.0,12.0,46.0,17.0,173.0,0.0,0.0
23.0,38.0,37.0,9.0,7.0,19.0,55.0,15.0,163.0,2.0,0.0
41.0,40.0,16.0,-6.0,5.0,23.0,54.0,27.0,153.0,0.0,0.0
39.0,22.0,9.0,-14.0,-4.0,28.0,44.0,28.0,138.0,2.0,0.0
29.0,7.0,-12.0,0.0,14.0,27.0,27.0,22.0,134.0,-5.0,0.0
29.0,26.0,-48.0,9.0,23.0,33.0,35.0,18.0,139.0,-9.0,0.0
22.0,29.0,-24.0,19.0,5.0,38.0,45.0,25.0,149.0,1.0,0.0
31.0,12.0,-40.0,12.0,6.0,31.0,40.0,26.0,165.0,8.0,0.0
31.0,19.0,-44.0,12.0,14.0,23.0,32.0,23.0,160.0,12.0,0.0
26.0,28.0,-33.0,5.0,7.0,18.0,32.0,12.0,150.0,7.0,0.0
16.0,32.0,-133.0,1.0,-5.0,13.0,38.0,13.0,144.0,-3.0,0.0
12.0,19.0,-152.0,7.0,-10.0,1.0,37.0,7.0,144.0,9.0,0.0
12.0,15.0,-126.0,1.0,-20.0,-1.0,28.0,1.0,124.0,22.0,0.0
5.0,27.0,-36.0,14.0,-24.0,-2.0,20.0,1.0,104.0,20.0,0.0
9.0,34.0,34.0,30.0,20.0,15.0,20.0,-9.0,77.0,14.0,0.0
21.0,13.0,27.0,28.0,51.0,23.0,22.0,-5.0,70.0,12.0,0.0
35.0,4.0,32.0,23.0,15.0,11.0,27.0,-1.0,58.0,8.0,0.0
51.0,24.0,33.0,18.0,-4.0,7.0,29.0,-5.0,44.0,0.0,0.0
53.0,40.0,35.0,13.0,-12.0,0.0,16.0,-10.0,29.0,-12.0,0.0
25.0,34.0,28.0,5.0,-5.0,-5.0,18.0,1.0,14.0,-14.0,0.0
24.0,13.0,10.0,0.0,-16.0,-15.0,12.0,3.0,6.0,-11.0,0.0
37.0,15.0,15.0,-6.0,-29.0,-20.0,-3.0,-8.0,10.0,-7.0,0.0
39.0,7.0,22.0,-5.0,-35.0,-14.0,-1.0,-4.0,3.0,-11.0,0.0
42.0,-4.0,13.0,-7.0,-31.0,2.0,19.0,11.0,-13.0,-15.0,0.0
36.0,0.0,-1.0,-14.0,-35.0,4.0,43.0,10.0,-9.0,-17.0,0.0
24.0,3.0,2.0,-10.0,-53.0,-2.0,54.0,0.0,-5.0,-12.0,0.0
27.0,7.0,24.0,-11.0,-67.0,0.0,50.0,-4.0,0.0,0.0,0.0
6.0,2.0,28.0,-12.0,-66.0,2.0,45.0,9.0,9.0,12.0,0.0
-15.0,-5.0,18.0,-11.0,-70.0,0.0,41.0,19.0,11.0,24.0,0.0
-18.0,-12.0,19.0,-23.0,-92.0,-25.0,11.0,11.0,-79.0,2.0,0.0
-22.0,-31.0,30.0,-25.0,-87.0,-36.0,-81.0,-11.0,-237.0,-21.0,0.0
-29.0,-11.0,16.0,0.0,-53.0,4.0,-16.0,3.0,-60.0,-23.0,0.0
-27.0,-17.0,4.0,2.0,5.0,22.0,2.0,9.0,-27.0,-15.0,0.0
-8.0,-17.0,-6.0,11.0,80.0,22.0,-7.0,10.0,-25.0,-4.0,0.0
-11.0,-13.0,-10.0,0.0,78.0,18.0,-17.0,12.0,-1.0,-7.0,0.0
-11.0,2.0,-2.0,2.0,27.0,0.0,-9.0,7.0,19.0,-3.0,0.0
-6.0,19.0,21.0,15.0,13.0,-6.0,1.0,-1.0,21.0,-4.0,0.0
-8.0,-41.0,26.0,-27.0,-28.0,-34.0,-107.0,-12.0,-268.0,-10.0,0.0
-29.0,-162.0,-33.0,-117.0,-35.0,-77.0,-351.0,-74.0,-836.0,1.0,0.0
-15.0,-171.0,-97.0,-102.0,-34.0,-81.0,-348.0,-69.0,-834.0,0.0,0.0
-7.0,-139.0,-101.0,-77.0,-28.0,-87.0,-307.0,-54.0,-712.0,-6.0,0.0
-6.0,-77.0,-13.0,-24.0,-16.0,-41.0,-126.0,-21.0,-274.0,-11.0,0.0
2.0,14.0,-11.0,27.0,0.0,12.0,73.0,21.0,205.0,15.0,0.0
15.0,41.0,7.0,34.0,-3.0,12.0,74.0,26.0,229.0,46.0,0.0
32.0,49.0,30.0,42.0,-2.0,0.0,63.0,5.0,191.0,38.0,0.0
54.0,49.0,44.0,27.0,-7.0,-6.0,48.0,-5.0,172.0,24.0,0.0
81.0,61.0,41.0,1.0,-20.0,-2.0,44.0,-4.0,152.0,23.0,0.0
89.0,77.0,23.0,-19.0,-35.0,-4.0,55.0,1.0,150.0,26.0,0.0
90.0,99.0,10.0,-25.0,-43.0,-2.0,62.0,14.0,152.0,25.0,0.0
108.0,131.0,-29.0,-11.0,-46.0,2.0,75.0,21.0,150.0,21.0,0.0
120.0,184.0,-76.0,-9.0,-23.0,25.0,92.0,17.0,155.0,21.0,0.0
112.0,144.0,-34.0,-33.0,-11.0,34.0,83.0,3.0,156.0,27.0,0.0
105.0,84.0,-55.0,-61.0,-33.0,4.0,56.0,-10.0,159.0,45.0,0.0
95.0,30.0,-55.0,-63.0,-36.0,-15.0,63.0,-14.0,185.0,72.0,0.0
47.0,-49.0,-56.0,-41.0,-13.0,1.0,85.0,10.0,213.0,75.0,0.0
-5.0,-67.0,-12.0,-11.0,24.0,27.0,82.0,13.0,185.0,11.0,0.0
-64.0,-57.0,25.0,20.0,50.0,35.0,79.0,21.0,140.0,-31.0,0.0
-113.0,-111.0,18.0,36.0,78.0,62.0,112.0,46.0,137.0,-32.0,0.0
-143.0,-162.0,2.0,43.0,106.0,85.0,133.0,62.0,160.0,-17.0,0.0
-135.0,-128.0,28.0,47.0,97.0,76.0,127.0,47.0,145.0,-29.0,0.0
-143.0,-72.0,44.0,55.0,62.0,42.0,101.0,35.0,102.0,-51.0,0.0
-144.0,-42.0,-22.0,66.0,30.0,12.0,61.0,23.0,68.0,-64.0,0.0
-113.0,-11.0,26.0,49.0,12.0,8.0,51.0,14.0,48.0,-60.0,0.0
-82.0,-13.0,82.0,29.0,-16.0,8.0,61.0,19.0,63.0,-51.0,0.0
-41.0,7.0,74.0,16.0,-37.0,7.0,90.0,31.0,64.0,-27.0,0.0
-18.0,-2.0,51.0,36.0,23.0,17.0,90.0,17.0,27.0,-14.0,0.0
-50.0,-19.0,37.0,67.0,149.0,31.0,52.0,-12.0,0.0,-44.0,0.0
-70.0,-16.0,32.0,61.0,129.0,28.0,36.0,-19.0,-17.0,-53.0,0.0
-65.0,-21.0,-10.0,36.0,51.0,29.0,39.0,-3.0,1.0,-36.0,0.0
-48.0,-6.0,-105.0,25.0,27.0,15.0,36.0,3.0,2.0,-12.0,0.0
-48.0,-6.0,-126.0,24.0,16.0,-3.0,7.0,-14.0,-7.0,-24.0,0.0
-62.0,-20.0,-130.0,22.0,1.0,-8.0,-43.0,-15.0,-11.0,-40.0,0.0
-59.0,-24.0,-109.0,27.0,0.0,-5.0,-44.0,-13.0,-19.0,-41.0,0.0
-28.0,-15.0,-52.0,23.0,7.0,-7.0,-43.0,-5.0,-19.0,-29.0,0.0
-16.0,-8.0,42.0,17.0,5.0,-5.0,-34.0,0.0,-1.0,-19.0,0.0
-13.0,-3.0,3.0,6.0,-1.0,0.0,-14.0,7.0,11.0,-6.0,0.0
-16.0,3.0,34.0,-5.0,0.0,-8.0,6.0,9.0,23.0,-5.0,0.0
-11.0,-17.0,78.0,-7.0,6.0,-16.0,-3.0,6.0,40.0,0.0,0.0
-11.0,10.0,71.0,-3.0,18.0,-15.0,-1.0,-4.0,54.0,17.0,0.0
19.0,-81.0,71.0,-69.0,-6.0,-72.0,-242.0,-52.0,-614.0,13.0,0.0
15.0,-124.0,26.0,-136.0,-51.0,-101.0,-401.0,-77.0,-903.0,19.0,0.0
16.0,-121.0,11.0,-134.0,-56.0,-97.0,-379.0,-65.0,-851.0,24.0,0.0
9.0,-81.0,2.0,-113.0,-54.0,-84.0,-328.0,-48.0,-736.0,23.0,0.0
17.0,-34.0,1.0,-88.0,-33.0,-39.0,-193.0,-30.0,-475.0,19.0,0.0
18.0,45.0,13.0,-14.0,9.0,56.0,133.0,30.0,261.0,20.0,0.0
23.0,64.0,11.0,3.0,-1.0,39.0,111.0,16.0,236.0,18.0,0.0
16.0,37.0,-38.0,4.0,-16.0,7.0,39.0,3.0,86.0,19.0,0.0
-3.0,-37.0,12.0,-41.0,-30.0,-59.0,-133.0,-35.0,-367.0,10.0,0.0
6.0,24.0,60.0,16.0,-17.0,-31.0,-11.0,-18.0,-57.0,1.0,0.0
55.0,103.0,89.0,52.0,-23.0,-5.0,65.0,-6.0,217.0,2.0,0.0
68.0,118.0,81.0,41.0,-50.0,-8.0,47.0,-9.0,207.0,13.0,0.0
71.0,110.0,58.0,24.0,-19.0,6.0,69.0,-16.0,188.0,11.0,0.0
52.0,84.0,32.0,23.0,29.0,20.0,75.0,-24.0,168.0,-10.0,0.0
45.0,88.0,21.0,12.0,19.0,21.0,69.0,-12.0,158.0,-8.0,0.0
33.0,98.0,38.0,22.0,2.0,9.0,60.0,-6.0,163.0,-4.0,0.0
17.0,82.0,42.0,33.0,2.0,0.0,54.0,-5.0,139.0,0.0,0.0
3.0,71.0,-37.0,35.0,16.0,4.0,49.0,-7.0,129.0,5.0,0.0
-15.0,40.0,-81.0,37.0,39.0,17.0,47.0,6.0,155.0,17.0,0.0
-36.0,-2.0,-6.0,31.0,42.0,18.0,47.0,30.0,192.0,15.0,0.0
-41.0,-12.0,18.0,20.0,35.0,14.0,51.0,37.0,189.0,2.0,0.0
-26.0,4.0,38.0,34.0,36.0,7.0,57.0,28.0,178.0,-5.0,0.0
-15.0,21.0,32.0,32.0,36.0,5.0,72.0,24.0,165.0,1.0,0.0
11.0,19.0,25.0,28.0,23.0,2.0,91.0,16.0,142.0,12.0,0.0
30.0,6.0,27.0,36.0,23.0,2.0,85.0,1.0,112.0,16.0,0.0
25.0,0.0,18.0,23.0,29.0,-5.0,62.0,-10.0,94.0,25.0,0.0
17.0,16.0,-26.0,9.0,22.0,-12.0,40.0,-15.0,102.0,18.0,0.0
15.0,20.0,19.0,11.0,17.0,-8.0,16.0,-13.0,87.0,15.0,0.0
-2.0,-4.0,37.0,11.0,14.0,1.0,-1.0,1.0,79.0,15.0,0.0
-16.0,-10.0,12.0,7.0,8.0,4.0,-3.0,7.0,78.0,13.0,0.0
-4.0,-4.0,9.0,0.0,-3.0,8.0,5.0,6.0,63.0,11.0,0.0
-5.0,-29.0,17.0,4.0,-10.0,7.0,2.0,3.0,40.0,-1.0,0.0
10.0,-10.0,16.0,6.0,-12.0,8.0,-5.0,-2.0,22.0,-8.0,0.0
36.0,22.0,-49.0,5.0,-9.0,-2.0,-14.0,-6.0,9.0,-4.0,0.0
43.0,22.0,-50.0,11.0,-13.0,-2.0,-24.0,-17.0,0.0,-9.0,0.0
33.0,-4.0,25.0,9.0,-6.0,-4.0,-22.0,-25.0,8.0,-10.0,0.0
33.0,2.0,34.0,-1.0,0.0,-6.0,-19.0,-24.0,10.0,-1.0,0.0
39.0,9.0,22.0,-12.0,-21.0,-8.0,-22.0,-13.0,11.0,1.0,0.0
27.0,-19.0,20.0,-8.0,-13.0,6.0,-11.0,-22.0,27.0,0.0,0.0
13.0,-38.0,27.0,0.0,11.0,15.0,1.0,-17.0,34.0,2.0,0.0
20.0,15.0,25.0,8.0,4.0,17.0,17.0,-13.0,33.0,14.0,0.0
7.0,-24.0,26.0,-30.0,2.0,-11.0,-80.0,-40.0,-204.0,12.0,0.0
-5.0,-101.0,32.0,-96.0,-23.0,-93.0,-325.0,-103.0,-780.0,-3.0,0.0
0.0,-163.0,-23.0,-127.0,-52.0,-110.0,-335.0,-87.0,-875.0,0.0,0.0
6.0,-192.0,-45.0,-165.0,-57.0,-143.0,-444.0,-110.0,-1119.0,-2.0,0.0
12.0,-174.0,-57.0,-171.0,-57.0,-149.0,-432.0,-107.0,-1085.0,10.0,0.0
-6.0,-7.0,-27.0,-43.0,-11.0,-14.0,29.0,0.0,19.0,24.0,0.0
-17.0,47.0,3.0,-10.0,10.0,10.0,96.0,17.0,192.0,24.0,0.0
-8.0,23.0,5.0,-33.0,13.0,-8.0,18.0,-1.0,-1.0,16.0,0.0
-3.0,-87.0,-1.0,-93.0,-22.0,-68.0,-207.0,-48.0,-555.0,4.0,0.0
-4.0,-98.0,-9.0,-81.0,-27.0,-55.0,-220.0,-60.0,-573.0,-7.0,0.0
7.0,50.0,-1.0,19.0,13.0,62.0,124.0,20.0,309.0,12.0,0.0
13.0,83.0,-2.0,18.0,10.0,79.0,151.0,27.0,364.0,18.0,0.0
15.0,84.0,5.0,26.0,12.0,69.0,152.0,31.0,354.0,7.0,0.0
11.0,84.0,16.0,38.0,15.0,56.0,148.0,26.0,334.0,3.0,0.0
8.0,84.0,22.0,49.0,24.0,41.0,118.0,19.0,273.0,6.0,0.0
12.0,64.0,26.0,58.0,19.0,26.0,92.0,5.0,233.0,-2.0,0.0
14.0,54.0,-25.0,62.0,9.0,17.0,82.0,-8.0,218.0,-11.0,0.0
2.0,57.0,-98.0,69.0,17.0,16.0,82.0,-8.0,203.0,-11.0,0.0
-7.0,40.0,-20.0,64.0,21.0,15.0,78.0,-7.0,208.0,-10.0,0.0
-17.0,42.0,55.0,49.0,18.0,19.0,81.0,-1.0,214.0,-8.0,0.0
-6.0,48.0,38.0,50.0,9.0,26.0,80.0,2.0,209.0,-1.0,0.0
5.0,48.0,31.0,27.0,10.0,35.0,85.0,4.0,196.0,1.0,0.0
12.0,46.0,29.0,12.0,11.0,28.0,70.0,9.0,160.0,-1.0,0.0
15.0,46.0,33.0,14.0,8.0,13.0,59.0,19.0,133.0,13.0,0.0
23.0,27.0,34.0,20.0,5.0,12.0,57.0,17.0,142.0,17.0,0.0
35.0,44.0,40.0,29.0,18.0,12.0,62.0,13.0,152.0,3.0,0.0
47.0,47.0,27.0,30.0,31.0,17.0,54.0,15.0,141.0,-6.0,0.0
66.0,38.0,20.0,23.0,34.0,16.0,65.0,12.0,126.0,4.0,0.0
74.0,47.0,14.0,12.0,9.0,14.0,79.0,10.0,134.0,2.0,0.0
88.0,85.0,10.0,3.0,-22.0,30.0,72.0,3.0,135.0,5.0,0.0
113.0,78.0,-5.0,-18.0,-31.0,39.0,74.0,12.0,138.0,20.0,0.0
128.0,114.0,-17.0,-48.0,-42.0,22.0,68.0,20.0,118.0,23.0,0.0
98.0,112.0,-8.0,-49.0,-45.0,3.0,33.0,0.0,80.0,-6.0,0.0
29.0,40.0,-11.0,-23.0,-18.0,12.0,0.0,-1.0,62.0,-15.0,0.0
-16.0,0.0,-9.0,-4.0,5.0,20.0,-12.0,-2.0,66.0,-6.0,0.0
-33.0,12.0,18.0,-3.0,-25.0,1.0,-13.0,-11.0,50.0,-12.0,0.0
-72.0,-22.0,11.0,0.0,-24.0,5.0,27.0,10.0,38.0,-12.0,0.0
-122.0,-100.0,-1.0,2.0,4.0,34.0,52.0,27.0,41.0,-17.0,0.0
-138.0,-105.0,11.0,8.0,25.0,40.0,51.0,42.0,46.0,-9.0,0.0
-138.0,-102.0,16.0,12.0,41.0,47.0,55.0,55.0,37.0,-13.0,0.0
-137.0,-77.0,16.0,18.0,43.0,47.0,56.0,56.0,27.0,-23.0,0.0
-115.0,-71.0,8.0,15.0,33.0,34.0,53.0,56.0,26.0,-18.0,0.0
-97.0,-53.0,16.0,16.0,26.0,17.0,21.0,47.0,35.0,-1.0,0.0
-75.0,-58.0,23.0,26.0,28.0,10.0,3.0,38.0,30.0,3.0,0.0
-61.0,-34.0,15.0,25.0,20.0,2.0,13.0,35.0,48.0,6.0,0.0
-27.0,-3.0,0.0,-4.0,-5.0,-28.0,15.0,23.0,38.0,5.0,0.0
-37.0,-22.0,-22.0,-20.0,17.0,-29.0,-43.0,-6.0,-164.0,-6.0,0.0
-53.0,-22.0,-25.0,-1.0,61.0,0.0,-30.0,-8.0,-134.0,-21.0,0.0
-16.0,-122.0,-28.0,-113.0,-42.0,-134.0,-330.0,-59.0,-830.0,13.0,0.0
-11.0,-133.0,-21.0,-122.0,-36.0,-148.0,-403.0,-79.0,-993.0,20.0,0.0
-5.0,-103.0,-33.0,-106.0,-29.0,-111.0,-357.0,-57.0,-793.0,7.0,0.0
-11.0,-128.0,-55.0,-105.0,-45.0,-112.0,-370.0,-67.0,-842.0,6.0,0.0
-18.0,-91.0,-35.0,-65.0,-42.0,-69.0,-203.0,-41.0,-518.0,11.0,0.0
-8.0,30.0,-20.0,25.0,-14.0,31.0,122.0,34.0,258.0,13.0,0.0
0.0,53.0,-47.0,31.0,-9.0,35.0,128.0,42.0,301.0,2.0,0.0
-3.0,64.0,-86.0,26.0,0.0,27.0,109.0,35.0,272.0,-4.0,0.0
-10.0,55.0,-22.0,25.0,-1.0,22.0,109.0,37.0,239.0,-6.0,0.0
-6.0,31.0,-4.0,17.0,-3.0,28.0,93.0,31.0,213.0,5.0,0.0
15.0,26.0,3.0,21.0,0.0,27.0,86.0,34.0,207.0,1.0,0.0
23.0,44.0,2.0,31.0,15.0,35.0,93.0,37.0,207.0,10.0,0.0
17.0,52.0,-50.0,24.0,24.0,30.0,68.0,38.0,210.0,14.0,0.0
5.0,69.0,-75.0,14.0,9.0,19.0,51.0,25.0,213.0,22.0,0.0
-10.0,88.0,35.0,41.0,14.0,21.0,47.0,10.0,203.0,9.0,0.0
7.0,82.0,-16.0,43.0,21.0,20.0,46.0,14.0,195.0,-6.0,0.0
18.0,65.0,-68.0,32.0,15.0,20.0,41.0,25.0,173.0,2.0,0.0
16.0,55.0,7.0,31.0,20.0,24.0,47.0,29.0,147.0,11.0,0.0
4.0,46.0,35.0,56.0,13.0,27.0,42.0,30.0,130.0,10.0,0.0
2.0,43.0,51.0,52.0,-6.0,21.0,36.0,26.0,117.0,-12.0,0.0
3.0,34.0,44.0,61.0,-14.0,9.0,33.0,20.0,93.0,-26.0,0.0
-4.0,12.0,15.0,66.0,-4.0,0.0,26.0,12.0,75.0,-19.0,0.0
-7.0,2.0,23.0,51.0,-8.0,-3.0,31.0,4.0,67.0,-8.0,0.0
-9.0,3.0,-17.0,32.0,-15.0,2.0,15.0,-3.0,52.0,-1.0,0.0
-15.0,14.0,-107.0,15.0,-11.0,0.0,14.0,-14.0,52.0,-4.0,0.0
-13.0,17.0,-27.0,13.0,-18.0,-6.0,15.0,-20.0,45.0,-7.0,0.0
-16.0,28.0,22.0,11.0,-24.0,-12.0,29.0,-23.0,26.0,-9.0,0.0
-9.0,34.0,19.0,15.0,-18.0,-18.0,12.0,-23.0,18.0,-14.0,0.0
-13.0,34.0,21.0,22.0,-16.0,-22.0,2.0,-15.0,12.0,-15.0,0.0
-15.0,9.0,-7.0,9.0,-16.0,-17.0,11.0,-17.0,21.0,-10.0,0.0
-5.0,6.0,24.0,11.0,-5.0,-24.0,21.0,-26.0,40.0,-8.0,0.0
1.0,2.0,33.0,6.0,4.0,-24.0,16.0,-20.0,53.0,-1.0,0.0
18.0,12.0,-11.0,15.0,0.0,-30.0,14.0,-10.0,53.0,-1.0,0.0
39.0,18.0,-9.0,26.0,4.0,-25.0,7.0,-15.0,50.0,-3.0,0.0
58.0,18.0,29.0,24.0,-1.0,-12.0,17.0,-16.0,47.0,3.0,0.0
68.0,20.0,26.0,7.0,-10.0,-11.0,33.0,3.0,58.0,14.0,0.0
73.0,30.0,30.0,0.0,-19.0,2.0,64.0,8.0,71.0,22.0,0.0
79.0,60.0,-1.0,2.0,-23.0,6.0,82.0,7.0,79.0,10.0,0.0
120.0,138.0,63.0,-3.0,-74.0,-24.0,59.0,5.0,70.0,4.0,0.0
45.0,31.0,52.0,0.0,-42.0,-19.0,-50.0,-17.0,-177.0,-33.0,0.0
32.0,-133.0,10.0,-84.0,-20.0,-85.0,-325.0,-81.0,-842.0,-24.0,0.0
-61.0,-211.0,-51.0,-120.0,53.0,-96.0,-299.0,-80.0,-708.0,-23.0,0.0
-3.0,-143.0,-36.0,-95.0,-9.0,-60.0,-219.0,-7.0,-556.0,20.0,0.0
8.0,-143.0,-38.0,-102.0,5.0,-94.0,-290.0,-52.0,-693.0,-3.0,0.0
-20.0,-118.0,-40.0,-77.0,22.0,-89.0,-266.0,-52.0,-615.0,-6.0,0.0
-26.0,-23.0,-84.0,-28.0,16.0,-39.0,-90.0,-8.0,-183.0,-15.0,0.0
-2.0,67.0,-72.0,21.0,8.0,15.0,97.0,29.0,278.0,-14.0,0.0
-19.0,39.0,44.0,44.0,31.0,33.0,116.0,38.0,300.0,-16.0,0.0
-47.0,-23.0,70.0,59.0,49.0,39.0,108.0,23.0,274.0,-30.0,0.0
-42.0,-48.0,60.0,65.0,53.0,41.0,66.0,15.0,252.0,-20.0,0.0
-43.0,-27.0,43.0,58.0,40.0,43.0,68.0,17.0,240.0,-21.0,0.0
-64.0,-32.0,44.0,53.0,24.0,35.0,69.0,26.0,241.0,-23.0,0.0
-59.0,-22.0,33.0,63.0,30.0,36.0,74.0,38.0,247.0,-32.0,0.0
-53.0,-19.0,12.0,60.0,42.0,44.0,93.0,46.0,232.0,-33.0,0.0
-48.0,-13.0,13.0,64.0,41.0,45.0,91.0,46.0,235.0,-16.0,0.0
-33.0,19.0,34.0,66.0,33.0,33.0,64.0,29.0,241.0,-12.0,0.0
-18.0,44.0,35.0,72.0,23.0,32.0,54.0,20.0,216.0,-15.0,0.0
-18.0,54.0,20.0,68.0,17.0,27.0,43.0,13.0,192.0,-9.0,0.0
-10.0,41.0,5.0,58.0,5.0,15.0,54.0,12.0,158.0,-2.0,0.0
0.0,12.0,12.0,47.0,-2.0,12.0,63.0,16.0,140.0,-17.0,0.0
9.0,1.0,-34.0,18.0,-6.0,14.0,51.0,25.0,130.0,-20.0,0.0
3.0,10.0,-54.0,4.0,0.0,30.0,37.0,25.0,121.0,-22.0,0.0
-12.0,15.0,-14.0,4.0,0.0,42.0,45.0,24.0,118.0,-6.0,0.0
-10.0,4.0,-10.0,5.0,-4.0,41.0,59.0,25.0,82.0,2.0,0.0
-3.0,0.0,-17.0,-4.0,-5.0,30.0,51.0,12.0,48.0,-3.0,0.0
13.0,9.0,-48.0,-12.0,-6.0,17.0,6.0,4.0,36.0,-3.0,0.0
10.0,19.0,-97.0,-18.0,-2.0,11.0,-32.0,1.0,38.0,5.0,0.0
8.0,28.0,-41.0,-17.0,-1.0,6.0,-26.0,-6.0,38.0,12.0,0.0
9.0,20.0,-20.0,-15.0,-8.0,5.0,-22.0,-5.0,28.0,21.0,0.0
1.0,4.0,-9.0,-17.0,-9.0,4.0,-20.0,0.0,23.0,13.0,0.0
6.0,0.0,-5.0,-8.0,-10.0,-7.0,-2.0,0.0,15.0,7.0,0.0
20.0,11.0,-32.0,1.0,-20.0,-14.0,-14.0,0.0,14.0,9.0,0.0
11.0,27.0,-72.0,2.0,-41.0,-7.0,-22.0,-1.0,15.0,10.0,0.0
5.0,31.0,-21.0,0.0,-54.0,-2.0,-9.0,-10.0,37.0,14.0,0.0
3.0,33.0,15.0,-11.0,-60.0,-7.0,-5.0,-14.0,50.0,16.0,0.0
3.0,45.0,28.0,-17.0,-75.0,-19.0,5.0,-6.0,63.0,24.0,0.0
3.0,45.0,15.0,-14.0,-41.0,-16.0,47.0,8.0,86.0,31.0,0.0
-12.0,30.0,-6.0,-19.0,47.0,22.0,53.0,14.0,76.0,15.0,0.0
6.0,30.0,-5.0,-33.0,74.0,39.0,41.0,7.0,73.0,16.0,0.0
45.0,27.0,-14.0,-38.0,34.0,27.0,11.0,4.0,63.0,27.0,0.0
49.0,26.0,-20.0,-33.0,-24.0,-11.0,-42.0,-13.0,-23.0,38.0,0.0
47.0,8.0,-19.0,-68.0,-49.0,-35.0,-150.0,-19.0,-245.0,36.0,0.0
33.0,-33.0,-18.0,-98.0,-57.0,-81.0,-264.0,-44.0,-509.0,34.0,0.0
28.0,-83.0,-104.0,-129.0,-62.0,-127.0,-393.0,-99.0,-848.0,14.0,0.0
30.0,11.0,-149.0,-31.0,-1.0,-11.0,-69.0,-27.0,-71.0,-3.0,0.0
0.0,-30.0,-63.0,-9.0,23.0,28.0,9.0,11.0,108.0,8.0,0.0
-44.0,-59.0,-52.0,2.0,33.0,29.0,42.0,34.0,143.0,20.0,0.0
-39.0,-33.0,-52.0,9.0,36.0,17.0,45.0,28.0,155.0,4.0,0.0
-30.0,-22.0,10.0,21.0,25.0,17.0,46.0,23.0,156.0,-6.0,0.0
-20.0,-7.0,33.0,34.0,10.0,16.0,57.0,24.0,144.0,0.0,0.0
-8.0,19.0,54.0,41.0,10.0,8.0,44.0,20.0,121.0,-8.0,0.0
-18.0,29.0,62.0,35.0,-3.0,5.0,37.0,12.0,100.0,-15.0,0.0
-35.0,-14.0,22.0,23.0,-18.0,6.0,21.0,7.0,78.0,-14.0,0.0
-58.0,-68.0,-46.0,0.0,-23.0,21.0,36.0,8.0,88.0,6.0,0.0
-43.0,-71.0,-29.0,-7.0,-24.0,24.0,54.0,16.0,88.0,27.0,0.0
-17.0,-38.0,-7.0,-4.0,-31.0,4.0,52.0,14.0,55.0,14.0,0.0
-22.0,-16.0,-1.0,-21.0,-31.0,6.0,40.0,10.0,39.0,10.0,0.0
-29.0,-40.0,-5.0,-7.0,-19.0,28.0,51.0,25.0,36.0,12.0,0.0
-57.0,-188.0,-2.0,-40.0,-13.0,-79.0,-272.0,-46.0,-735.0,-17.0,0.0
-52.0,-199.0,-33.0,-52.0,-6.0,-102.0,-317.0,-63.0,-859.0,-12.0,0.0
-46.0,-152.0,-125.0,-54.0,-11.0,-87.0,-285.0,-69.0,-793.0,-5.0,0.0
-23.0,-82.0,-44.0,-13.0,-2.0,-28.0,-104.0,-35.0,-358.0,-3.0,0.0
-16.0,1.0,45.0,41.0,4.0,30.0,97.0,20.0,144.0,-8.0,0.0
-10.0,26.0,49.0,44.0,9.0,43.0,129.0,38.0,201.0,-16.0,0.0
-15.0,23.0,29.0,30.0,14.0,45.0,110.0,41.0,218.0,-18.0,0.0
-15.0,24.0,2.0,24.0,18.0,35.0,109.0,24.0,204.0,-19.0,0.0
-13.0,26.0,25.0,20.0,21.0,21.0,95.0,27.0,165.0,-14.0,0.0
-21.0,14.0,33.0,19.0,15.0,13.0,62.0,25.0,141.0,-15.0,0.0
-19.0,10.0,37.0,16.0,10.0,4.0,50.0,14.0,134.0,-15.0,0.0
5.0,28.0,39.0,15.0,8.0,13.0,32.0,2.0,134.0,-23.0,0.0
5.0,30.0,-9.0,9.0,8.0,21.0,9.0,9.0,137.0,-18.0,0.0
5.0,13.0,-15.0,11.0,12.0,15.0,12.0,5.0,146.0,-8.0,0.0
17.0,12.0,19.0,17.0,7.0,5.0,42.0,12.0,139.0,0.0,0.0
12.0,25.0,-78.0,17.0,11.0,4.0,55.0,7.0,105.0,3.0,0.0
6.0,14.0,-90.0,9.0,5.0,-2.0,30.0,3.0,97.0,2.0,0.0
18.0,-2.0,15.0,8.0,-3.0,1.0,24.0,4.0,99.0,1.0,0.0
29.0,8.0,41.0,0.0,0.0,-6.0,35.0,4.0,98.0,10.0,0.0
27.0,14.0,36.0,2.0,7.0,-5.0,34.0,12.0,101.0,15.0,0.0
26.0,2.0,16.0,0.0,7.0,8.0,54.0,10.0,107.0,18.0,0.0
16.0,13.0,-29.0,-2.0,18.0,17.0,68.0,14.0,105.0,17.0,0.0
15.0,31.0,15.0,-7.0,18.0,17.0,42.0,9.0,97.0,19.0,0.0
43.0,35.0,10.0,-11.0,2.0,-13.0,-10.0,4.0,44.0,24.0,0.0
40.0,22.0,-28.0,-27.0,0.0,-28.0,-99.0,-21.0,-175.0,4.0,0.0
20.0,-50.0,34.0,-91.0,-16.0,-110.0,-365.0,-80.0,-811.0,-7.0,0.0
-1.0,-120.0,76.0,-133.0,-46.0,-168.0,-526.0,-127.0,-1185.0,-1.0,0.0
-8.0,-145.0,30.0,-124.0,-43.0,-141.0,-453.0,-107.0,-1023.0,0.0,0.0
-4.0,-7.0,19.0,-7.0,21.0,-4.0,-6.0,-17.0,30.0,0.0,0.0
-11.0,43.0,-47.0,8.0,37.0,2.0,53.0,-10.0,217.0,20.0,0.0
21.0,63.0,-81.0,4.0,7.0,0.0,49.0,-15.0,228.0,35.0,0.0
79.0,78.0,23.0,7.0,-9.0,19.0,59.0,-12.0,228.0,44.0,0.0
120.0,85.0,87.0,10.0,-7.0,22.0,40.0,6.0,172.0,47.0,0.0
91.0,72.0,101.0,8.0,-10.0,22.0,37.0,22.0,135.0,38.0,0.0
61.0,75.0,88.0,16.0,-14.0,16.0,50.0,18.0,148.0,50.0,0.0
11.0,72.0,62.0,27.0,23.0,21.0,60.0,3.0,150.0,36.0,0.0
-50.0,29.0,25.0,10.0,57.0,31.0,92.0,6.0,172.0,59.0,0.0
-72.0,-16.0,-3.0,-27.0,32.0,22.0,94.0,15.0,163.0,47.0,0.0
-97.0,-56.0,-6.0,-42.0,1.0,13.0,87.0,15.0,126.0,2.0,0.0
-137.0,-75.0,5.0,-27.0,10.0,23.0,88.0,0.0,100.0,-41.0,0.0
-107.0,-43.0,18.0,-15.0,19.0,17.0,72.0,-10.0,91.0,-56.0,0.0
-33.0,44.0,33.0,-1.0,8.0,19.0,26.0,-13.0,63.0,-47.0,0.0
24.0,93.0,41.0,2.0,-11.0,10.0,4.0,-13.0,37.0,-46.0,0.0
-13.0,-244.0,6.0,-98.0,2.0,-76.0,-314.0,-49.0,-825.0,-16.0,0.0
13.0,-229.0,-150.0,-97.0,-18.0,-80.0,-242.0,-29.0,-701.0,-6.0,0.0
9.0,-147.0,-82.0,-45.0,1.0,-28.0,-81.0,1.0,-261.0,-4.0,0.0
3.0,-107.0,11.0,-22.0,4.0,0.0,-31.0,24.0,-126.0,-9.0,0.0
12.0,-151.0,4.0,-75.0,-30.0,-44.0,-228.0,-17.0,-583.0,-7.0,0.0
13.0,-65.0,-5.0,-24.0,-1.0,44.0,-3.0,29.0,-13.0,-1.0,0.0
0.0,-18.0,-5.0,2.0,11.0,82.0,139.0,65.0,303.0,-7.0,0.0
-9.0,-22.0,4.0,-3.0,3.0,66.0,143.0,58.0,283.0,-21.0,0.0
-16.0,-14.0,-8.0,-3.0,12.0,49.0,133.0,40.0,269.0,-25.0,0.0
-15.0,10.0,1.0,13.0,11.0,46.0,123.0,40.0,267.0,-18.0,0.0
-10.0,15.0,26.0,21.0,10.0,46.0,108.0,36.0,250.0,-29.0,0.0
-8.0,19.0,45.0,28.0,28.0,53.0,117.0,21.0,236.0,-47.0,0.0
-16.0,22.0,54.0,48.0,34.0,48.0,141.0,21.0,224.0,-54.0,0.0
2.0,23.0,35.0,41.0,24.0,32.0,140.0,12.0,218.0,-58.0,0.0
14.0,47.0,25.0,36.0,19.0,21.0,132.0,6.0,198.0,-39.0,0.0
6.0,39.0,30.0,44.0,18.0,21.0,118.0,4.0,166.0,-35.0,0.0
7.0,40.0,44.0,54.0,21.0,27.0,109.0,18.0,139.0,-33.0,0.0
11.0,55.0,43.0,55.0,22.0,30.0,92.0,14.0,119.0,-25.0,0.0
20.0,46.0,72.0,44.0,26.0,27.0,52.0,3.0,116.0,-10.0,0.0
17.0,30.0,69.0,45.0,33.0,24.0,28.0,0.0,103.0,-18.0,0.0
18.0,50.0,46.0,38.0,32.0,17.0,23.0,-8.0,99.0,-10.0,0.0
27.0,60.0,25.0,16.0,24.0,16.0,32.0,-1.0,98.0,7.0,0.0
16.0,28.0,11.0,11.0,13.0,3.0,46.0,-2.0,61.0,5.0,0.0
0.0,-44.0,-12.0,-60.0,-15.0,-51.0,-190.0,-53.0,-415.0,-16.0,0.0
-15.0,-66.0,-27.0,-77.0,-29.0,-63.0,-252.0,-67.0,-551.0,-20.0,0.0
0.0,-83.0,-41.0,-99.0,-49.0,-80.0,-314.0,-82.0,-699.0,-4.0,0.0
6.0,-36.0,-4.0,-59.0,-21.0,-41.0,-173.0,-54.0,-351.0,17.0,0.0
6.0,30.0,2.0,0.0,-1.0,7.0,27.0,-2.0,147.0,23.0,0.0
4.0,49.0,2.0,12.0,-10.0,3.0,65.0,4.0,208.0,17.0,0.0
10.0,68.0,8.0,13.0,-2.0,2.0,94.0,10.0,209.0,16.0,0.0
7.0,78.0,7.0,6.0,9.0,3.0,84.0,16.0,165.0,12.0,0.0
11.0,54.0,1.0,7.0,2.0,4.0,61.0,11.0,119.0,13.0,0.0
14.0,34.0,-15.0,15.0,-3.0,0.0,52.0,9.0,113.0,22.0,0.0
18.0,38.0,-9.0,17.0,-16.0,-1.0,62.0,3.0,116.0,19.0,0.0
18.0,50.0,0.0,17.0,-4.0,9.0,51.0,5.0,123.0,28.0,0.0
9.0,52.0,-8.0,9.0,-4.0,5.0,43.0,6.0,129.0,18.0,0.0
8.0,43.0,-2.0,9.0,-11.0,0.0,40.0,-8.0,135.0,18.0,0.0
1.0,34.0,-1.0,14.0,-1.0,-2.0,41.0,-10.0,140.0,19.0,0.0
0.0,24.0,-76.0,14.0,-1.0,-2.0,31.0,-13.0,104.0,28.0,0.0
0.0,20.0,-78.0,2.0,-20.0,0.0,18.0,-29.0,68.0,11.0,0.0
18.0,-110.0,6.0,-115.0,-69.0,-137.0,-383.0,-91.0,-865.0,7.0,0.0
5.0,-131.0,1.0,-122.0,-60.0,-149.0,-390.0,-100.0,-923.0,13.0,0.0
2.0,-149.0,-20.0,-127.0,-51.0,-150.0,-396.0,-112.0,-946.0,2.0,0.0
4.0,-120.0,-32.0,-108.0,-37.0,-118.0,-366.0,-110.0,-806.0,8.0,0.0
18.0,15.0,12.0,-8.0,-4.0,-11.0,-86.0,-42.0,-58.0,14.0,0.0
28.0,63.0,20.0,21.0,-9.0,24.0,54.0,0.0,285.0,20.0,0.0
33.0,33.0,2.0,5.0,-13.0,30.0,87.0,5.0,286.0,22.0,0.0
34.0,31.0,-16.0,7.0,-2.0,23.0,116.0,7.0,279.0,17.0,0.0
27.0,57.0,-15.0,21.0,-4.0,22.0,110.0,13.0,265.0,5.0,0.0
7.0,80.0,-10.0,23.0,-14.0,23.0,92.0,16.0,271.0,4.0,0.0
-3.0,77.0,-98.0,31.0,-25.0,15.0,79.0,24.0,270.0,13.0,0.0
-5.0,70.0,-145.0,24.0,-54.0,11.0,77.0,18.0,241.0,8.0,0.0
14.0,42.0,-80.0,29.0,-64.0,19.0,75.0,9.0,217.0,4.0,0.0
20.0,21.0,19.0,18.0,-64.0,23.0,71.0,19.0,203.0,3.0,0.0
13.0,17.0,24.0,-8.0,-79.0,12.0,76.0,32.0,199.0,6.0,0.0
10.0,16.0,19.0,-11.0,-71.0,30.0,70.0,37.0,173.0,18.0,0.0
-6.0,6.0,22.0,12.0,-20.0,43.0,66.0,26.0,159.0,19.0,0.0
-27.0,-1.0,26.0,20.0,35.0,40.0,48.0,26.0,160.0,9.0,0.0
-32.0,27.0,39.0,35.0,50.0,20.0,37.0,12.0,150.0,-9.0,0.0
-31.0,59.0,60.0,45.0,42.0,8.0,22.0,10.0,141.0,-33.0,0.0
-21.0,82.0,70.0,41.0,24.0,11.0,31.0,11.0,142.0,-29.0,0.0
0.0,104.0,72.0,41.0,12.0,10.0,51.0,3.0,144.0,-16.0,0.0
16.0,109.0,56.0,29.0,4.0,-2.0,48.0,7.0,148.0,-8.0,0.0
35.0,114.0,50.0,7.0,-12.0,-3.0,40.0,-5.0,128.0,-32.0,0.0
-60.0,-110.0,-20.0,-29.0,-28.0,-14.0,-70.0,3.0,-153.0,-7.0,0.0
-118.0,-220.0,-22.0,-75.0,-40.0,-48.0,-208.0,-11.0,-560.0,-1.0,0.0
-128.0,-187.0,-1.0,-33.0,-28.0,-27.0,-106.0,3.0,-378.0,-9.0,0.0
-104.0,-160.0,4.0,-44.0,-46.0,-46.0,-110.0,-6.0,-401.0,-13.0,0.0
-64.0,-37.0,24.0,0.0,-30.0,6.0,101.0,39.0,94.0,-3.0,0.0
-63.0,-13.0,18.0,32.0,28.0,20.0,126.0,29.0,137.0,-1.0,0.0
-60.0,-9.0,9.0,30.0,98.0,16.0,112.0,-2.0,117.0,-18.0,0.0
-47.0,-10.0,0.0,21.0,71.0,13.0,115.0,0.0,134.0,-10.0,0.0
-35.0,-6.0,-6.0,11.0,35.0,18.0,115.0,22.0,139.0,-7.0,0.0
-26.0,6.0,-7.0,0.0,17.0,26.0,135.0,17.0,139.0,-2.0,0.0
-16.0,-16.0,-11.0,-4.0,12.0,15.0,134.0,15.0,145.0,0.0,0.0
-10.0,-20.0,-28.0,2.0,17.0,10.0,138.0,26.0,161.0,-9.0,0.0
-15.0,-25.0,-32.0,0.0,8.0,17.0,135.0,27.0,161.0,-19.0,0.0
0.0,-9.0,-31.0,-12.0,-1.0,14.0,116.0,21.0,140.0,-12.0,0.0
21.0,-5.0,-24.0,-27.0,-7.0,11.0,89.0,17.0,113.0,-23.0,0.0
30.0,14.0,-11.0,-33.0,-11.0,2.0,69.0,6.0,97.0,-26.0,0.0
56.0,48.0,2.0,-25.0,-18.0,-3.0,58.0,-5.0,77.0,-3.0,0.0
65.0,43.0,-56.0,-8.0,-27.0,5.0,28.0,5.0,62.0,8.0,0.0
85.0,-77.0,0.0,-62.0,-36.0,-95.0,-356.0,-99.0,-831.0,11.0,0.0
63.0,-96.0,36.0,-91.0,-29.0,-111.0,-411.0,-102.0,-1010.0,9.0,0.0
22.0,-100.0,25.0,-73.0,-29.0,-98.0,-333.0,-74.0,-816.0,0.0,0.0
9.0,-133.0,16.0,-82.0,-27.0,-108.0,-372.0,-85.0,-875.0,-6.0,0.0
-2.0,-143.0,8.0,-69.0,-6.0,-73.0,-331.0,-62.0,-711.0,3.0,0.0
-26.0,-19.0,33.0,41.0,37.0,27.0,11.0,17.0,141.0,-1.0,0.0
-36.0,42.0,49.0,81.0,11.0,30.0,78.0,6.0,304.0,-16.0,0.0
-47.0,50.0,42.0,88.0,-10.0,25.0,86.0,-8.0,295.0,-31.0,0.0
-40.0,54.0,38.0,81.0,-7.0,35.0,83.0,0.0,289.0,-15.0,0.0
-39.0,61.0,44.0,84.0,0.0,30.0,84.0,5.0,283.0,-11.0,0.0
-36.0,47.0,34.0,77.0,-9.0,30.0,84.0,3.0,257.0,-17.0,0.0
-29.0,26.0,19.0,67.0,-9.0,27.0,75.0,1.0,204.0,-7.0,0.0
-11.0,19.0,15.0,41.0,-7.0,27.0,60.0,-3.0,173.0,-10.0,0.0
19.0,30.0,12.0,22.0,-6.0,18.0,59.0,0.0,184.0,-9.0,0.0
40.0,31.0,1.0,29.0,5.0,23.0,60.0,5.0,196.0,-4.0,0.0
36.0,29.0,-17.0,31.0,11.0,22.0,63.0,17.0,192.0,2.0,0.0
34.0,45.0,3.0,28.0,6.0,18.0,59.0,15.0,190.0,11.0,0.0
27.0,57.0,25.0,31.0,12.0,25.0,57.0,18.0,187.0,14.0,0.0
33.0,39.0,17.0,29.0,16.0,14.0,51.0,12.0,177.0,7.0,0.0
20.0,25.0,13.0,14.0,6.0,6.0,29.0,0.0,123.0,0.0,0.0
13.0,30.0,23.0,10.0,5.0,3.0,12.0,2.0,92.0,6.0,0.0
14.0,43.0,20.0,7.0,6.0,7.0,16.0,6.0,90.0,8.0,0.0
4.0,18.0,-2.0,-1.0,14.0,31.0,39.0,29.0,123.0,3.0,0.0
-4.0,-47.0,-10.0,-64.0,9.0,-42.0,-178.0,-41.0,-422.0,17.0,0.0
-2.0,-68.0,-12.0,-77.0,2.0,-54.0,-174.0,-37.0,-483.0,10.0,0.0
8.0,-30.0,-17.0,-38.0,10.0,-9.0,-26.0,5.0,-158.0,5.0,0.0
9.0,-79.0,-18.0,-76.0,-10.0,-66.0,-183.0,-44.0,-562.0,-4.0,0.0
7.0,3.0,-1.0,-16.0,0.0,-17.0,-45.0,-13.0,-133.0,5.0,0.0
8.0,30.0,0.0,19.0,-1.0,25.0,57.0,19.0,193.0,-2.0,0.0
0.0,29.0,-11.0,25.0,-5.0,42.0,64.0,18.0,210.0,-1.0,0.0
-4.0,55.0,-83.0,32.0,2.0,50.0,84.0,17.0,203.0,11.0,0.0
0.0,71.0,-127.0,23.0,-2.0,37.0,102.0,22.0,194.0,21.0,0.0
10.0,45.0,-38.0,17.0,-6.0,33.0,99.0,24.0,175.0,7.0,0.0
5.0,38.0,5.0,30.0,52.0,68.0,73.0,25.0,171.0,0.0,0.0
13.0,29.0,-25.0,23.0,48.0,62.0,55.0,29.0,178.0,5.0,0.0
29.0,19.0,-93.0,16.0,20.0,41.0,53.0,38.0,175.0,5.0,0.0
55.0,30.0,-15.0,6.0,-2.0,31.0,47.0,28.0,154.0,8.0,0.0
63.0,38.0,21.0,-11.0,-27.0,22.0,43.0,24.0,133.0,7.0,0.0
49.0,31.0,14.0,-25.0,-33.0,10.0,33.0,23.0,121.0,3.0,0.0
47.0,18.0,3.0,-32.0,-35.0,0.0,22.0,11.0,107.0,0.0,0.0
3.0,17.0,14.0,8.0,33.0,44.0,69.0,10.0,88.0,-2.0,0.0
-25.0,-195.0,-5.0,-109.0,-18.0,-102.0,-378.0,-69.0,-955.0,-1.0,0.0
-9.0,-93.0,0.0,-76.0,-13.0,-54.0,-276.0,-42.0,-684.0,34.0,0.0
-13.0,-85.0,-15.0,-62.0,-18.0,-80.0,-275.0,-59.0,-727.0,23.0,0.0
-13.0,-38.0,16.0,-8.0,0.0,-26.0,-98.0,-34.0,-305.0,4.0,0.0
-9.0,-68.0,10.0,-22.0,-12.0,-35.0,-123.0,-35.0,-363.0,6.0,0.0
1.0,-70.0,-6.0,-36.0,-23.0,-32.0,-135.0,-25.0,-388.0,12.0,0.0
20.0,34.0,4.0,27.0,-7.0,35.0,124.0,26.0,259.0,24.0,0.0
36.0,20.0,9.0,20.0,-10.0,25.0,122.0,29.0,294.0,35.0,0.0
38.0,6.0,-59.0,10.0,-28.0,28.0,105.0,40.0,279.0,27.0,0.0
8.0,-3.0,-30.0,12.0,-24.0,34.0,102.0,41.0,258.0,9.0,0.0
-13.0,-13.0,-10.0,20.0,0.0,37.0,108.0,22.0,235.0,-12.0,0.0
-36.0,3.0,-1.0,26.0,26.0,39.0,109.0,18.0,217.0,-33.0,0.0
-57.0,-14.0,-26.0,32.0,47.0,41.0,108.0,8.0,200.0,-56.0,0.0
-50.0,5.0,-75.0,32.0,50.0,46.0,100.0,10.0,192.0,-50.0,0.0
-20.0,32.0,-3.0,30.0,63.0,66.0,105.0,14.0,198.0,-21.0,0.0
-8.0,0.0,7.0,26.0,37.0,50.0,107.0,15.0,187.0,-22.0,0.0
-9.0,-6.0,12.0,31.0,13.0,24.0,101.0,16.0,182.0,-19.0,0.0
-12.0,0.0,17.0,53.0,15.0,20.0,101.0,17.0,187.0,-10.0,0.0
-25.0,20.0,10.0,50.0,29.0,21.0,94.0,28.0,189.0,4.0,0.0
-4.0,26.0,9.0,34.0,19.0,23.0,60.0,32.0,185.0,15.0,0.0
28.0,15.0,0.0,25.0,18.0,20.0,39.0,22.0,152.0,11.0,0.0
49.0,34.0,-2.0,15.0,17.0,6.0,26.0,14.0,120.0,19.0,0.0
65.0,55.0,11.0,2.0,3.0,4.0,16.0,10.0,107.0,19.0,0.0
37.0,54.0,-20.0,-27.0,-25.0,-17.0,-16.0,6.0,-5.0,-17.0,0.0
4.0,-95.0,-79.0,-112.0,-53.0,-115.0,-354.0,-81.0,-808.0,-41.0,0.0
-5.0,-162.0,-68.0,-137.0,-46.0,-145.0,-479.0,-124.0,-1088.0,-33.0,0.0
12.0,-90.0,-14.0,-73.0,-35.0,-83.0,-257.0,-73.0,-579.0,-8.0,0.0
34.0,-10.0,-11.0,-15.0,-17.0,-21.0,-30.0,-12.0,-42.0,14.0,0.0
42.0,6.0,-20.0,5.0,7.0,20.0,60.0,29.0,237.0,30.0,0.0
22.0,24.0,-18.0,8.0,15.0,30.0,64.0,31.0,236.0,14.0,0.0
2.0,30.0,-45.0,27.0,22.0,28.0,98.0,20.0,214.0,-5.0,0.0
-2.0,53.0,-83.0,39.0,25.0,9.0,86.0,4.0,176.0,-25.0,0.0
-23.0,79.0,-25.0,36.0,45.0,-3.0,67.0,-11.0,138.0,-39.0,0.0
-19.0,50.0,53.0,26.0,37.0,10.0,79.0,0.0,159.0,-10.0,0.0
-8.0,9.0,33.0,22.0,34.0,36.0,99.0,26.0,183.0,32.0,0.0
-20.0,-8.0,39.0,35.0,48.0,51.0,98.0,41.0,173.0,13.0,0.0
-35.0,-2.0,50.0,39.0,60.0,43.0,89.0,37.0,155.0,-16.0,0.0
-38.0,-31.0,33.0,30.0,41.0,17.0,95.0,33.0,151.0,-25.0,0.0
-45.0,-25.0,2.0,21.0,26.0,0.0,94.0,25.0,147.0,-17.0,0.0
-60.0,-23.0,2.0,16.0,7.0,2.0,95.0,31.0,150.0,4.0,0.0
-69.0,-1.0,28.0,41.0,-1.0,-3.0,57.0,-11.0,133.0,-28.0,0.0
17.0,-69.0,0.0,-90.0,-35.0,-120.0,-357.0,-99.0,-857.0,15.0,0.0
43.0,-97.0,-7.0,-99.0,-38.0,-98.0,-280.0,-63.0,-729.0,17.0,0.0
79.0,-24.0,-22.0,-56.0,-23.0,-59.0,-109.0,-29.0,-286.0,11.0,0.0
97.0,20.0,-33.0,-41.0,-19.0,-32.0,-7.0,-1.0,-34.0,29.0,0.0
75.0,-38.0,-26.0,-58.0,-35.0,-68.0,-139.0,-34.0,-352.0,37.0,0.0
57.0,32.0,-12.0,7.0,-17.0,-5.0,36.0,2.0,129.0,34.0,0.0
43.0,61.0,-46.0,20.0,-10.0,4.0,51.0,14.0,247.0,29.0,0.0
20.0,56.0,8.0,33.0,4.0,4.0,42.0,20.0,247.0,14.0,0.0
-16.0,59.0,64.0,38.0,0.0,-2.0,49.0,10.0,247.0,-2.0,0.0
-44.0,36.0,68.0,53.0,-8.0,-1.0,47.0,-1.0,221.0,-16.0,0.0
-65.0,2.0,68.0,64.0,-13.0,12.0,42.0,3.0,209.0,-11.0,0.0
-48.0,15.0,59.0,58.0,-21.0,28.0,52.0,14.0,219.0,-7.0,0.0
-30.0,41.0,59.0,40.0,-16.0,25.0,62.0,17.0,220.0,2.0,0.0
-28.0,33.0,-4.0,44.0,38.0,17.0,49.0,-2.0,191.0,-23.0,0.0
-23.0,17.0,-61.0,55.0,65.0,18.0,35.0,-3.0,169.0,-28.0,0.0
-30.0,9.0,34.0,61.0,40.0,15.0,32.0,19.0,167.0,4.0,0.0
-39.0,19.0,79.0,53.0,17.0,9.0,32.0,25.0,157.0,20.0,0.0
-44.0,5.0,75.0,52.0,14.0,20.0,27.0,13.0,132.0,1.0,0.0
-64.0,-5.0,52.0,50.0,38.0,41.0,35.0,14.0,106.0,-12.0,0.0
-54.0,-19.0,24.0,31.0,43.0,32.0,32.0,14.0,88.0,-13.0,0.0
-47.0,-9.0,11.0,22.0,31.0,12.0,40.0,17.0,75.0,-2.0,0.0
-31.0,4.0,15.0,27.0,17.0,0.0,47.0,13.0,66.0,-8.0,0.0
-7.0,12.0,18.0,21.0,-6.0,9.0,36.0,2.0,44.0,-17.0,0.0
10.0,-17.0,-28.0,-1.0,-21.0,-20.0,-44.0,-12.0,-109.0,-13.0,0.0
14.0,-65.0,-19.0,-53.0,-30.0,-67.0,-214.0,-52.0,-539.0,2.0,0.0
19.0,-34.0,-2.0,-38.0,-36.0,-52.0,-149.0,-41.0,-390.0,6.0,0.0
16.0,-53.0,-2.0,-54.0,-49.0,-65.0,-194.0,-56.0,-485.0,2.0,0.0
5.0,13.0,-6.0,-1.0,-33.0,-9.0,-13.0,-14.0,-28.0,4.0,0.0
26.0,42.0,-7.0,22.0,-11.0,12.0,72.0,8.0,149.0,8.0,0.0
35.0,53.0,-8.0,23.0,-9.0,8.0,50.0,10.0,110.0,13.0,0.0
42.0,50.0,14.0,11.0,-8.0,5.0,22.0,9.0,74.0,7.0,0.0
46.0,31.0,24.0,-1.0,-17.0,3.0,15.0,17.0,71.0,4.0,0.0
47.0,15.0,24.0,1.0,-17.0,-1.0,12.0,19.0,91.0,3.0,0.0
56.0,26.0,10.0,21.0,-8.0,9.0,12.0,19.0,93.0,6.0,0.0
51.0,38.0,-57.0,19.0,-4.0,14.0,24.0,18.0,102.0,14.0,0.0
30.0,46.0,-62.0,9.0,-2.0,18.0,39.0,16.0,123.0,17.0,0.0
31.0,43.0,-67.0,11.0,5.0,38.0,37.0,13.0,110.0,24.0,0.0
16.0,18.0,-38.0,11.0,-12.0,45.0,21.0,9.0,74.0,11.0,0.0
10.0,18.0,1.0,9.0,-24.0,40.0,11.0,13.0,51.0,5.0,0.0
5.0,19.0,-5.0,10.0,-12.0,39.0,8.0,6.0,38.0,18.0,0.0
-3.0,-8.0,13.0,-21.0,-16.0,19.0,-22.0,-7.0,-19.0,9.0,0.0
5.0,-80.0,13.0,-89.0,-46.0,-74.0,-261.0,-77.0,-617.0,2.0,0.0
25.0,-118.0,-36.0,-94.0,-45.0,-80.0,-361.0,-82.0,-864.0,4.0,0.0
22.0,-74.0,-4.0,-70.0,-30.0,-54.0,-265.0,-70.0,-645.0,10.0,0.0
4.0,-104.0,4.0,-74.0,-47.0,-50.0,-293.0,-80.0,-702.0,6.0,0.0
7.0,-48.0,7.0,-47.0,-24.0,-13.0,-150.0,-49.0,-354.0,4.0,0.0
4.0,-32.0,10.0,-34.0,-17.0,-8.0,-67.0,-34.0,-193.0,15.0,0.0
-10.0,-19.0,5.0,-26.0,-8.0,-17.0,-38.0,-39.0,-188.0,25.0,0.0
-9.0,57.0,-4.0,26.0,25.0,39.0,157.0,10.0,290.0,20.0,0.0
-24.0,38.0,-42.0,24.0,27.0,40.0,144.0,23.0,328.0,-3.0,0.0
-31.0,40.0,-21.0,26.0,21.0,37.0,111.0,20.0,305.0,-9.0,0.0
-19.0,64.0,19.0,42.0,25.0,48.0,97.0,13.0,299.0,-10.0,0.0
-8.0,66.0,22.0,55.0,18.0,49.0,91.0,25.0,306.0,-10.0,0.0
21.0,55.0,15.0,48.0,17.0,44.0,125.0,23.0,298.0,-5.0,0.0
22.0,48.0,15.0,39.0,12.0,33.0,130.0,29.0,275.0,-5.0,0.0
5.0,29.0,18.0,39.0,14.0,29.0,100.0,15.0,238.0,-8.0,0.0
9.0,16.0,19.0,36.0,10.0,31.0,71.0,8.0,214.0,6.0,0.0
10.0,22.0,21.0,35.0,6.0,34.0,61.0,18.0,199.0,34.0,0.0
-6.0,36.0,-20.0,27.0,0.0,21.0,61.0,34.0,188.0,30.0,0.0
-17.0,16.0,-26.0,28.0,-2.0,21.0,52.0,40.0,190.0,24.0,0.0
-28.0,-2.0,8.0,25.0,2.0,32.0,47.0,42.0,167.0,5.0,0.0
-43.0,-7.0,-12.0,10.0,4.0,24.0,55.0,40.0,142.0,-7.0,0.0
-53.0,1.0,-88.0,13.0,7.0,14.0,62.0,42.0,136.0,-9.0,0.0
-47.0,9.0,-40.0,18.0,15.0,12.0,57.0,37.0,114.0,-9.0,0.0
-31.0,14.0,-7.0,13.0,19.0,6.0,43.0,26.0,83.0,-2.0,0.0
-39.0,30.0,-33.0,16.0,19.0,8.0,39.0,28.0,69.0,14.0,0.0
-47.0,28.0,4.0,12.0,15.0,0.0,39.0,29.0,63.0,8.0,0.0
-43.0,16.0,7.0,14.0,26.0,-8.0,40.0,-7.0,-9.0,-5.0,0.0
-17.0,-4.0,0.0,-16.0,3.0,-28.0,-46.0,-24.0,-215.0,10.0,0.0
15.0,-48.0,8.0,-38.0,-21.0,-59.0,-152.0,-38.0,-466.0,19.0,0.0
23.0,-98.0,15.0,-60.0,-37.0,-79.0,-242.0,-66.0,-627.0,11.0,0.0
36.0,6.0,33.0,15.0,-10.0,-19.0,-15.0,-15.0,4.0,25.0,0.0
53.0,38.0,19.0,18.0,-8.0,-13.0,15.0,-11.0,91.0,46.0,0.0
46.0,38.0,3.0,7.0,-6.0,-3.0,34.0,-2.0,117.0,49.0,0.0
36.0,58.0,17.0,0.0,-19.0,-11.0,43.0,10.0,116.0,39.0,0.0
33.0,48.0,26.0,9.0,-30.0,-26.0,43.0,3.0,124.0,34.0,0.0
3.0,25.0,25.0,2.0,-25.0,-13.0,57.0,15.0,138.0,28.0,0.0
-26.0,0.0,5.0,2.0,-10.0,19.0,65.0,37.0,154.0,25.0,0.0
-37.0,24.0,11.0,12.0,8.0,33.0,74.0,49.0,153.0,8.0,0.0
-14.0,56.0,25.0,20.0,-1.0,41.0,74.0,56.0,136.0,15.0,0.0
24.0,67.0,17.0,-4.0,-59.0,24.0,50.0,46.0,131.0,21.0,0.0
34.0,83.0,-14.0,-25.0,-107.0,8.0,38.0,37.0,118.0,25.0,0.0
14.0,78.0,-42.0,-35.0,-85.0,6.0,42.0,27.0,113.0,6.0,0.0
2.0,49.0,-45.0,-22.0,59.0,20.0,38.0,3.0,78.0,-32.0,0.0
-17.0,22.0,-128.0,-16.0,134.0,20.0,13.0,-28.0,24.0,-41.0,0.0
0.0,23.0,-71.0,-23.0,74.0,-1.0,4.0,-33.0,4.0,-29.0,0.0
16.0,-26.0,-47.0,-9.0,38.0,0.0,2.0,-12.0,-3.0,-11.0,0.0
-20.0,-127.0,-35.0,-10.0,18.0,-7.0,-46.0,-2.0,-180.0,15.0,0.0
-41.0,-106.0,14.0,5.0,33.0,7.0,29.0,18.0,-43.0,40.0,0.0
-44.0,-88.0,25.0,13.0,28.0,8.0,71.0,25.0,65.0,35.0,0.0
-67.0,-122.0,-3.0,18.0,27.0,10.0,61.0,32.0,35.0,13.0,0.0
-79.0,-154.0,-78.0,-7.0,39.0,12.0,-26.0,17.0,-140.0,-4.0,0.0
-58.0,-94.0,-132.0,1.0,57.0,32.0,36.0,24.0,22.0,-5.0,0.0
-62.0,-75.0,-54.0,2.0,57.0,30.0,66.0,28.0,90.0,-5.0,0.0
-68.0,-69.0,-48.0,2.0,28.0,15.0,57.0,35.0,64.0,-15.0,0.0
-64.0,-88.0,-139.0,-13.0,-5.0,-12.0,-26.0,14.0,-111.0,-32.0,0.0
-40.0,-20.0,37.0,35.0,22.0,-15.0,-27.0,-7.0,-43.0,-45.0,0.0
-33.0,-87.0,63.0,-15.0,-10.0,-93.0,-266.0,-73.0,-626.0,-52.0,0.0
-27.0,-123.0,109.0,-15.0,-15.0,-122.0,-330.0,-100.0,-798.0,-43.0,0.0
-11.0,-72.0,105.0,20.0,-7.0,-94.0,-218.0,-87.0,-488.0,-31.0,0.0
10.0,0.0,30.0,37.0,1.0,-39.0,-66.0,-50.0,-122.0,-24.0,0.0
22.0,39.0,56.0,45.0,25.0,7.0,38.0,-7.0,122.0,-13.0,0.0
24.0,41.0,65.0,26.0,25.0,21.0,124.0,51.0,191.0,0.0,0.0
31.0,55.0,45.0,30.0,11.0,23.0,114.0,45.0,216.0,0.0,0.0
59.0,13.0,-20.0,-2.0,-16.0,9.0,57.0,26.0,119.0,11.0,0.0
80.0,-130.0,-105.0,-122.0,-76.0,-95.0,-292.0,-57.0,-760.0,14.0,0.0
90.0,-113.0,-39.0,-128.0,-72.0,-75.0,-255.0,-53.0,-746.0,25.0,0.0
117.0,36.0,-9.0,-23.0,-19.0,48.0,139.0,44.0,228.0,46.0,0.0
137.0,42.0,-11.0,-21.0,-24.0,42.0,129.0,38.0,246.0,42.0,0.0
142.0,55.0,-40.0,-16.0,-47.0,27.0,122.0,35.0,223.0,6.0,0.0
137.0,67.0,21.0,-19.0,-55.0,16.0,108.0,34.0,204.0,-21.0,0.0
79.0,57.0,53.0,-15.0,-60.0,11.0,97.0,33.0,191.0,-30.0,0.0
3.0,42.0,59.0,-3.0,-58.0,19.0,94.0,27.0,178.0,-28.0,0.0
-6.0,44.0,52.0,-4.0,-45.0,34.0,104.0,35.0,186.0,-17.0,0.0
18.0,42.0,-15.0,-4.0,-39.0,44.0,102.0,49.0,183.0,0.0,0.0
-18.0,-54.0,18.0,16.0,43.0,16.0,-21.0,3.0,-75.0,-23.0,0.0
-11.0,-4.0,42.0,41.0,66.0,28.0,39.0,6.0,88.0,-41.0,0.0
-18.0,0.0,45.0,23.0,68.0,7.0,-16.0,5.0,51.0,-22.0,0.0
-31.0,-92.0,33.0,-52.0,68.0,-77.0,-245.0,-40.0,-492.0,-4.0,0.0
-43.0,-38.0,55.0,-25.0,54.0,-47.0,-145.0,-15.0,-255.0,-15.0,0.0
-51.0,53.0,60.0,22.0,42.0,8.0,13.0,12.0,141.0,-31.0,0.0
-38.0,62.0,11.0,9.0,15.0,11.0,28.0,-4.0,158.0,-29.0,0.0
-15.0,39.0,-9.0,0.0,-16.0,-4.0,30.0,1.0,169.0,-5.0,0.0
-21.0,29.0,28.0,-11.0,-28.0,-14.0,29.0,1.0,157.0,9.0,0.0
-33.0,58.0,40.0,-6.0,-20.0,-11.0,22.0,-5.0,127.0,-10.0,0.0
-32.0,85.0,49.0,7.0,-4.0,0.0,11.0,-17.0,101.0,-36.0,0.0
-43.0,49.0,35.0,40.0,15.0,7.0,20.0,-21.0,96.0,-36.0,0.0
-77.0,0.0,-8.0,48.0,29.0,7.0,38.0,-13.0,95.0,-26.0,0.0
-75.0,-6.0,-59.0,27.0,12.0,12.0,57.0,-6.0,105.0,-17.0,0.0
-54.0,2.0,8.0,16.0,4.0,17.0,65.0,3.0,117.0,-21.0,0.0
-23.0,-11.0,-16.0,5.0,-6.0,27.0,65.0,18.0,121.0,-20.0,0.0
-12.0,0.0,-117.0,8.0,-3.0,39.0,57.0,14.0,113.0,-31.0,0.0
-19.0,18.0,-65.0,14.0,4.0,51.0,60.0,17.0,116.0,-29.0,0.0
-3.0,10.0,24.0,5.0,-16.0,45.0,38.0,14.0,121.0,-12.0,0.0
22.0,-5.0,7.0,-6.0,-30.0,22.0,9.0,11.0,119.0,-9.0,0.0
41.0,0.0,16.0,-2.0,-21.0,19.0,8.0,16.0,106.0,-5.0,0.0
39.0,-17.0,-5.0,-2.0,-13.0,16.0,14.0,15.0,87.0,2.0,0.0
32.0,-10.0,-9.0,-19.0,-17.0,9.0,7.0,16.0,72.0,-2.0,0.0
31.0,-12.0,22.0,-23.0,-18.0,-9.0,5.0,-3.0,36.0,1.0,0.0
25.0,2.0,15.0,-29.0,-18.0,-14.0,-5.0,-17.0,24.0,6.0,0.0
0.0,7.0,35.0,-19.0,5.0,5.0,-12.0,-8.0,10.0,0.0,0.0
0.0,-14.0,13.0,-44.0,-24.0,-42.0,-143.0,-40.0,-333.0,7.0,0.0
5.0,-82.0,14.0,-75.0,-42.0,-45.0,-222.0,-64.0,-521.0,7.0,0.0
11.0,-107.0,-44.0,-82.0,-54.0,-77.0,-282.0,-76.0,-645.0,2.0,0.0
20.0,-39.0,-92.0,-38.0,-34.0,-36.0,-118.0,-45.0,-251.0,5.0,0.0
18.0,-93.0,-7.0,-72.0,-50.0,-58.0,-212.0,-60.0,-487.0,8.0,0.0
25.0,33.0,-26.0,-10.0,-13.0,26.0,42.0,2.0,153.0,13.0,0.0
28.0,20.0,12.0,-6.0,-4.0,28.0,29.0,8.0,117.0,9.0,0.0
27.0,-19.0,37.0,-47.0,-6.0,-19.0,-130.0,-24.0,-295.0,27.0,0.0
22.0,-30.0,37.0,-43.0,-15.0,-34.0,-175.0,-41.0,-422.0,36.0,0.0
25.0,-94.0,30.0,-78.0,-48.0,-72.0,-265.0,-67.0,-694.0,18.0,0.0
17.0,-104.0,27.0,-67.0,-46.0,-69.0,-210.0,-72.0,-618.0,12.0,0.0
18.0,53.0,28.0,42.0,-2.0,38.0,150.0,12.0,272.0,18.0,0.0
23.0,71.0,21.0,40.0,6.0,53.0,173.0,21.0,309.0,15.0,0.0
21.0,51.0,-42.0,7.0,-8.0,47.0,158.0,16.0,290.0,20.0,0.0
20.0,28.0,-31.0,3.0,-26.0,31.0,130.0,9.0,272.0,24.0,0.0
15.0,39.0,6.0,7.0,-25.0,27.0,89.0,12.0,257.0,0.0,0.0
10.0,38.0,1.0,14.0,-31.0,31.0,72.0,15.0,245.0,-4.0,0.0
9.0,65.0,45.0,40.0,-24.0,20.0,91.0,18.0,188.0,-12.0,0.0
14.0,48.0,44.0,22.0,24.0,22.0,-7.0,-6.0,-42.0,-2.0,0.0
30.0,-45.0,38.0,-55.0,-31.0,-67.0,-282.0,-60.0,-683.0,4.0,0.0
38.0,-117.0,23.0,-98.0,-80.0,-132.0,-418.0,-94.0,-1023.0,19.0,0.0
27.0,-121.0,-35.0,-63.0,-65.0,-105.0,-297.0,-62.0,-688.0,28.0,0.0
11.0,4.0,-63.0,43.0,-3.0,38.0,126.0,49.0,316.0,39.0,0.0
2.0,0.0,5.0,55.0,5.0,74.0,160.0,59.0,365.0,25.0,0.0
-15.0,0.0,23.0,61.0,26.0,87.0,148.0,57.0,349.0,15.0,0.0
-14.0,11.0,27.0,45.0,34.0,72.0,129.0,60.0,344.0,7.0,0.0
-15.0,4.0,19.0,40.0,23.0,60.0,115.0,57.0,313.0,-4.0,0.0
-29.0,0.0,25.0,51.0,26.0,60.0,100.0,50.0,276.0,-20.0,0.0
-35.0,-11.0,23.0,46.0,41.0,55.0,87.0,33.0,239.0,-22.0,0.0
-26.0,16.0,16.0,24.0,43.0,25.0,79.0,19.0,220.0,-14.0,0.0
-18.0,32.0,21.0,18.0,33.0,5.0,63.0,12.0,193.0,-12.0,0.0
-13.0,34.0,17.0,23.0,21.0,1.0,75.0,5.0,177.0,-7.0,0.0
-8.0,44.0,15.0,11.0,3.0,2.0,78.0,4.0,169.0,-9.0,0.0
3.0,30.0,2.0,10.0,-1.0,-6.0,56.0,14.0,152.0,-7.0,0.0
6.0,-1.0,-9.0,0.0,9.0,-10.0,57.0,28.0,146.0,-7.0,0.0
2.0,-12.0,-19.0,2.0,16.0,-4.0,73.0,31.0,120.0,-2.0,0.0
-3.0,-30.0,-16.0,15.0,18.0,1.0,86.0,29.0,102.0,-4.0,0.0
-2.0,-12.0,-7.0,13.0,16.0,2.0,82.0,22.0,94.0,-5.0,0.0
3.0,-7.0,8.0,8.0,10.0,12.0,61.0,32.0,88.0,-14.0,0.0
0.0,-1.0,8.0,1.0,8.0,13.0,48.0,35.0,73.0,-12.0,0.0
-1.0,7.0,1.0,16.0,2.0,23.0,48.0,26.0,58.0,-12.0,0.0
-4.0,10.0,5.0,20.0,7.0,27.0,37.0,28.0,44.0,-7.0,0.0
-11.0,3.0,7.0,14.0,14.0,24.0,16.0,13.0,43.0,-5.0,0.0
-13.0,34.0,37.0,5.0,20.0,5.0,11.0,9.0,67.0,-2.0,0.0
-6.0,8.0,37.0,9.0,18.0,5.0,33.0,10.0,43.0,0.0,0.0
-5.0,-98.0,23.0,-69.0,-29.0,-81.0,-239.0,-66.0,-665.0,2.0,0.0
-16.0,-110.0,21.0,-83.0,-22.0,-108.0,-300.0,-92.0,-797.0,0.0,0.0
-20.0,-35.0,33.0,-19.0,-1.0,-53.0,-108.0,-43.0,-321.0,15.0,0.0
-47.0,16.0,26.0,-3.0,-14.0,-40.0,-27.0,-17.0,-86.0,11.0,0.0
-40.0,66.0,25.0,21.0,-3.0,-14.0,74.0,11.0,142.0,13.0,0.0
-41.0,-74.0,11.0,-84.0,-29.0,-105.0,-260.0,-56.0,-692.0,17.0,0.0
-39.0,-10.0,-15.0,-35.0,-18.0,-36.0,-70.0,-2.0,-216.0,12.0,0.0
-24.0,50.0,0.0,9.0,3.0,-3.0,59.0,16.0,135.0,9.0,0.0
-22.0,-44.0,15.0,-48.0,-9.0,-72.0,-169.0,-46.0,-446.0,16.0,0.0
-24.0,-43.0,5.0,-58.0,0.0,-73.0,-181.0,-50.0,-479.0,19.0,0.0
-17.0,57.0,-3.0,18.0,14.0,14.0,84.0,20.0,220.0,11.0,0.0
-21.0,64.0,-7.0,16.0,9.0,25.0,87.0,19.0,278.0,8.0,0.0
-26.0,53.0,0.0,3.0,3.0,40.0,85.0,22.0,275.0,4.0,0.0
-19.0,37.0,-10.0,0.0,-3.0,37.0,71.0,15.0,239.0,10.0,0.0
-21.0,36.0,-14.0,23.0,14.0,29.0,55.0,4.0,212.0,7.0,0.0
-9.0,45.0,13.0,25.0,30.0,15.0,66.0,2.0,198.0,24.0,0.0
0.0,21.0,8.0,2.0,12.0,-3.0,10.0,-11.0,-10.0,28.0,0.0
6.0,-57.0,-10.0,-64.0,-19.0,-75.0,-204.0,-36.0,-527.0,22.0,0.0
22.0,-59.0,-19.0,-87.0,-26.0,-85.0,-241.0,-42.0,-624.0,28.0,0.0
36.0,-11.0,-26.0,-31.0,-4.0,-31.0,-49.0,-10.0,-149.0,17.0,0.0
34.0,36.0,-33.0,21.0,7.0,26.0,110.0,34.0,294.0,6.0,0.0
37.0,42.0,-50.0,19.0,-9.0,23.0,110.0,41.0,291.0,4.0,0.0
51.0,65.0,-42.0,13.0,-17.0,14.0,109.0,44.0,284.0,17.0,0.0
76.0,102.0,-16.0,12.0,-23.0,5.0,93.0,35.0,281.0,23.0,0.0
105.0,138.0,-2.0,13.0,-24.0,-5.0,100.0,20.0,274.0,9.0,0.0
120.0,147.0,4.0,20.0,-30.0,0.0,105.0,9.0,260.0,6.0,0.0
120.0,135.0,-52.0,20.0,-29.0,7.0,106.0,21.0,244.0,17.0,0.0
122.0,109.0,-36.0,24.0,-38.0,-5.0,89.0,14.0,235.0,21.0,0.0
132.0,131.0,20.0,12.0,-68.0,-11.0,61.0,-9.0,201.0,25.0,0.0
116.0,129.0,33.0,21.0,-95.0,-8.0,28.0,-5.0,178.0,39.0,0.0
34.0,86.0,30.0,31.0,-47.0,14.0,29.0,2.0,165.0,22.0,0.0
-41.0,2.0,-75.0,41.0,81.0,44.0,46.0,25.0,146.0,7.0,0.0
-82.0,-24.0,-112.0,37.0,116.0,30.0,55.0,11.0,109.0,-28.0,0.0
-110.0,-9.0,9.0,32.0,29.0,9.0,42.0,19.0,85.0,-49.0,0.0
-136.0,-54.0,21.0,41.0,21.0,24.0,34.0,23.0,90.0,-66.0,0.0
-108.0,-51.0,26.0,47.0,37.0,25.0,24.0,14.0,73.0,-53.0,0.0
-89.0,-41.0,26.0,59.0,57.0,48.0,35.0,17.0,67.0,-26.0,0.0
-116.0,-42.0,29.0,74.0,82.0,75.0,39.0,23.0,68.0,-29.0,0.0
-137.0,-30.0,22.0,51.0,55.0,61.0,20.0,37.0,61.0,-28.0,0.0
-111.0,-44.0,3.0,8.0,10.0,32.0,14.0,26.0,50.0,-40.0,0.0
-40.0,-166.0,-5.0,-94.0,-10.0,-78.0,-327.0,-79.0,-840.0,-37.0,0.0
-20.0,-136.0,-4.0,-80.0,-14.0,-57.0,-304.0,-63.0,-719.0,-36.0,0.0
-16.0,-108.0,-1.0,-73.0,-17.0,-48.0,-299.0,-68.0,-688.0,-29.0,0.0
-21.0,-72.0,-5.0,-41.0,-25.0,-18.0,-140.0,-26.0,-338.0,-14.0,0.0
-21.0,-79.0,-5.0,-53.0,-33.0,-21.0,-128.0,-28.0,-373.0,-2.0,0.0
-7.0,40.0,10.0,13.0,15.0,71.0,130.0,43.0,267.0,-1.0,0.0
-12.0,18.0,25.0,26.0,25.0,63.0,116.0,35.0,225.0,-10.0,0.0
-21.0,-55.0,9.0,-43.0,9.0,0.0,-119.0,-20.0,-374.0,-14.0,0.0
-22.0,-71.0,0.0,-61.0,3.0,-28.0,-183.0,-35.0,-530.0,-31.0,0.0
-14.0,-113.0,-18.0,-87.0,-26.0,-60.0,-259.0,-60.0,-690.0,-26.0,0.0
-1.0,-125.0,-24.0,-84.0,-27.0,-70.0,-225.0,-60.0,-605.0,-14.0,0.0
16.0,43.0,-7.0,32.0,15.0,37.0,165.0,30.0,363.0,-3.0,0.0
23.0,67.0,-6.0,38.0,21.0,44.0,183.0,32.0,420.0,3.0,0.0
25.0,68.0,-10.0,37.0,20.0,42.0,170.0,33.0,398.0,9.0,0.0
28.0,59.0,-9.0,38.0,19.0,45.0,165.0,30.0,370.0,4.0,0.0
18.0,53.0,-16.0,32.0,23.0,50.0,148.0,29.0,360.0,11.0,0.0
23.0,42.0,-9.0,17.0,15.0,39.0,142.0,22.0,334.0,10.0,0.0
29.0,45.0,-57.0,19.0,16.0,29.0,122.0,28.0,294.0,14.0,0.0
59.0,45.0,-139.0,-2.0,4.0,11.0,-20.0,6.0,-55.0,22.0,0.0
60.0,50.0,-147.0,1.0,-11.0,3.0,9.0,3.0,28.0,30.0,0.0
57.0,26.0,-54.0,-1.0,-21.0,-18.0,-29.0,-8.0,-105.0,30.0,0.0
45.0,-29.0,-2.0,-42.0,-45.0,-63.0,-128.0,-36.0,-363.0,11.0,0.0
37.0,22.0,-1.0,-6.0,-31.0,-8.0,82.0,2.0,157.0,-9.0,0.0
39.0,29.0,15.0,2.0,-24.0,21.0,107.0,23.0,253.0,-12.0,0.0
48.0,35.0,25.0,25.0,-23.0,38.0,75.0,27.0,240.0,0.0,0.0
55.0,45.0,28.0,20.0,-29.0,41.0,74.0,25.0,241.0,20.0,0.0
63.0,64.0,28.0,12.0,-32.0,19.0,74.0,24.0,237.0,25.0,0.0
52.0,70.0,17.0,14.0,-40.0,14.0,56.0,17.0,243.0,15.0,0.0
30.0,58.0,4.0,-3.0,-47.0,11.0,42.0,16.0,240.0,20.0,0.0
-1.0,47.0,2.0,5.0,-18.0,24.0,49.0,12.0,211.0,11.0,0.0
-39.0,20.0,21.0,22.0,32.0,50.0,57.0,16.0,180.0,-17.0,0.0
-44.0,24.0,40.0,27.0,34.0,53.0,40.0,14.0,148.0,-20.0,0.0
-49.0,39.0,42.0,24.0,21.0,39.0,34.0,14.0,122.0,-13.0,0.0
-60.0,39.0,42.0,17.0,16.0,19.0,29.0,9.0,110.0,-15.0,0.0
-53.0,24.0,22.0,0.0,16.0,15.0,14.0,13.0,107.0,-1.0,0.0
-33.0,40.0,26.0,5.0,12.0,21.0,15.0,13.0,103.0,1.0,0.0
-34.0,53.0,31.0,9.0,14.0,28.0,17.0,5.0,71.0,-13.0,0.0
-41.0,45.0,18.0,3.0,20.0,17.0,-7.0,0.0,47.0,-8.0,0.0
-27.0,24.0,-2.0,-21.0,15.0,8.0,-5.0,0.0,42.0,1.0,0.0
-21.0,12.0,-44.0,-19.0,0.0,9.0,-17.0,0.0,40.0,12.0,0.0
-12.0,-10.0,-52.0,-12.0,6.0,4.0,-3.0,-8.0,53.0,20.0,0.0
27.0,9.0,-72.0,-23.0,8.0,-8.0,6.0,-3.0,-34.0,17.0,0.0
20.0,-89.0,-152.0,-101.0,-30.0,-86.0,-255.0,-76.0,-692.0,11.0,0.0
11.0,-109.0,-155.0,-108.0,-41.0,-98.0,-313.0,-87.0,-828.0,7.0,0.0
-36.0,-44.0,-78.0,-58.0,-20.0,-43.0,-178.0,-36.0,-440.0,12.0,0.0
-24.0,33.0,53.0,16.0,18.0,11.0,44.0,13.0,116.0,9.0,0.0
-18.0,24.0,51.0,-5.0,1.0,-4.0,4.0,-3.0,23.0,9.0,0.0
-10.0,-104.0,48.0,-61.0,-29.0,-71.0,-222.0,-65.0,-550.0,-3.0,0.0
24.0,-20.0,29.0,11.0,50.0,11.0,34.0,-10.0,38.0,2.0,0.0
13.0,-127.0,18.0,-55.0,15.0,-46.0,-183.0,-46.0,-447.0,10.0,0.0
12.0,-110.0,28.0,-37.0,2.0,-23.0,-140.0,-28.0,-294.0,-2.0,0.0
11.0,-88.0,21.0,-40.0,-16.0,-35.0,-142.0,-38.0,-359.0,-9.0,0.0
3.0,23.0,34.0,10.0,-7.0,4.0,61.0,-3.0,92.0,-17.0,0.0
5.0,49.0,44.0,28.0,-3.0,20.0,118.0,4.0,264.0,-15.0,0.0
18.0,51.0,46.0,31.0,-7.0,34.0,91.0,-3.0,263.0,-13.0,0.0
16.0,69.0,47.0,38.0,3.0,35.0,95.0,-5.0,263.0,-9.0,0.0
14.0,73.0,46.0,47.0,8.0,36.0,87.0,1.0,257.0,-10.0,0.0
26.0,46.0,40.0,42.0,-5.0,27.0,81.0,3.0,246.0,-14.0,0.0
29.0,14.0,-1.0,26.0,-1.0,7.0,91.0,13.0,256.0,22.0,0.0
-25.0,-30.0,-64.0,34.0,33.0,15.0,72.0,6.0,180.0,-8.0,0.0
-52.0,-119.0,32.0,-31.0,11.0,-39.0,-162.0,-39.0,-404.0,-20.0,0.0
-48.0,-96.0,48.0,-56.0,-6.0,-67.0,-222.0,-64.0,-558.0,-14.0,0.0
-36.0,-131.0,38.0,-75.0,-13.0,-97.0,-309.0,-77.0,-790.0,-16.0,0.0
-26.0,-140.0,39.0,-66.0,-9.0,-86.0,-238.0,-72.0,-698.0,-15.0,0.0
-12.0,12.0,47.0,50.0,23.0,35.0,144.0,26.0,276.0,0.0,0.0
-7.0,25.0,39.0,56.0,13.0,36.0,132.0,35.0,319.0,5.0,0.0
-12.0,4.0,24.0,45.0,17.0,25.0,128.0,35.0,296.0,-4.0,0.0
-22.0,-15.0,26.0,57.0,28.0,23.0,117.0,36.0,256.0,-7.0,0.0
-30.0,8.0,18.0,50.0,17.0,19.0,101.0,27.0,235.0,-3.0,0.0
-28.0,-6.0,-30.0,26.0,4.0,4.0,90.0,5.0,230.0,-5.0,0.0
-27.0,-8.0,-66.0,32.0,-4.0,9.0,81.0,5.0,213.0,-8.0,0.0
-13.0,-5.0,8.0,32.0,-3.0,4.0,100.0,7.0,184.0,-6.0,0.0
11.0,0.0,39.0,24.0,-14.0,-4.0,108.0,4.0,175.0,-4.0,0.0
35.0,36.0,25.0,18.0,-9.0,-7.0,81.0,-3.0,186.0,-3.0,0.0
50.0,66.0,23.0,7.0,-6.0,-14.0,65.0,-7.0,182.0,4.0,0.0
37.0,76.0,32.0,1.0,-12.0,-24.0,59.0,-6.0,168.0,13.0,0.0
39.0,87.0,36.0,13.0,-20.0,-25.0,46.0,-6.0,181.0,22.0,0.0
79.0,92.0,35.0,20.0,-22.0,-16.0,33.0,-14.0,192.0,37.0,0.0
108.0,78.0,28.0,26.0,-30.0,-17.0,25.0,-8.0,184.0,53.0,0.0
99.0,65.0,12.0,26.0,-21.0,3.0,27.0,-6.0,172.0,40.0,0.0
88.0,73.0,-26.0,26.0,17.0,14.0,37.0,-19.0,126.0,3.0,0.0
69.0,63.0,-85.0,11.0,7.0,10.0,72.0,-6.0,113.0,-1.0,0.0
5.0,45.0,-116.0,-38.0,-62.0,-11.0,94.0,24.0,114.0,-18.0,0.0
-105.0,-24.0,6.0,-25.0,-47.0,-4.0,79.0,24.0,57.0,-54.0,0.0
-113.0,-155.0,-2.0,-65.0,5.0,-63.0,-199.0,-31.0,-589.0,-61.0,0.0
-94.0,-166.0,-31.0,-82.0,15.0,-60.0,-271.0,-32.0,-721.0,-39.0,0.0
-50.0,-22.0,-113.0,-19.0,110.0,12.0,60.0,1.0,124.0,-61.0,0.0
-38.0,-94.0,-77.0,-43.0,55.0,-11.0,0.0,-2.0,-79.0,-49.0,0.0
-24.0,-176.0,-62.0,-105.0,4.0,-72.0,-251.0,-52.0,-697.0,-19.0,0.0
-58.0,14.0,10.0,14.0,90.0,37.0,78.0,21.0,194.0,-8.0,0.0
-64.0,-1.0,18.0,0.0,74.0,5.0,-37.0,6.0,-76.0,-12.0,0.0
-66.0,-85.0,42.0,-42.0,40.0,-65.0,-267.0,-50.0,-634.0,-25.0,0.0
-44.0,-98.0,66.0,-22.0,27.0,-81.0,-294.0,-62.0,-663.0,-7.0,0.0
-22.0,0.0,77.0,48.0,33.0,-37.0,-101.0,-24.0,-177.0,5.0,0.0
5.0,93.0,36.0,86.0,38.0,19.0,114.0,15.0,322.0,0.0,0.0
10.0,107.0,13.0,76.0,40.0,16.0,119.0,9.0,346.0,0.0,0.0
-1.0,78.0,38.0,68.0,40.0,20.0,113.0,6.0,344.0,-11.0,0.0
-4.0,33.0,14.0,40.0,23.0,24.0,110.0,23.0,332.0,-9.0,0.0
-26.0,18.0,13.0,37.0,6.0,18.0,103.0,29.0,308.0,-4.0,0.0
-31.0,15.0,14.0,46.0,-2.0,21.0,93.0,37.0,282.0,-6.0,0.0
-30.0,9.0,-22.0,45.0,-4.0,19.0,105.0,36.0,239.0,-9.0,0.0
-33.0,9.0,11.0,36.0,7.0,30.0,123.0,31.0,210.0,7.0,0.0
-20.0,37.0,18.0,37.0,23.0,29.0,75.0,36.0,172.0,16.0,0.0
-11.0,6.0,23.0,2.0,11.0,-6.0,-29.0,6.0,-39.0,8.0,0.0
2.0,-7.0,14.0,5.0,0.0,-6.0,-21.0,-2.0,-22.0,16.0,0.0
1.0,-114.0,0.0,-62.0,-37.0,-81.0,-277.0,-59.0,-664.0,9.0,0.0
0.0,-109.0,0.0,-81.0,-41.0,-88.0,-293.0,-66.0,-710.0,5.0,0.0
15.0,40.0,10.0,18.0,0.0,21.0,61.0,23.0,164.0,9.0,0.0
16.0,30.0,16.0,37.0,15.0,27.0,94.0,37.0,234.0,9.0,0.0
21.0,12.0,12.0,42.0,21.0,23.0,94.0,25.0,239.0,17.0,0.0
17.0,26.0,0.0,27.0,11.0,14.0,70.0,28.0,229.0,6.0,0.0
0.0,42.0,15.0,8.0,0.0,13.0,48.0,27.0,199.0,1.0,0.0
-5.0,34.0,11.0,5.0,-2.0,19.0,44.0,15.0,184.0,-4.0,0.0
-2.0,6.0,-6.0,9.0,-4.0,33.0,60.0,18.0,183.0,-9.0,0.0
-21.0,-4.0,-20.0,-3.0,-5.0,34.0,67.0,24.0,179.0,0.0,0.0
-9.0,14.0,-18.0,-9.0,-7.0,25.0,63.0,6.0,176.0,1.0,0.0
4.0,10.0,-17.0,-1.0,8.0,31.0,59.0,5.0,168.0,2.0,0.0
1.0,-3.0,-7.0,3.0,10.0,46.0,58.0,15.0,168.0,9.0,0.0
0.0,12.0,-32.0,9.0,9.0,40.0,69.0,15.0,166.0,18.0,0.0
14.0,27.0,-103.0,10.0,-1.0,30.0,64.0,11.0,148.0,25.0,0.0
22.0,22.0,-43.0,-3.0,-9.0,17.0,53.0,19.0,134.0,30.0,0.0
19.0,12.0,-3.0,-11.0,-17.0,16.0,39.0,19.0,116.0,33.0,0.0
29.0,24.0,7.0,-5.0,-25.0,1.0,23.0,11.0,91.0,24.0,0.0
21.0,43.0,23.0,-5.0,-24.0,-8.0,18.0,0.0,73.0,3.0,0.0
14.0,45.0,9.0,-6.0,-27.0,-7.0,9.0,-12.0,46.0,5.0,0.0
24.0,57.0,21.0,-7.0,-22.0,-10.0,33.0,-11.0,4.0,-3.0,0.0
6.0,-48.0,27.0,-24.0,-30.0,-39.0,-30.0,-23.0,-259.0,3.0,0.0
-3.0,-121.0,33.0,-71.0,-29.0,-80.0,-244.0,-88.0,-769.0,-4.0,0.0
17.0,-62.0,14.0,-34.0,-17.0,-31.0,-138.0,-58.0,-466.0,1.0,0.0
41.0,-23.0,-111.0,-51.0,-12.0,-6.0,-62.0,-32.0,-159.0,2.0,0.0
21.0,-55.0,-54.0,-52.0,5.0,-10.0,-78.0,-9.0,-160.0,20.0,0.0
2.0,-97.0,13.0,-58.0,-21.0,-21.0,-121.0,-2.0,-302.0,29.0,0.0
-30.0,-39.0,-26.0,-2.0,-8.0,16.0,61.0,28.0,106.0,-14.0,0.0
-42.0,-106.0,-46.0,-61.0,-46.0,-59.0,-159.0,-17.0,-416.0,-26.0,0.0
-47.0,-146.0,-42.0,-80.0,-60.0,-59.0,-204.0,-26.0,-561.0,-28.0,0.0
-49.0,-189.0,-15.0,-82.0,1.0,-41.0,-266.0,-46.0,-761.0,-38.0,0.0
-38.0,-178.0,-23.0,-52.0,31.0,-22.0,-265.0,-54.0,-696.0,-45.0,0.0
-23.0,-3.0,49.0,62.0,36.0,85.0,110.0,27.0,297.0,-23.0,0.0
-4.0,3.0,45.0,47.0,12.0,73.0,120.0,26.0,339.0,-2.0,0.0
0.0,13.0,17.0,41.0,21.0,53.0,136.0,22.0,301.0,-1.0,0.0
-1.0,13.0,8.0,38.0,8.0,42.0,120.0,15.0,253.0,-2.0,0.0
-8.0,10.0,33.0,32.0,-4.0,52.0,85.0,23.0,226.0,2.0,0.0
-4.0,3.0,34.0,28.0,-2.0,54.0,80.0,16.0,222.0,8.0,0.0
7.0,11.0,31.0,40.0,-13.0,35.0,118.0,28.0,249.0,10.0,0.0
17.0,-7.0,-1.0,27.0,-7.0,16.0,42.0,7.0,60.0,29.0,0.0
27.0,-101.0,-13.0,-13.0,2.0,-38.0,-179.0,-37.0,-453.0,22.0,0.0
44.0,-61.0,-3.0,-3.0,-9.0,-24.0,-112.0,-21.0,-288.0,36.0,0.0
42.0,-102.0,-13.0,-42.0,-37.0,-35.0,-172.0,-36.0,-480.0,39.0,0.0
37.0,-50.0,-32.0,-7.0,-14.0,29.0,40.0,19.0,-9.0,34.0,0.0
48.0,-6.0,-26.0,14.0,-4.0,55.0,194.0,56.0,338.0,35.0,0.0
46.0,26.0,-7.0,21.0,-12.0,43.0,211.0,48.0,353.0,21.0,0.0
6.0,28.0,5.0,28.0,-11.0,50.0,209.0,43.0,323.0,6.0,0.0
-31.0,37.0,13.0,27.0,7.0,63.0,198.0,41.0,290.0,6.0,0.0
-24.0,35.0,30.0,26.0,-12.0,41.0,150.0,28.0,255.0,7.0,0.0
-8.0,53.0,34.0,34.0,-22.0,13.0,106.0,16.0,215.0,-1.0,0.0
8.0,77.0,53.0,41.0,-28.0,-5.0,74.0,0.0,182.0,-5.0,0.0
18.0,60.0,57.0,41.0,-44.0,-13.0,40.0,-7.0,173.0,16.0,0.0
26.0,45.0,51.0,44.0,-26.0,-7.0,46.0,-9.0,162.0,33.0,0.0
36.0,37.0,18.0,24.0,43.0,6.0,44.0,-11.0,145.0,33.0,0.0
29.0,19.0,11.0,-11.0,34.0,2.0,39.0,-3.0,120.0,28.0,0.0
50.0,31.0,13.0,-17.0,-5.0,7.0,41.0,19.0,116.0,23.0,0.0
70.0,57.0,11.0,0.0,7.0,22.0,11.0,13.0,99.0,17.0,0.0
92.0,60.0,26.0,19.0,19.0,17.0,6.0,-10.0,76.0,0.0,0.0
111.0,41.0,18.0,23.0,10.0,0.0,10.0,-15.0,50.0,-4.0,0.0
89.0,32.0,6.0,26.0,34.0,-19.0,-4.0,-16.0,19.0,-14.0,0.0
41.0,-21.0,-41.0,18.0,72.0,-16.0,-20.0,0.0,30.0,-6.0,0.0
-10.0,-72.0,-57.0,35.0,69.0,3.0,0.0,21.0,48.0,0.0,0.0
-39.0,-46.0,-5.0,40.0,33.0,0.0,-2.0,15.0,31.0,-13.0,0.0
-58.0,-16.0,-5.0,27.0,14.0,-13.0,-3.0,9.0,33.0,-17.0,0.0
-78.0,-29.0,4.0,-12.0,-5.0,-57.0,-74.0,-14.0,-99.0,-27.0,0.0
-58.0,-33.0,0.0,-19.0,-21.0,-56.0,-70.0,-6.0,-110.0,-12.0,0.0
-51.0,-136.0,1.0,-87.0,-40.0,-123.0,-306.0,-67.0,-728.0,-18.0,0.0
-35.0,-36.0,0.0,-5.0,20.0,-16.0,-32.0,-2.0,-107.0,-4.0,0.0
-30.0,-97.0,0.0,-40.0,-8.0,-70.0,-190.0,-48.0,-509.0,1.0,0.0
-2.0,-34.0,-25.0,-29.0,-14.0,-20.0,-10.0,-5.0,-114.0,11.0,0.0
0.0,-150.0,-51.0,-118.0,-39.0,-117.0,-320.0,-78.0,-823.0,19.0,0.0
5.0,-163.0,-101.0,-132.0,-40.0,-136.0,-343.0,-78.0,-876.0,16.0,0.0
0.0,-129.0,-104.0,-113.0,-32.0,-120.0,-294.0,-69.0,-738.0,16.0,0.0
0.0,-110.0,-70.0,-98.0,-43.0,-97.0,-251.0,-61.0,-642.0,0.0,0.0
1.0,43.0,-42.0,21.0,-3.0,41.0,170.0,41.0,376.0,-7.0,0.0
4.0,60.0,-24.0,34.0,4.0,45.0,174.0,32.0,396.0,-10.0,0.0
4.0,47.0,-2.0,43.0,-1.0,35.0,162.0,23.0,357.0,-11.0,0.0
-6.0,61.0,28.0,47.0,3.0,22.0,132.0,5.0,317.0,-9.0,0.0
-6.0,55.0,35.0,37.0,1.0,22.0,126.0,12.0,290.0,-8.0,0.0
-13.0,56.0,32.0,42.0,0.0,13.0,105.0,8.0,266.0,-9.0,0.0
-21.0,41.0,17.0,73.0,-5.0,-19.0,57.0,-4.0,247.0,-5.0,0.0
-18.0,18.0,-1.0,7.0,-10.0,-30.0,-20.0,-2.0,22.0,-7.0,0.0
-15.0,-69.0,-23.0,-60.0,-41.0,-99.0,-225.0,-59.0,-529.0,-12.0,0.0
8.0,-9.0,-104.0,-33.0,-43.0,-64.0,-125.0,-19.0,-279.0,0.0,0.0
14.0,-36.0,-108.0,-41.0,-58.0,-63.0,-152.0,-22.0,-325.0,1.0,0.0
23.0,47.0,-10.0,15.0,-34.0,9.0,32.0,13.0,183.0,-2.0,0.0
22.0,70.0,-19.0,31.0,-36.0,22.0,70.0,32.0,313.0,-7.0,0.0
33.0,68.0,-36.0,32.0,-65.0,14.0,62.0,44.0,304.0,0.0,0.0
47.0,67.0,-24.0,34.0,-62.0,3.0,66.0,47.0,291.0,18.0,0.0
34.0,60.0,13.0,40.0,11.0,38.0,82.0,34.0,280.0,18.0,0.0
19.0,21.0,7.0,40.0,52.0,58.0,80.0,26.0,259.0,8.0,0.0
13.0,35.0,-4.0,22.0,25.0,43.0,74.0,13.0,244.0,3.0,0.0
2.0,66.0,-83.0,15.0,1.0,12.0,86.0,3.0,233.0,-15.0,0.0
-9.0,82.0,-112.0,23.0,-21.0,-3.0,83.0,0.0,206.0,-19.0,0.0
-1.0,63.0,-58.0,33.0,-31.0,0.0,77.0,-12.0,194.0,-5.0,0.0
-12.0,54.0,43.0,28.0,-36.0,4.0,65.0,-12.0,176.0,-5.0,0.0
-10.0,36.0,65.0,14.0,-29.0,-1.0,71.0,0.0,163.0,-5.0,0.0
-15.0,0.0,8.0,13.0,2.0,4.0,71.0,6.0,147.0,-10.0,0.0
-17.0,9.0,-86.0,23.0,37.0,9.0,55.0,11.0,122.0,-11.0,0.0
-7.0,4.0,-85.0,27.0,25.0,24.0,54.0,28.0,126.0,-10.0,0.0
-3.0,-5.0,-54.0,18.0,7.0,30.0,63.0,33.0,122.0,-8.0,0.0
-9.0,-15.0,48.0,10.0,14.0,34.0,58.0,25.0,103.0,-2.0,0.0
-11.0,-3.0,42.0,26.0,32.0,38.0,37.0,21.0,82.0,0.0,0.0
-12.0,-20.0,14.0,46.0,60.0,38.0,8.0,3.0,70.0,-1.0,0.0
-21.0,-35.0,61.0,33.0,109.0,40.0,-19.0,-4.0,53.0,-5.0,0.0
-26.0,-45.0,50.0,13.0,119.0,22.0,-31.0,-15.0,28.0,-26.0,0.0
-17.0,-18.0,59.0,0.0,39.0,22.0,-3.0,1.0,42.0,-23.0,0.0
-2.0,-8.0,48.0,-1.0,28.0,15.0,-8.0,2.0,-3.0,-11.0,0.0
-17.0,-9.0,42.0,-9.0,-4.0,-14.0,-59.0,-18.0,-98.0,-20.0,0.0
-14.0,-88.0,-7.0,-79.0,-26.0,-74.0,-281.0,-60.0,-640.0,-9.0,0.0
0.0,35.0,-4.0,-53.0,-23.0,15.0,72.0,14.0,77.0,16.0,0.0
0.0,-101.0,-16.0,-142.0,-53.0,-97.0,-270.0,-59.0,-761.0,17.0,0.0
15.0,-168.0,-13.0,-185.0,-59.0,-136.0,-400.0,-83.0,-1072.0,29.0,0.0
41.0,-37.0,-9.0,-103.0,-35.0,-44.0,-123.0,-12.0,-380.0,36.0,0.0
65.0,65.0,-4.0,-25.0,-18.0,28.0,99.0,30.0,194.0,39.0,0.0
50.0,65.0,8.0,-4.0,-1.0,39.0,126.0,32.0,257.0,28.0,0.0
26.0,48.0,9.0,-14.0,-11.0,43.0,125.0,35.0,234.0,9.0,0.0
1.0,18.0,-5.0,-10.0,-19.0,58.0,124.0,34.0,221.0,-12.0,0.0
-5.0,6.0,-8.0,1.0,-12.0,46.0,114.0,26.0,213.0,-16.0,0.0
-13.0,14.0,-10.0,-2.0,-14.0,32.0,107.0,25.0,200.0,-10.0,0.0
-3.0,28.0,4.0,6.0,-25.0,35.0,94.0,30.0,188.0,-18.0,0.0
8.0,71.0,35.0,14.0,-13.0,58.0,76.0,36.0,174.0,-33.0,0.0
13.0,95.0,56.0,19.0,-10.0,75.0,50.0,35.0,161.0,-48.0,0.0
52.0,126.0,126.0,56.0,-53.0,30.0,43.0,26.0,177.0,-38.0,0.0
48.0,98.0,122.0,40.0,-112.0,8.0,33.0,36.0,163.0,4.0,0.0
21.0,12.0,109.0,-23.0,-195.0,-24.0,-24.0,42.0,-26.0,53.0,0.0
-1.0,-35.0,108.0,-59.0,-233.0,-79.0,-116.0,22.0,-281.0,48.0,0.0
-45.0,-47.0,77.0,-26.0,-136.0,-70.0,-116.0,-11.0,-339.0,-8.0,0.0
-90.0,-37.0,35.0,67.0,95.0,42.0,57.0,-12.0,71.0,-62.0,0.0
-83.0,-46.0,3.0,92.0,265.0,54.0,22.0,-49.0,73.0,-84.0,0.0
-65.0,-39.0,-12.0,72.0,275.0,34.0,-11.0,-47.0,71.0,-72.0,0.0
-54.0,-17.0,2.0,41.0,204.0,19.0,-24.0,-25.0,64.0,-61.0,0.0
-52.0,-10.0,31.0,34.0,144.0,9.0,-16.0,-4.0,69.0,-40.0,0.0
-60.0,-4.0,27.0,20.0,85.0,14.0,13.0,24.0,85.0,-20.0,0.0
-66.0,-26.0,11.0,8.0,46.0,27.0,37.0,34.0,99.0,-11.0,0.0
-49.0,-20.0,2.0,-3.0,45.0,29.0,36.0,31.0,98.0,-21.0,0.0
-37.0,-8.0,5.0,5.0,58.0,36.0,36.0,28.0,77.0,-18.0,0.0
-40.0,5.0,13.0,0.0,63.0,32.0,43.0,20.0,81.0,-9.0,0.0
-22.0,23.0,8.0,-4.0,42.0,18.0,31.0,31.0,82.0,-14.0,0.0
10.0,29.0,-5.0,17.0,16.0,7.0,21.0,24.0,79.0,-11.0,0.0
4.0,7.0,-29.0,8.0,10.0,6.0,27.0,26.0,94.0,-3.0,0.0
-25.0,-4.0,-10.0,7.0,18.0,19.0,50.0,40.0,114.0,3.0,0.0
-29.0,-12.0,2.0,14.0,-1.0,30.0,49.0,34.0,107.0,3.0,0.0
-3.0,0.0,-24.0,10.0,-5.0,27.0,35.0,23.0,92.0,12.0,0.0
8.0,-10.0,-52.0,4.0,18.0,22.0,32.0,18.0,86.0,4.0,0.0
0.0,-13.0,1.0,-3.0,22.0,16.0,31.0,23.0,68.0,10.0,0.0
6.0,-5.0,10.0,-7.0,14.0,1.0,50.0,15.0,50.0,13.0,0.0
11.0,5.0,-2.0,8.0,-1.0,-7.0,40.0,9.0,45.0,13.0,0.0
13.0,-15.0,-1.0,7.0,-11.0,-14.0,31.0,3.0,40.0,9.0,0.0
-6.0,-26.0,-102.0,0.0,-35.0,-18.0,25.0,-1.0,22.0,7.0,0.0
9.0,-111.0,-5.0,-62.0,-64.0,-102.0,-311.0,-57.0,-632.0,18.0,0.0
5.0,-96.0,-4.0,-57.0,-53.0,-72.0,-255.0,-54.0,-517.0,14.0,0.0
1.0,-185.0,-11.0,-117.0,-67.0,-144.0,-488.0,-102.0,-1117.0,29.0,0.0
22.0,-164.0,8.0,-104.0,-53.0,-131.0,-415.0,-88.0,-1005.0,19.0,0.0
40.0,0.0,27.0,10.0,-14.0,-13.0,5.0,4.0,7.0,8.0,0.0
38.0,-69.0,6.0,-32.0,-29.0,-73.0,-164.0,-41.0,-421.0,0.0,0.0
38.0,-87.0,-85.0,-57.0,-37.0,-102.0,-254.0,-67.0,-632.0,0.0,0.0
41.0,31.0,-101.0,23.0,-13.0,-13.0,51.0,1.0,131.0,1.0,0.0
58.0,56.0,2.0,39.0,-4.0,9.0,122.0,0.0,280.0,0.0,0.0
75.0,68.0,22.0,41.0,-6.0,12.0,88.0,5.0,262.0,12.0,0.0
69.0,50.0,13.0,31.0,-7.0,9.0,76.0,-5.0,259.0,10.0,0.0
78.0,49.0,-4.0,19.0,-6.0,12.0,69.0,-10.0,254.0,3.0,0.0
81.0,40.0,-99.0,14.0,-8.0,11.0,63.0,-3.0,259.0,3.0,0.0
95.0,63.0,-163.0,12.0,-17.0,20.0,63.0,-1.0,270.0,12.0,0.0
96.0,104.0,-66.0,10.0,-27.0,34.0,74.0,5.0,273.0,6.0,0.0
96.0,112.0,3.0,2.0,-22.0,36.0,81.0,11.0,252.0,-3.0,0.0
74.0,33.0,-33.0,-19.0,-24.0,45.0,97.0,34.0,239.0,0.0,0.0
38.0,14.0,-83.0,-20.0,-13.0,65.0,106.0,69.0,238.0,24.0,0.0
11.0,-33.0,-157.0,-16.0,-5.0,66.0,72.0,66.0,142.0,43.0,0.0
0.0,-149.0,-50.0,-99.0,-29.0,-58.0,-295.0,-47.0,-766.0,14.0,0.0
-18.0,-142.0,28.0,-77.0,-49.0,-88.0,-311.0,-73.0,-779.0,-2.0,0.0
-38.0,-11.0,33.0,34.0,-10.0,20.0,93.0,19.0,213.0,26.0,0.0
-35.0,-8.0,37.0,49.0,-4.0,33.0,117.0,20.0,252.0,22.0,0.0
-61.0,1.0,61.0,65.0,1.0,29.0,87.0,0.0,207.0,-21.0,0.0
-64.0,20.0,98.0,64.0,-16.0,23.0,56.0,-14.0,168.0,-40.0,0.0
-48.0,14.0,102.0,49.0,-34.0,40.0,79.0,-8.0,156.0,-22.0,0.0
-25.0,41.0,106.0,57.0,-62.0,43.0,104.0,11.0,151.0,10.0,0.0
-10.0,24.0,93.0,36.0,-87.0,31.0,94.0,26.0,153.0,25.0,0.0
-38.0,0.0,67.0,40.0,0.0,37.0,52.0,21.0,144.0,14.0,0.0
-63.0,-26.0,25.0,64.0,97.0,23.0,23.0,-2.0,112.0,-29.0,0.0
-44.0,-26.0,-19.0,39.0,40.0,7.0,28.0,2.0,110.0,-29.0,0.0
-2.0,-11.0,11.0,25.0,0.0,-2.0,33.0,12.0,104.0,-5.0,0.0
32.0,-8.0,35.0,34.0,17.0,-2.0,16.0,5.0,69.0,-22.0,0.0
32.0,-3.0,29.0,44.0,73.0,-4.0,15.0,-3.0,57.0,-55.0,0.0
15.0,-8.0,9.0,46.0,85.0,-7.0,23.0,1.0,60.0,-55.0,0.0
26.0,3.0,-8.0,47.0,61.0,2.0,31.0,5.0,65.0,-33.0,0.0
32.0,6.0,4.0,45.0,81.0,14.0,27.0,-8.0,63.0,-25.0,0.0
6.0,-6.0,1.0,34.0,72.0,24.0,37.0,-10.0,66.0,-30.0,0.0
-42.0,-15.0,6.0,22.0,45.0,31.0,52.0,13.0,82.0,-37.0,0.0
-52.0,-26.0,-15.0,8.0,37.0,38.0,84.0,15.0,93.0,-39.0,0.0
-24.0,-15.0,-90.0,4.0,9.0,31.0,81.0,20.0,87.0,-24.0,0.0
1.0,-7.0,-56.0,2.0,-14.0,10.0,70.0,20.0,82.0,-11.0,0.0
4.0,-9.0,-2.0,8.0,-1.0,5.0,64.0,12.0,56.0,-2.0,0.0
-2.0,-1.0,40.0,4.0,25.0,3.0,48.0,-6.0,33.0,-11.0,0.0
4.0,-16.0,34.0,-19.0,12.0,-33.0,-32.0,-17.0,-127.0,-5.0,0.0
12.0,-64.0,-5.0,-38.0,-12.0,-56.0,-126.0,-55.0,-352.0,-16.0,0.0
18.0,11.0,36.0,-1.0,7.0,-4.0,24.0,-27.0,10.0,3.0,0.0
42.0,-19.0,36.0,-16.0,3.0,-17.0,-34.0,-35.0,-128.0,19.0,0.0
75.0,-79.0,26.0,-78.0,-36.0,-93.0,-278.0,-83.0,-693.0,25.0,0.0
98.0,-6.0,27.0,-35.0,-17.0,-54.0,-145.0,-53.0,-297.0,31.0,0.0
102.0,54.0,21.0,-2.0,9.0,-19.0,-7.0,-12.0,51.0,30.0,0.0
89.0,17.0,1.0,-34.0,6.0,-48.0,-55.0,-18.0,-95.0,36.0,0.0
82.0,38.0,-1.0,-21.0,-11.0,-20.0,54.0,0.0,102.0,50.0,0.0
82.0,47.0,0.0,-8.0,-26.0,1.0,98.0,16.0,198.0,35.0,0.0
71.0,38.0,-18.0,-9.0,-34.0,5.0,92.0,14.0,182.0,26.0,0.0
57.0,21.0,-44.0,-16.0,-34.0,11.0,78.0,11.0,150.0,14.0,0.0
43.0,8.0,-33.0,-19.0,-40.0,14.0,78.0,13.0,123.0,-9.0,0.0
47.0,9.0,-25.0,-14.0,-33.0,19.0,69.0,9.0,114.0,-14.0,0.0
52.0,38.0,-4.0,-4.0,-25.0,24.0,37.0,0.0,93.0,-6.0,0.0
57.0,48.0,6.0,-15.0,-20.0,9.0,8.0,-1.0,82.0,-3.0,0.0
55.0,37.0,6.0,-12.0,-27.0,6.0,-5.0,-12.0,65.0,-1.0,0.0
28.0,13.0,2.0,-2.0,-35.0,24.0,-24.0,-3.0,57.0,17.0,0.0
-5.0,-15.0,4.0,-1.0,-19.0,34.0,-22.0,5.0,46.0,3.0,0.0
-24.0,-17.0,-53.0,-4.0,-9.0,34.0,-16.0,27.0,41.0,8.0,0.0
-47.0,-32.0,-64.0,-6.0,-7.0,44.0,1.0,36.0,75.0,26.0,0.0
-88.0,-15.0,0.0,16.0,8.0,41.0,32.0,22.0,65.0,-11.0,0.0
-93.0,0.0,-82.0,31.0,7.0,24.0,-6.0,11.0,35.0,-41.0,0.0
-74.0,-15.0,-54.0,28.0,3.0,24.0,-5.0,12.0,44.0,-27.0,0.0
-56.0,-46.0,24.0,12.0,9.0,24.0,6.0,19.0,35.0,-11.0,0.0
-59.0,-75.0,20.0,11.0,11.0,28.0,14.0,22.0,36.0,-12.0,0.0
-79.0,-73.0,-6.0,17.0,5.0,38.0,21.0,6.0,41.0,-1.0,0.0
-48.0,-36.0,-92.0,6.0,-10.0,27.0,7.0,-6.0,44.0,-4.0,0.0
-32.0,-21.0,-34.0,1.0,-14.0,14.0,12.0,-11.0,66.0,-14.0,0.0
-28.0,-12.0,50.0,-2.0,-14.0,24.0,16.0,-16.0,83.0,3.0,0.0
-25.0,-5.0,55.0,2.0,-20.0,28.0,15.0,-21.0,87.0,10.0,0.0
-29.0,0.0,53.0,6.0,-20.0,30.0,13.0,-16.0,96.0,15.0,0.0
-35.0,0.0,46.0,21.0,-23.0,22.0,5.0,-24.0,80.0,13.0,0.0
-42.0,-4.0,-42.0,17.0,-16.0,10.0,-8.0,-28.0,58.0,2.0,0.0
-37.0,-25.0,-108.0,-1.0,-5.0,5.0,-14.0,-28.0,36.0,0.0,0.0
-24.0,-8.0,-44.0,-6.0,24.0,8.0,-11.0,-21.0,9.0,7.0,0.0
-19.0,4.0,-51.0,-2.0,43.0,1.0,-16.0,-26.0,0.0,13.0,0.0
-8.0,3.0,17.0,-4.0,29.0,-1.0,4.0,-30.0,0.0,20.0,0.0
-15.0,2.0,46.0,-1.0,24.0,1.0,32.0,-27.0,1.0,23.0,0.0
-12.0,2.0,37.0,5.0,18.0,7.0,32.0,-15.0,-10.0,32.0,0.0
-8.0,12.0,41.0,-2.0,17.0,11.0,21.0,-8.0,-17.0,29.0,0.0
-4.0,18.0,19.0,-8.0,23.0,0.0,17.0,-14.0,-15.0,18.0,0.0
3.0,15.0,5.0,-3.0,24.0,-11.0,6.0,-10.0,-32.0,18.0,0.0
8.0,30.0,24.0,-3.0,24.0,-15.0,-22.0,-1.0,-35.0,29.0,0.0
3.0,17.0,-61.0,-8.0,18.0,-17.0,-31.0,0.0,-45.0,15.0,0.0
0.0,5.0,-124.0,-14.0,11.0,-23.0,-42.0,-8.0,-37.0,0.0,0.0
-8.0,2.0,-44.0,-18.0,13.0,-25.0,-36.0,-13.0,-38.0,-6.0,0.0
0.0,6.0,-55.0,-12.0,7.0,-19.0,-32.0,-11.0,-38.0,-9.0,0.0
7.0,12.0,-42.0,2.0,11.0,-7.0,-26.0,-10.0,-24.0,-4.0,0.0
0.0,9.0,31.0,-5.0,7.0,-12.0,-14.0,0.0,-8.0,-5.0,0.0
2.0,9.0,35.0,-10.0,6.0,-15.0,-7.0,3.0,6.0,-1.0,0.0
7.0,19.0,40.0,-8.0,4.0,-19.0,-3.0,-4.0,25.0,3.0,0.0
12.0,20.0,42.0,-9.0,6.0,-13.0,-6.0,0.0,27.0,8.0,0.0
8.0,22.0,49.0,-6.0,8.0,-2.0,0.0,10.0,12.0,16.0,0.0
-2.0,9.0,46.0,-7.0,-7.0,8.0,4.0,0.0,18.0,23.0,0.0
1.0,11.0,45.0,0.0,-9.0,24.0,1.0,-2.0,18.0,21.0,0.0
5.0,13.0,46.0,7.0,2.0,19.0,0.0,0.0,7.0,23.0,0.0
18.0,-2.0,34.0,-5.0,-17.0,9.0,-6.0,-5.0,-5.0,22.0,0.0
24.0,-7.0,32.0,-15.0,-17.0,8.0,6.0,0.0,0.0,11.0,0.0
13.0,1.0,21.0,-6.0,-8.0,0.0,8.0,2.0,-9.0,10.0,0.0
-1.0,9.0,22.0,2.0,-5.0,-11.0,22.0,-1.0,-26.0,16.0,0.0
0.0,2.0,27.0,1.0,-9.0,-19.0,31.0,-10.0,-40.0,1.0,0.0
7.0,10.0,28.0,-9.0,-7.0,-15.0,24.0,-19.0,-44.0,-4.0,0.0
7.0,11.0,20.0,-10.0,0.0,-8.0,-9.0,-19.0,-53.0,-2.0,0.0
-4.0,9.0,-44.0,-15.0,-5.0,-12.0,-35.0,-17.0,-53.0,-8.0,0.0
-8.0,3.0,-32.0,-6.0,-19.0,-21.0,-41.0,-9.0,-54.0,-17.0,0.0
3.0,1.0,18.0,0.0,-9.0,-14.0,-53.0,-9.0,-53.0,-11.0,0.0
12.0,8.0,-1.0,0.0,2.0,-13.0,-54.0,-13.0,-45.0,3.0,0.0
40.0,1.0,-7.0,-3.0,-3.0,-14.0,-48.0,-16.0,-28.0,18.0,0.0
52.0,-9.0,5.0,-13.0,-19.0,-17.0,-43.0,-21.0,-12.0,25.0,0.0
48.0,-6.0,-18.0,-10.0,-31.0,-17.0,-53.0,-19.0,-17.0,29.0,0.0
38.0,3.0,-113.0,-15.0,-25.0,-21.0,-33.0,-13.0,-7.0,27.0,0.0
25.0,28.0,-92.0,-21.0,-15.0,-5.0,3.0,-4.0,11.0,15.0,0.0
0.0,14.0,0.0,-21.0,-1.0,7.0,34.0,5.0,41.0,5.0,0.0
-11.0,-5.0,-4.0,-39.0,0.0,6.0,45.0,29.0,61.0,11.0,0.0
2.0,-13.0,-25.0,-60.0,-7.0,10.0,43.0,27.0,59.0,23.0,0.0
3.0,-11.0,-38.0,-43.0,-10.0,11.0,66.0,34.0,42.0,28.0,0.0
0.0,-15.0,-41.0,-34.0,-3.0,19.0,73.0,51.0,31.0,26.0,0.0
5.0,-24.0,-30.0,-25.0,11.0,22.0,69.0,44.0,18.0,21.0,0.0
-8.0,-30.0,-14.0,-6.0,34.0,43.0,37.0,20.0,-3.0,-2.0,0.0
-38.0,-32.0,-8.0,13.0,34.0,26.0,6.0,9.0,-20.0,0.0,0.0
-46.0,-40.0,-10.0,15.0,10.0,6.0,-1.0,8.0,-30.0,13.0,0.0
-42.0,-52.0,10.0,21.0,5.0,-2.0,-3.0,16.0,-31.0,7.0,0.0
-50.0,-42.0,19.0,24.0,-5.0,-3.0,-1.0,21.0,-50.0,-16.0,0.0
-34.0,-19.0,34.0,33.0,13.0,0.0,16.0,13.0,-58.0,-29.0,0.0
-32.0,8.0,54.0,34.0,15.0,-1.0,-3.0,3.0,-55.0,-40.0,0.0
-38.0,24.0,55.0,43.0,-1.0,-19.0,-15.0,-7.0,-49.0,-32.0,0.0
-42.0,37.0,47.0,45.0,0.0,-15.0,-13.0,-13.0,-32.0,-21.0,0.0
-44.0,32.0,18.0,30.0,4.0,-1.0,-2.0,-7.0,-14.0,-9.0,0.0
-55.0,42.0,19.0,21.0,2.0,7.0,17.0,14.0,0.0,-5.0,0.0
-41.0,27.0,19.0,10.0,1.0,9.0,11.0,18.0,19.0,-11.0,0.0
-9.0,25.0,26.0,5.0,6.0,12.0,-14.0,12.0,21.0,-11.0,0.0
15.0,27.0,-27.0,9.0,8.0,8.0,-22.0,11.0,19.0,-9.0,0.0
24.0,17.0,-132.0,7.0,10.0,9.0,-27.0,3.0,4.0,-10.0,0.0
18.0,1.0,-140.0,2.0,2.0,6.0,-31.0,0.0,5.0,-3.0,0.0
3.0,-9.0,-49.0,-7.0,0.0,-12.0,-36.0,-2.0,9.0,-1.0,0.0
-11.0,-4.0,29.0,7.0,4.0,-12.0,-35.0,-5.0,0.0,-23.0,0.0
-18.0,-5.0,44.0,2.0,7.0,-8.0,-38.0,-7.0,-2.0,-31.0,0.0
-11.0,-8.0,45.0,-4.0,7.0,-6.0,-30.0,-2.0,-9.0,-15.0,0.0
-5.0,-12.0,30.0,-19.0,10.0,-9.0,-28.0,11.0,-6.0,-10.0,0.0
1.0,-5.0,20.0,-17.0,-9.0,-17.0,-29.0,5.0,-15.0,-5.0,0.0
6.0,8.0,29.0,-14.0,-26.0,-26.0,-25.0,0.0,-14.0,0.0,0.0
10.0,16.0,31.0,-16.0,-40.0,-21.0,-23.0,4.0,-25.0,1.0,0.0
20.0,29.0,25.0,-21.0,-58.0,-17.0,-36.0,-1.0,-24.0,19.0,0.0
53.0,51.0,15.0,-50.0,-94.0,-25.0,-38.0,-4.0,-21.0,31.0,0.0
72.0,90.0,-1.0,-57.0,-87.0,-22.0,-24.0,-9.0,-16.0,31.0,0.0
89.0,106.0,-14.0,-50.0,-10.0,8.0,-14.0,-18.0,-28.0,34.0,0.0
119.0,119.0,-32.0,-69.0,-17.0,9.0,-4.0,-18.0,-15.0,48.0,0.0
141.0,122.0,-36.0,-83.0,-70.0,0.0,3.0,9.0,21.0,47.0,0.0
125.0,74.0,-29.0,-62.0,-71.0,7.0,19.0,29.0,54.0,55.0,0.0
93.0,-13.0,-49.0,-45.0,-15.0,3.0,22.0,37.0,78.0,33.0,0.0
31.0,-41.0,-114.0,-44.0,5.0,-4.0,28.0,33.0,84.0,-8.0,0.0
-12.0,-42.0,-150.0,-8.0,2.0,12.0,31.0,35.0,80.0,-20.0,0.0
-32.0,-27.0,-15.0,35.0,17.0,26.0,8.0,22.0,56.0,-11.0,0.0
-50.0,9.0,74.0,76.0,65.0,5.0,-29.0,-7.0,-7.0,-32.0,0.0
-51.0,18.0,56.0,79.0,119.0,-24.0,-56.0,-27.0,-45.0,-46.0,0.0
-16.0,8.0,-6.0,37.0,95.0,-25.0,-45.0,-15.0,-39.0,-25.0,0.0
25.0,-41.0,-43.0,5.0,38.0,-5.0,-24.0,0.0,-15.0,-3.0,0.0
22.0,-65.0,-107.0,10.0,24.0,11.0,-4.0,10.0,-6.0,-5.0,0.0
-1.0,-41.0,-153.0,21.0,9.0,-4.0,-11.0,3.0,-14.0,-17.0,0.0
-34.0,-35.0,-44.0,32.0,16.0,-12.0,-7.0,0.0,-25.0,-24.0,0.0
-58.0,-29.0,54.0,46.0,13.0,-10.0,-10.0,5.0,-14.0,-33.0,0.0
-84.0,-36.0,62.0,47.0,22.0,-8.0,-17.0,13.0,-13.0,-24.0,0.0
-95.0,-32.0,51.0,53.0,48.0,-8.0,-10.0,8.0,-13.0,-26.0,0.0
-100.0,-29.0,5.0,61.0,55.0,-16.0,14.0,-2.0,-12.0,-20.0,0.0
-115.0,-39.0,-70.0,57.0,48.0,-31.0,17.0,-3.0,-15.0,-24.0,0.0
-97.0,-27.0,13.0,50.0,47.0,-21.0,-8.0,5.0,-13.0,-30.0,0.0
-65.0,-11.0,71.0,40.0,41.0,-14.0,-17.0,-1.0,-10.0,-29.0,0.0
-40.0,4.0,58.0,36.0,32.0,-11.0,3.0,-7.0,-9.0,-36.0,0.0
-31.0,7.0,63.0,35.0,15.0,2.0,26.0,-9.0,7.0,-31.0,0.0
-25.0,14.0,59.0,33.0,6.0,-2.0,40.0,-8.0,22.0,-29.0,0.0
-10.0,7.0,39.0,22.0,1.0,-2.0,44.0,0.0,37.0,-18.0,0.0
-2.0,-7.0,-31.0,15.0,-6.0,6.0,43.0,-4.0,39.0,-12.0,0.0
-11.0,-8.0,-78.0,4.0,-6.0,8.0,39.0,1.0,23.0,-4.0,0.0
-12.0,7.0,19.0,-1.0,-10.0,-2.0,11.0,0.0,12.0,-12.0,0.0
3.0,23.0,54.0,13.0,-7.0,-6.0,-14.0,-7.0,-4.0,-9.0,0.0
6.0,25.0,12.0,4.0,-10.0,-5.0,-20.0,1.0,-13.0,6.0,0.0
8.0,17.0,-23.0,-6.0,-2.0,-12.0,-20.0,-1.0,-16.0,16.0,0.0
21.0,20.0,39.0,-3.0,-7.0,-5.0,-25.0,-5.0,-14.0,14.0,0.0
25.0,-2.0,52.0,-2.0,-8.0,2.0,-14.0,-3.0,-17.0,18.0,0.0
24.0,3.0,47.0,-8.0,-10.0,-3.0,1.0,-2.0,-39.0,14.0,0.0
23.0,13.0,37.0,-19.0,-7.0,-5.0,22.0,2.0,-48.0,21.0,0.0
16.0,16.0,32.0,-21.0,-13.0,2.0,25.0,12.0,-48.0,18.0,0.0
6.0,7.0,33.0,-23.0,-7.0,3.0,17.0,12.0,-36.0,11.0,0.0
6.0,19.0,26.0,-17.0,4.0,4.0,-3.0,4.0,-16.0,8.0,0.0
11.0,10.0,-2.0,-13.0,-7.0,-7.0,0.0,0.0,-9.0,15.0,0.0
6.0,0.0,-38.0,-20.0,-14.0,-9.0,30.0,-4.0,-2.0,22.0,0.0
7.0,0.0,14.0,-13.0,-16.0,-6.0,43.0,-5.0,14.0,19.0,0.0
3.0,12.0,14.0,-16.0,-17.0,-7.0,50.0,4.0,32.0,13.0,0.0
7.0,9.0,13.0,-16.0,-14.0,-1.0,50.0,15.0,37.0,21.0,0.0
11.0,15.0,26.0,-5.0,-10.0,11.0,37.0,3.0,30.0,22.0,0.0
15.0,4.0,25.0,-13.0,-7.0,11.0,19.0,-9.0,6.0,8.0,0.0
14.0,0.0,21.0,-13.0,-2.0,3.0,10.0,-13.0,-13.0,0.0,0.0
14.0,1.0,27.0,-20.0,-2.0,7.0,-3.0,-8.0,-24.0,20.0,0.0
18.0,4.0,26.0,-23.0,0.0,3.0,-3.0,-5.0,-27.0,22.0,0.0
20.0,11.0,20.0,-29.0,2.0,-4.0,-25.0,-8.0,-23.0,22.0,0.0
21.0,18.0,0.0,-19.0,2.0,-1.0,-43.0,-1.0,-27.0,24.0,0.0
11.0,0.0,-6.0,-15.0,0.0,9.0,-50.0,6.0,-25.0,14.0,0.0
21.0,8.0,0.0,-13.0,8.0,5.0,-46.0,17.0,-19.0,24.0,0.0
29.0,-4.0,-13.0,-15.0,8.0,7.0,-40.0,20.0,-37.0,14.0,0.0
28.0,-14.0,-39.0,-27.0,4.0,0.0,-30.0,15.0,-49.0,11.0,0.0
12.0,-16.0,-41.0,-24.0,-1.0,0.0,-31.0,9.0,-38.0,10.0,0.0
6.0,-7.0,-22.0,-34.0,11.0,0.0,-25.0,13.0,-21.0,11.0,0.0
10.0,5.0,-11.0,-30.0,-6.0,0.0,-14.0,13.0,12.0,9.0,0.0
12.0,8.0,-7.0,-27.0,-14.0,4.0,4.0,5.0,30.0,0.0,0.0
9.0,0.0,-2.0,-36.0,-16.0,8.0,12.0,0.0,44.0,15.0,0.0
11.0,3.0,-50.0,-31.0,-20.0,12.0,-3.0,11.0,62.0,15.0,0.0
13.0,-4.0,-121.0,-16.0,-29.0,3.0,1.0,21.0,66.0,9.0,0.0
17.0,-14.0,-40.0,-10.0,-31.0,-3.0,6.0,19.0,59.0,7.0,0.0
15.0,-2.0,8.0,-17.0,-32.0,-5.0,0.0,12.0,51.0,10.0,0.0
33.0,0.0,7.0,-16.0,-39.0,0.0,-1.0,4.0,23.0,13.0,0.0
30.0,2.0,11.0,-5.0,-30.0,4.0,-3.0,-2.0,9.0,-8.0,0.0
10.0,-11.0,-6.0,-1.0,-21.0,-9.0,-11.0,3.0,21.0,-17.0,0.0
8.0,3.0,-45.0,-9.0,-1.0,-12.0,-5.0,-3.0,7.0,-8.0,0.0
25.0,9.0,18.0,1.0,34.0,-5.0,14.0,-23.0,-10.0,-4.0,0.0
28.0,29.0,57.0,16.0,70.0,4.0,12.0,-23.0,-19.0,2.0,0.0
22.0,29.0,70.0,8.0,40.0,-4.0,11.0,-18.0,-15.0,14.0,0.0
8.0,32.0,63.0,-4.0,12.0,-2.0,6.0,-8.0,-16.0,16.0,0.0
-18.0,8.0,50.0,-8.0,10.0,-3.0,4.0,-12.0,-23.0,-13.0,0.0
-31.0,-6.0,47.0,-3.0,11.0,-1.0,-2.0,-10.0,-34.0,-25.0,0.0
-26.0,-24.0,20.0,0.0,15.0,4.0,-21.0,-15.0,-43.0,-22.0,0.0
-25.0,-44.0,-15.0,12.0,25.0,11.0,-32.0,-15.0,-36.0,-23.0,0.0
-21.0,-36.0,-66.0,16.0,24.0,8.0,-11.0,-2.0,-14.0,-16.0,0.0
-22.0,-22.0,-67.0,11.0,17.0,12.0,0.0,0.0,4.0,-12.0,0.0
-33.0,-7.0,0.0,-1.0,6.0,2.0,-6.0,-2.0,28.0,-14.0,0.0
-25.0,7.0,19.0,-13.0,5.0,10.0,0.0,-5.0,37.0,-19.0,0.0
-19.0,6.0,26.0,-12.0,-3.0,19.0,4.0,-5.0,59.0,-16.0,0.0
-15.0,0.0,33.0,-17.0,-7.0,20.0,12.0,2.0,63.0,-12.0,0.0
0.0,14.0,39.0,9.0,12.0,14.0,17.0,0.0,51.0,-4.0,0.0
7.0,0.0,29.0,26.0,12.0,7.0,18.0,2.0,44.0,0.0,0.0
5.0,4.0,26.0,17.0,0.0,18.0,13.0,-8.0,22.0,-5.0,0.0
14.0,0.0,16.0,12.0,8.0,17.0,6.0,-3.0,17.0,-12.0,0.0
10.0,0.0,5.0,5.0,6.0,8.0,0.0,-10.0,15.0,-9.0,0.0
1.0,0.0,12.0,18.0,-2.0,0.0,7.0,-20.0,3.0,-6.0,0.0
-12.0,24.0,18.0,17.0,-22.0,1.0,19.0,-13.0,-10.0,-5.0,0.0
-11.0,20.0,7.0,4.0,-56.0,3.0,4.0,-4.0,-7.0,-4.0,0.0
9.0,35.0,13.0,-2.0,-82.0,-15.0,-17.0,17.0,-4.0,7.0,0.0
20.0,27.0,20.0,0.0,-91.0,-5.0,-8.0,25.0,2.0,18.0,0.0
22.0,6.0,9.0,-8.0,-102.0,6.0,16.0,15.0,0.0,15.0,0.0
16.0,9.0,-8.0,-24.0,-71.0,15.0,27.0,11.0,-17.0,14.0,0.0
3.0,-17.0,-24.0,-12.0,26.0,40.0,-2.0,-8.0,-29.0,-5.0,0.0
-11.0,-23.0,-38.0,-7.0,55.0,44.0,-20.0,-15.0,-13.0,-14.0,0.0
0.0,-13.0,-32.0,-7.0,5.0,42.0,-14.0,-4.0,22.0,0.0,0.0
16.0,-2.0,-32.0,-24.0,-26.0,34.0,14.0,3.0,44.0,3.0,0.0
31.0,18.0,-32.0,-32.0,-51.0,17.0,30.0,14.0,70.0,3.0,0.0
45.0,37.0,-33.0,-36.0,-45.0,19.0,50.0,20.0,69.0,11.0,0.0
55.0,15.0,-45.0,-43.0,-30.0,37.0,71.0,22.0,54.0,14.0,0.0
49.0,37.0,-44.0,-29.0,-30.0,43.0,60.0,20.0,42.0,20.0,0.0
52.0,30.0,-31.0,-14.0,-10.0,21.0,36.0,13.0,24.0,25.0,0.0
46.0,-4.0,-28.0,-14.0,34.0,-4.0,8.0,7.0,10.0,29.0,0.0
23.0,9.0,13.0,-3.0,61.0,-22.0,-17.0,2.0,3.0,18.0,0.0
14.0,38.0,45.0,29.0,48.0,-34.0,-38.0,-22.0,-20.0,-11.0,0.0
25.0,100.0,32.0,35.0,20.0,-37.0,-46.0,-40.0,-43.0,-30.0,0.0
11.0,106.0,43.0,1.0,15.0,-26.0,-43.0,-31.0,-58.0,-38.0,0.0
-3.0,73.0,19.0,-16.0,-5.0,-24.0,-20.0,-9.0,-60.0,-45.0,0.0
2.0,72.0,11.0,-24.0,-40.0,-32.0,-32.0,-2.0,-65.0,-45.0,0.0
-37.0,45.0,20.0,-9.0,-27.0,-38.0,-46.0,-17.0,-59.0,-45.0,0.0
-89.0,-27.0,37.0,32.0,35.0,-25.0,-62.0,-26.0,-44.0,-22.0,0.0
-110.0,-62.0,53.0,60.0,64.0,2.0,-50.0,-22.0,-37.0,-21.0,0.0
-108.0,-43.0,67.0,56.0,46.0,11.0,-32.0,-9.0,-33.0,-34.0,0.0
-115.0,-18.0,64.0,41.0,44.0,14.0,-17.0,-3.0,-19.0,-40.0,0.0
-129.0,-45.0,21.0,44.0,72.0,18.0,-5.0,-4.0,-3.0,-40.0,0.0
-119.0,-48.0,11.0,29.0,71.0,13.0,4.0,-5.0,16.0,-20.0,0.0
-89.0,-29.0,8.0,15.0,42.0,16.0,20.0,9.0,31.0,-6.0,0.0
-62.0,-19.0,-5.0,13.0,29.0,25.0,34.0,24.0,51.0,-9.0,0.0
-52.0,-5.0,-32.0,21.0,35.0,24.0,34.0,12.0,49.0,-1.0,0.0
-49.0,-5.0,-2.0,22.0,32.0,13.0,32.0,14.0,53.0,0.0,0.0
-37.0,0.0,8.0,28.0,27.0,4.0,17.0,11.0,49.0,0.0,0.0
-35.0,6.0,-8.0,28.0,18.0,2.0,9.0,2.0,43.0,2.0,0.0
-61.0,-5.0,-21.0,20.0,13.0,8.0,-1.0,-1.0,33.0,-9.0,0.0
-73.0,5.0,17.0,18.0,-7.0,9.0,-6.0,2.0,27.0,-21.0,0.0
-60.0,-7.0,15.0,17.0,-22.0,7.0,-10.0,-2.0,11.0,-13.0,0.0
-39.0,2.0,17.0,16.0,-24.0,3.0,-3.0,-10.0,2.0,4.0,0.0
-32.0,4.0,32.0,11.0,-26.0,-3.0,12.0,-2.0,-10.0,7.0,0.0
-27.0,8.0,23.0,9.0,-17.0,-9.0,32.0,-6.0,-19.0,11.0,0.0
-42.0,0.0,-4.0,21.0,28.0,7.0,40.0,-12.0,-26.0,3.0,0.0
-32.0,-4.0,-23.0,12.0,46.0,1.0,33.0,-9.0,-39.0,-2.0,0.0
-13.0,23.0,5.0,6.0,26.0,-10.0,19.0,-15.0,-42.0,3.0,0.0
-3.0,14.0,13.0,1.0,12.0,-20.0,14.0,-2.0,-32.0,9.0,0.0
1.0,10.0,8.0,12.0,6.0,-20.0,21.0,5.0,-14.0,12.0,0.0
3.0,19.0,0.0,7.0,2.0,-11.0,20.0,12.0,-12.0,21.0,0.0
1.0,9.0,-26.0,2.0,-5.0,-4.0,17.0,1.0,-1.0,12.0,0.0
6.0,14.0,-58.0,3.0,-14.0,0.0,18.0,-1.0,20.0,11.0,0.0
8.0,17.0,1.0,6.0,-11.0,-2.0,3.0,0.0,36.0,31.0,0.0
7.0,12.0,2.0,13.0,-13.0,-4.0,0.0,-1.0,45.0,30.0,0.0
-3.0,14.0,-20.0,12.0,-20.0,0.0,-12.0,4.0,56.0,21.0,0.0
9.0,0.0,-10.0,4.0,-26.0,5.0,-18.0,7.0,50.0,26.0,0.0
19.0,0.0,0.0,4.0,-21.0,7.0,-21.0,10.0,48.0,22.0,0.0
12.0,18.0,-12.0,-2.0,-17.0,8.0,-18.0,9.0,36.0,15.0,0.0
5.0,7.0,-7.0,-5.0,-19.0,-3.0,8.0,7.0,23.0,12.0,0.0
9.0,13.0,0.0,-5.0,-29.0,-11.0,21.0,9.0,10.0,10.0,0.0
16.0,24.0,0.0,-12.0,-21.0,-14.0,28.0,3.0,-3.0,11.0,0.0
10.0,-3.0,-5.0,-10.0,-14.0,-13.0,27.0,-2.0,-2.0,3.0,0.0
14.0,0.0,-3.0,-7.0,-11.0,-9.0,5.0,-7.0,-2.0,-5.0,0.0
21.0,1.0,-10.0,-16.0,-10.0,-16.0,-27.0,-1.0,-16.0,-10.0,0.0
20.0,4.0,-49.0,-20.0,-12.0,-23.0,-28.0,2.0,-8.0,11.0,0.0
-3.0,21.0,-33.0,-1.0,-11.0,-23.0,-30.0,-6.0,-15.0,33.0,0.0
-5.0,18.0,11.0,-3.0,-5.0,-26.0,-40.0,-8.0,-33.0,11.0,0.0
24.0,-2.0,21.0,-2.0,-4.0,-27.0,-37.0,-3.0,-38.0,4.0,0.0
34.0,7.0,22.0,-6.0,-8.0,-22.0,-34.0,-2.0,-31.0,9.0,0.0
37.0,3.0,16.0,-9.0,-12.0,-22.0,-31.0,-5.0,-15.0,14.0,0.0
36.0,-4.0,14.0,-4.0,-7.0,-28.0,-23.0,-10.0,10.0,12.0,0.0
35.0,-1.0,-5.0,-9.0,-21.0,-28.0,-14.0,6.0,24.0,13.0,0.0
24.0,-16.0,-26.0,-17.0,-41.0,-26.0,-6.0,20.0,30.0,6.0,0.0
18.0,-11.0,-35.0,-20.0,-53.0,-31.0,3.0,16.0,34.0,16.0,0.0
21.0,-20.0,-71.0,-32.0,-83.0,-36.0,20.0,20.0,39.0,14.0,0.0
39.0,12.0,-67.0,-39.0,-118.0,-32.0,43.0,31.0,48.0,16.0,0.0
61.0,46.0,-46.0,-42.0,-163.0,-22.0,53.0,46.0,42.0,43.0,0.0
66.0,41.0,-59.0,-39.0,-195.0,-11.0,40.0,49.0,43.0,54.0,0.0
66.0,13.0,-142.0,-49.0,-195.0,0.0,23.0,46.0,51.0,73.0,0.0
48.0,11.0,-64.0,-27.0,-120.0,22.0,2.0,44.0,52.0,61.0,0.0
15.0,-21.0,-14.0,24.0,105.0,44.0,-17.0,9.0,-2.0,1.0,0.0
-27.0,-58.0,-26.0,25.0,221.0,43.0,-33.0,-25.0,-48.0,-55.0,0.0
-37.0,-52.0,-41.0,-9.0,124.0,21.0,-37.0,-16.0,-60.0,-44.0,0.0
0.0,-47.0,-39.0,12.0,92.0,-1.0,-45.0,-14.0,-63.0,-33.0,0.0
31.0,-28.0,43.0,40.0,108.0,-30.0,-63.0,-37.0,-81.0,-41.0,0.0
42.0,20.0,80.0,42.0,92.0,-49.0,-70.0,-43.0,-81.0,-46.0,0.0
35.0,20.0,83.0,38.0,47.0,-40.0,-53.0,-34.0,-61.0,-30.0,0.0
33.0,3.0,65.0,23.0,0.0,-31.0,-28.0,-27.0,-29.0,-5.0,0.0
10.0,-10.0,35.0,8.0,-3.0,-24.0,-3.0,-5.0,-1.0,9.0,0.0
-3.0,-21.0,34.0,19.0,47.0,4.0,3.0,-3.0,-3.0,1.0,0.0
0.0,13.0,52.0,24.0,59.0,20.0,9.0,-5.0,-8.0,-33.0,0.0
-17.0,17.0,48.0,14.0,34.0,25.0,29.0,4.0,14.0,-34.0,0.0
-23.0,5.0,43.0,6.0,0.0,15.0,39.0,16.0,43.0,-15.0,0.0
-4.0,35.0,51.0,11.0,-14.0,7.0,47.0,13.0,53.0,-5.0,0.0
4.0,51.0,55.0,-1.0,-37.0,0.0,42.0,28.0,46.0,0.0,0.0
-6.0,13.0,43.0,0.0,-9.0,9.0,38.0,15.0,18.0,-2.0,0.0
-16.0,-6.0,19.0,-1.0,46.0,7.0,37.0,-10.0,-18.0,-27.0,0.0
-16.0,-2.0,-2.0,-7.0,55.0,-10.0,21.0,-16.0,-38.0,-27.0,0.0
-15.0,-13.0,-7.0,4.0,57.0,-11.0,16.0,-17.0,-33.0,-17.0,0.0
-11.0,-7.0,-30.0,17.0,61.0,-2.0,-13.0,-13.0,-36.0,-10.0,0.0
-11.0,-8.0,-77.0,15.0,73.0,-11.0,-15.0,-13.0,-43.0,-15.0,0.0
-12.0,5.0,-62.0,10.0,93.0,-25.0,-24.0,-18.0,-46.0,-27.0,0.0
0.0,9.0,9.0,-15.0,61.0,-31.0,-19.0,-15.0,-55.0,-15.0,0.0
5.0,-8.0,12.0,-16.0,17.0,-23.0,-20.0,-4.0,-58.0,-9.0,0.0
0.0,6.0,20.0,-10.0,6.0,-13.0,-13.0,-5.0,-53.0,0.0,0.0
-11.0,11.0,12.0,-11.0,0.0,-12.0,5.0,-7.0,-48.0,0.0,0.0
-20.0,-2.0,12.0,-6.0,-3.0,-21.0,3.0,2.0,-27.0,-3.0,0.0
-17.0,-1.0,7.0,-6.0,-14.0,-18.0,-5.0,5.0,-4.0,-3.0,0.0
-11.0,-7.0,-16.0,-21.0,-9.0,-21.0,26.0,0.0,4.0,-2.0,0.0
4.0,0.0,-79.0,-15.0,-1.0,-14.0,32.0,3.0,3.0,0.0,0.0
12.0,32.0,-14.0,-3.0,-12.0,-9.0,3.0,4.0,15.0,3.0,0.0
25.0,42.0,24.0,1.0,-18.0,-22.0,18.0,8.0,24.0,0.0,0.0
32.0,36.0,-45.0,6.0,-19.0,-17.0,19.0,12.0,43.0,1.0,0.0
38.0,34.0,-48.0,-3.0,-17.0,-1.0,20.0,11.0,42.0,3.0,0.0
25.0,35.0,25.0,-4.0,5.0,10.0,29.0,10.0,19.0,0.0,0.0
17.0,12.0,9.0,-19.0,10.0,12.0,22.0,10.0,-3.0,7.0,0.0
26.0,-21.0,0.0,-23.0,3.0,9.0,23.0,28.0,3.0,22.0,0.0
30.0,-5.0,5.0,-20.0,-3.0,13.0,16.0,26.0,7.0,15.0,0.0
29.0,-7.0,-37.0,-21.0,0.0,13.0,19.0,20.0,-1.0,8.0,0.0
16.0,-17.0,-47.0,-33.0,-4.0,11.0,35.0,18.0,-13.0,5.0,0.0
7.0,-8.0,0.0,-27.0,-5.0,13.0,40.0,19.0,-32.0,17.0,0.0
0.0,-27.0,-75.0,-16.0,1.0,4.0,28.0,20.0,-34.0,21.0,0.0
-11.0,-21.0,-129.0,-17.0,11.0,-9.0,-2.0,4.0,-39.0,0.0,0.0
-26.0,-25.0,-76.0,-26.0,11.0,-20.0,-10.0,-1.0,-45.0,-3.0,0.0
-19.0,-18.0,-28.0,-27.0,3.0,-31.0,-11.0,0.0,-51.0,-3.0,0.0
-20.0,-8.0,33.0,-22.0,0.0,-30.0,-13.0,0.0,-46.0,0.0,0.0
-32.0,-8.0,47.0,-3.0,9.0,-25.0,-31.0,5.0,-44.0,-3.0,0.0
-20.0,2.0,51.0,2.0,0.0,-24.0,-33.0,6.0,-43.0,0.0,0.0
-5.0,3.0,47.0,6.0,-20.0,-41.0,-25.0,-5.0,-17.0,12.0,0.0
-4.0,2.0,54.0,13.0,-28.0,-52.0,-13.0,-9.0,9.0,13.0,0.0
-4.0,1.0,52.0,17.0,-23.0,-19.0,-6.0,-14.0,11.0,8.0,0.0
1.0,0.0,39.0,16.0,-37.0,-7.0,-6.0,-13.0,34.0,14.0,0.0
9.0,18.0,41.0,7.0,-55.0,0.0,16.0,2.0,60.0,22.0,0.0
-16.0,41.0,55.0,13.0,-34.0,16.0,35.0,6.0,65.0,2.0,0.0
-36.0,14.0,39.0,22.0,2.0,27.0,30.0,1.0,43.0,-13.0,0.0
-43.0,-1.0,23.0,28.0,71.0,14.0,26.0,-25.0,-3.0,-21.0,0.0
-28.0,6.0,32.0,34.0,93.0,0.0,26.0,-30.0,-16.0,-17.0,0.0
-19.0,-3.0,22.0,27.0,58.0,-13.0,26.0,-18.0,1.0,-8.0,0.0
-11.0,1.0,23.0,21.0,19.0,-17.0,20.0,-12.0,-3.0,0.0,0.0
-15.0,25.0,0.0,24.0,3.0,-7.0,14.0,-7.0,-22.0,0.0,0.0
6.0,23.0,-14.0,28.0,-10.0,2.0,16.0,-8.0,-30.0,-6.0,0.0
23.0,28.0,38.0,17.0,-28.0,7.0,25.0,-27.0,-30.0,-5.0,0.0
40.0,51.0,51.0,19.0,-35.0,-6.0,18.0,-32.0,-20.0,-6.0,0.0
55.0,60.0,48.0,18.0,-49.0,-27.0,10.0,-31.0,-19.0,6.0,0.0
57.0,59.0,46.0,1.0,-60.0,-33.0,14.0,-18.0,-18.0,29.0,0.0
32.0,23.0,13.0,-5.0,-47.0,-26.0,1.0,-5.0,-17.0,37.0,0.0
0.0,-43.0,-12.0,5.0,48.0,-7.0,-13.0,-7.0,-27.0,33.0,0.0
-44.0,-63.0,-12.0,15.0,70.0,-5.0,-19.0,-14.0,-27.0,17.0,0.0
-19.0,-6.0,9.0,21.0,19.0,-29.0,-18.0,-11.0,-34.0,7.0,0.0
15.0,47.0,-10.0,10.0,-17.0,-41.0,-28.0,-17.0,-31.0,-5.0,0.0
46.0,75.0,-61.0,6.0,-24.0,-24.0,-7.0,-13.0,-5.0,-5.0,0.0
77.0,80.0,-46.0,0.0,-27.0,-16.0,16.0,-17.0,26.0,-10.0,0.0
81.0,54.0,-6.0,-19.0,-33.0,-24.0,36.0,-2.0,38.0,-10.0,0.0
45.0,-41.0,-54.0,-40.0,-27.0,-9.0,47.0,25.0,56.0,15.0,0.0
1.0,-94.0,-137.0,-15.0,-11.0,15.0,31.0,30.0,60.0,24.0,0.0
-28.0,-73.0,-94.0,11.0,-1.0,29.0,15.0,15.0,23.0,-6.0,0.0
-32.0,-49.0,0.0,7.0,4.0,27.0,-12.0,13.0,9.0,-14.0,0.0
-43.0,-25.0,-49.0,7.0,1.0,29.0,-32.0,29.0,10.0,-11.0,0.0
-41.0,-9.0,-112.0,7.0,-10.0,27.0,-21.0,27.0,0.0,-10.0,0.0
-50.0,-5.0,-24.0,-3.0,-16.0,24.0,-18.0,16.0,-7.0,-13.0,0.0
-71.0,-30.0,46.0,-12.0,-7.0,29.0,-19.0,11.0,-5.0,-12.0,0.0
-77.0,-58.0,35.0,-22.0,-12.0,23.0,-9.0,12.0,1.0,-11.0,0.0
-62.0,-57.0,15.0,-23.0,-27.0,8.0,-9.0,5.0,-7.0,-14.0,0.0
-71.0,-75.0,4.0,-15.0,-24.0,6.0,-11.0,5.0,-12.0,-6.0,0.0
-85.0,-74.0,9.0,-24.0,-20.0,16.0,-9.0,4.0,-2.0,-5.0,0.0
-71.0,-75.0,9.0,-23.0,-25.0,20.0,-18.0,4.0,-5.0,-2.0,0.0
-39.0,-83.0,-6.0,-20.0,-23.0,25.0,0.0,28.0,4.0,20.0,0.0
-25.0,-80.0,-19.0,-35.0,-12.0,15.0,18.0,39.0,22.0,27.0,0.0
-10.0,-62.0,-12.0,-28.0,-14.0,5.0,7.0,31.0,31.0,24.0,0.0
-11.0,-39.0,-3.0,-7.0,3.0,16.0,4.0,19.0,29.0,19.0,0.0
-25.0,-41.0,-12.0,17.0,24.0,12.0,-3.0,9.0,27.0,0.0,0.0
-40.0,-47.0,-77.0,28.0,20.0,17.0,-25.0,4.0,44.0,8.0,0.0
-47.0,-19.0,14.0,35.0,25.0,15.0,-38.0,-2.0,32.0,-4.0,0.0
-35.0,4.0,63.0,49.0,21.0,2.0,-57.0,-10.0,4.0,-32.0,0.0
-30.0,11.0,68.0,33.0,19.0,8.0,-65.0,-26.0,-5.0,-42.0,0.0
-18.0,-3.0,67.0,23.0,17.0,7.0,-53.0,-34.0,-10.0,-37.0,0.0
2.0,15.0,76.0,25.0,11.0,8.0,-45.0,-34.0,-26.0,-35.0,0.0
6.0,9.0,60.0,19.0,15.0,7.0,-52.0,-15.0,-32.0,-21.0,0.0
-11.0,13.0,20.0,18.0,22.0,8.0,-47.0,-1.0,-35.0,-13.0,0.0
-31.0,-4.0,-38.0,14.0,17.0,13.0,-16.0,-7.0,-40.0,-15.0,0.0
-30.0,-21.0,8.0,15.0,12.0,14.0,11.0,6.0,-28.0,-26.0,0.0
-28.0,-8.0,27.0,14.0,2.0,7.0,19.0,11.0,-23.0,-17.0,0.0
-21.0,-8.0,20.0,11.0,0.0,5.0,-11.0,15.0,-32.0,-8.0,0.0
-11.0,-8.0,25.0,14.0,-8.0,-14.0,-27.0,16.0,-36.0,-1.0,0.0
-3.0,3.0,13.0,5.0,-34.0,-33.0,-38.0,8.0,-49.0,9.0,0.0
-10.0,-3.0,-1.0,0.0,-36.0,-20.0,-38.0,5.0,-48.0,0.0,0.0
-9.0,2.0,-3.0,9.0,21.0,2.0,-4.0,-8.0,-41.0,-9.0,0.0
3.0,0.0,-2.0,15.0,32.0,-3.0,11.0,-13.0,-29.0,-11.0,0.0
5.0,19.0,-3.0,4.0,-7.0,0.0,25.0,-9.0,-3.0,-12.0,0.0
-9.0,19.0,-5.0,-6.0,-28.0,-1.0,38.0,5.0,29.0,-15.0,0.0
-16.0,21.0,-12.0,-4.0,-35.0,8.0,37.0,8.0,41.0,-11.0,0.0
-11.0,19.0,-54.0,-8.0,-30.0,15.0,40.0,2.0,42.0,-2.0,0.0
-8.0,9.0,-109.0,-26.0,-37.0,10.0,38.0,6.0,55.0,7.0,0.0
0.0,19.0,-19.0,-38.0,-51.0,-10.0,31.0,17.0,62.0,16.0,0.0
26.0,-4.0,6.0,-29.0,-40.0,-24.0,43.0,22.0,58.0,25.0,0.0
35.0,21.0,7.0,9.0,12.0,-2.0,18.0,-10.0,0.0,0.0,0.0
32.0,11.0,3.0,-5.0,26.0,16.0,-10.0,-8.0,-3.0,5.0,0.0
26.0,-6.0,9.0,-8.0,54.0,17.0,-37.0,-5.0,-9.0,7.0,0.0
33.0,-7.0,9.0,-19.0,51.0,10.0,-37.0,-3.0,-13.0,2.0,0.0
32.0,1.0,-8.0,-39.0,32.0,10.0,-28.0,0.0,-9.0,15.0,0.0
27.0,17.0,-39.0,-33.0,29.0,17.0,-18.0,6.0,-2.0,39.0,0.0
14.0,5.0,-53.0,-25.0,10.0,12.0,-6.0,1.0,-4.0,40.0,0.0
7.0,2.0,-96.0,-38.0,9.0,12.0,-1.0,-6.0,0.0,26.0,0.0
3.0,-4.0,-65.0,-52.0,5.0,-1.0,-1.0,6.0,5.0,27.0,0.0
-2.0,-18.0,-21.0,-30.0,7.0,-1.0,-17.0,5.0,-11.0,21.0,0.0
-8.0,-22.0,-10.0,-12.0,10.0,-8.0,-13.0,-1.0,-20.0,0.0,0.0
11.0,23.0,17.0,4.0,-11.0,-19.0,-3.0,-3.0,-7.0,5.0,0.0
30.0,49.0,9.0,26.0,-29.0,-36.0,-22.0,-17.0,-4.0,19.0,0.0
32.0,25.0,7.0,27.0,-34.0,-35.0,-26.0,-22.0,0.0,16.0,0.0
22.0,38.0,52.0,9.0,-24.0,-18.0,-15.0,-8.0,15.0,10.0,0.0
31.0,50.0,84.0,12.0,-9.0,-6.0,-8.0,-10.0,26.0,10.0,0.0
51.0,49.0,74.0,40.0,22.0,4.0,11.0,-7.0,33.0,5.0,0.0
37.0,34.0,55.0,33.0,59.0,1.0,43.0,-6.0,40.0,-10.0,0.0
32.0,31.0,50.0,13.0,43.0,-19.0,31.0,-24.0,36.0,-9.0,0.0
44.0,63.0,48.0,2.0,9.0,-20.0,20.0,-18.0,21.0,3.0,0.0
30.0,49.0,29.0,17.0,-3.0,-15.0,9.0,-18.0,3.0,10.0,0.0
-28.0,8.0,12.0,20.0,10.0,0.0,0.0,-25.0,-5.0,0.0,0.0
-66.0,5.0,0.0,16.0,34.0,7.0,-9.0,-26.0,-22.0,-10.0,0.0
-55.0,-11.0,-12.0,8.0,48.0,12.0,-10.0,-15.0,-17.0,-15.0,0.0
-33.0,-20.0,-12.0,-1.0,29.0,18.0,0.0,0.0,-28.0,-17.0,0.0
-25.0,-9.0,-46.0,-9.0,11.0,20.0,-8.0,3.0,-46.0,-12.0,0.0
-25.0,-11.0,-108.0,-11.0,5.0,2.0,-42.0,-6.0,-48.0,-22.0,0.0
-37.0,18.0,-16.0,4.0,3.0,6.0,-47.0,-8.0,-42.0,-35.0,0.0
-37.0,17.0,38.0,3.0,-6.0,11.0,-30.0,-9.0,-38.0,-28.0,0.0
-32.0,3.0,33.0,-6.0,-24.0,4.0,-4.0,-9.0,-37.0,-13.0,0.0
-41.0,-7.0,25.0,-19.0,-29.0,-8.0,-6.0,-11.0,-21.0,-2.0,0.0
-34.0,-15.0,12.0,-36.0,-31.0,-12.0,-18.0,-4.0,0.0,4.0,0.0
-21.0,-12.0,-2.0,-25.0,-35.0,3.0,-11.0,9.0,-1.0,1.0,0.0
-28.0,-14.0,-1.0,-14.0,-23.0,20.0,-3.0,5.0,0.0,-2.0,0.0
-25.0,-6.0,12.0,-9.0,-9.0,23.0,19.0,-8.0,18.0,3.0,0.0
-6.0,1.0,21.0,0.0,-12.0,24.0,19.0,1.0,40.0,1.0,0.0
0.0,-2.0,15.0,1.0,-10.0,30.0,18.0,8.0,42.0,-4.0,0.0
0.0,7.0,-63.0,-2.0,-21.0,19.0,-9.0,8.0,35.0,-6.0,0.0
-10.0,2.0,-147.0,0.0,-23.0,8.0,-16.0,4.0,17.0,-5.0,0.0
-11.0,-13.0,-146.0,-9.0,-27.0,8.0,-9.0,6.0,1.0,-2.0,0.0
-8.0,-11.0,-146.0,-8.0,-31.0,3.0,-6.0,8.0,2.0,-8.0,0.0
-20.0,-26.0,-113.0,-11.0,-28.0,6.0,3.0,12.0,-8.0,-13.0,0.0
-19.0,-14.0,-1.0,-8.0,-24.0,4.0,27.0,15.0,-4.0,-3.0,0.0
-6.0,-18.0,45.0,-4.0,-19.0,3.0,34.0,16.0,-2.0,-3.0,0.0
16.0,-6.0,47.0,-2.0,-32.0,8.0,11.0,15.0,-16.0,0.0,0.0
27.0,1.0,56.0,-4.0,-48.0,12.0,-7.0,6.0,-18.0,4.0,0.0
67.0,44.0,68.0,-14.0,-49.0,8.0,-24.0,0.0,-28.0,10.0,0.0
103.0,86.0,50.0,-17.0,-65.0,-4.0,-29.0,6.0,-35.0,20.0,0.0
122.0,92.0,64.0,-30.0,-84.0,-6.0,-27.0,10.0,-26.0,26.0,0.0
122.0,72.0,54.0,-32.0,-88.0,1.0,-19.0,17.0,-21.0,19.0,0.0
103.0,44.0,50.0,-36.0,-100.0,19.0,-4.0,27.0,18.0,49.0,0.0
53.0,10.0,53.0,-31.0,-84.0,23.0,1.0,42.0,38.0,59.0,0.0
23.0,-8.0,52.0,-37.0,-91.0,2.0,0.0,28.0,32.0,34.0,0.0
27.0,35.0,26.0,-51.0,-165.0,-20.0,-4.0,17.0,19.0,11.0,0.0
30.0,44.0,-94.0,-38.0,-153.0,-21.0,4.0,16.0,29.0,5.0,0.0
-9.0,-12.0,-104.0,-3.0,26.0,22.0,-1.0,-11.0,19.0,-10.0,0.0
-79.0,-108.0,-63.0,8.0,183.0,60.0,5.0,-29.0,2.0,-55.0,0.0
-93.0,-133.0,-13.0,13.0,220.0,64.0,27.0,-13.0,17.0,-63.0,0.0
-63.0,-103.0,-74.0,16.0,178.0,65.0,42.0,-1.0,34.0,-45.0,0.0
-42.0,-85.0,-175.0,7.0,108.0,60.0,40.0,12.0,41.0,-36.0,0.0
-40.0,-71.0,-181.0,-4.0,71.0,57.0,49.0,17.0,45.0,-12.0,0.0
-23.0,-63.0,-124.0,-2.0,47.0,41.0,46.0,17.0,45.0,-10.0,0.0
-11.0,-58.0,-1.0,1.0,30.0,28.0,41.0,17.0,46.0,-3.0,0.0
-9.0,-45.0,44.0,-9.0,28.0,24.0,37.0,13.0,39.0,10.0,0.0
-6.0,-26.0,52.0,-9.0,25.0,26.0,33.0,8.0,21.0,5.0,0.0
-20.0,-21.0,47.0,-2.0,29.0,34.0,29.0,14.0,15.0,-13.0,0.0
-36.0,-35.0,41.0,-1.0,41.0,31.0,28.0,15.0,-7.0,-36.0,0.0
-42.0,-31.0,42.0,3.0,39.0,13.0,12.0,9.0,-26.0,-48.0,0.0
-25.0,-10.0,70.0,19.0,43.0,7.0,-5.0,-9.0,-32.0,-41.0,0.0
-2.0,-4.0,82.0,15.0,34.0,4.0,11.0,-12.0,-52.0,-23.0,0.0
14.0,4.0,71.0,21.0,23.0,3.0,38.0,-16.0,-41.0,-16.0,0.0
13.0,18.0,76.0,20.0,1.0,-5.0,27.0,-23.0,-22.0,-23.0,0.0
0.0,37.0,71.0,22.0,0.0,-10.0,11.0,-25.0,-15.0,-23.0,0.0
-5.0,18.0,29.0,28.0,15.0,-18.0,11.0,-28.0,1.0,-13.0,0.0
-10.0,20.0,-18.0,13.0,11.0,-23.0,-4.0,-32.0,-4.0,-12.0,0.0
-7.0,16.0,-2.0,15.0,11.0,-18.0,-23.0,-26.0,-21.0,-33.0,0.0
-35.0,-18.0,12.0,23.0,29.0,0.0,-7.0,-9.0,-9.0,-22.0,0.0
-24.0,-7.0,73.0,16.0,29.0,11.0,23.0,-8.0,26.0,-17.0,0.0
0.0,2.0,48.0,13.0,25.0,5.0,45.0,3.0,42.0,2.0,0.0
11.0,18.0,40.0,3.0,25.0,0.0,28.0,10.0,49.0,15.0,0.0
14.0,20.0,46.0,15.0,22.0,-5.0,9.0,10.0,65.0,13.0,0.0
11.0,24.0,47.0,23.0,23.0,-5.0,8.0,13.0,54.0,13.0,0.0
25.0,23.0,32.0,18.0,25.0,-12.0,2.0,9.0,34.0,2.0,0.0
37.0,24.0,-19.0,12.0,18.0,-14.0,-9.0,7.0,21.0,2.0,0.0
34.0,26.0,-33.0,0.0,12.0,-10.0,-16.0,10.0,15.0,-2.0,0.0
22.0,0.0,-22.0,2.0,9.0,-16.0,-29.0,0.0,15.0,-1.0,0.0
10.0,0.0,-28.0,10.0,6.0,-11.0,-29.0,-5.0,4.0,10.0,0.0
-1.0,-7.0,-75.0,1.0,9.0,-6.0,-37.0,-4.0,6.0,11.0,0.0
-12.0,-2.0,-26.0,-17.0,17.0,-10.0,-41.0,-8.0,-2.0,9.0,0.0
-27.0,-10.0,21.0,-14.0,9.0,-16.0,-38.0,-19.0,-11.0,8.0,0.0
-25.0,-4.0,34.0,-5.0,5.0,-8.0,-42.0,-17.0,-23.0,6.0,0.0
-17.0,-7.0,29.0,-2.0,5.0,-5.0,-34.0,-18.0,-26.0,0.0,0.0
-16.0,-10.0,-16.0,-2.0,-2.0,-17.0,-34.0,-18.0,-30.0,-11.0,0.0
-2.0,-4.0,-69.0,-4.0,-7.0,-24.0,-36.0,-22.0,-48.0,-6.0,0.0
12.0,-2.0,-101.0,6.0,-5.0,-17.0,-26.0,-16.0,-33.0,-4.0,0.0
15.0,10.0,-2.0,8.0,-6.0,-5.0,-5.0,-11.0,-3.0,-6.0,0.0
6.0,8.0,58.0,9.0,2.0,1.0,-7.0,-7.0,26.0,-14.0,0.0
-3.0,31.0,50.0,15.0,2.0,-1.0,-8.0,-3.0,44.0,-11.0,0.0
9.0,39.0,47.0,19.0,0.0,0.0,0.0,-2.0,63.0,-14.0,0.0
15.0,22.0,46.0,13.0,-3.0,2.0,-1.0,1.0,51.0,0.0,0.0
22.0,28.0,48.0,6.0,-13.0,-1.0,12.0,0.0,24.0,4.0,0.0
26.0,37.0,51.0,6.0,-26.0,-4.0,29.0,-4.0,17.0,5.0,0.0
25.0,20.0,47.0,5.0,-28.0,-10.0,0.0,4.0,13.0,0.0,0.0
33.0,28.0,37.0,-9.0,-33.0,-18.0,-20.0,5.0,6.0,-8.0,0.0
31.0,24.0,-14.0,-24.0,-48.0,-17.0,0.0,1.0,1.0,5.0,0.0
38.0,-4.0,-37.0,-40.0,-78.0,-13.0,-10.0,14.0,9.0,18.0,0.0
26.0,-12.0,-28.0,-62.0,-92.0,-7.0,-7.0,20.0,11.0,26.0,0.0
14.0,-6.0,-31.0,-70.0,-73.0,-16.0,-17.0,4.0,6.0,29.0,0.0
12.0,26.0,-6.0,-58.0,-48.0,-16.0,-20.0,-14.0,-3.0,8.0,0.0
-9.0,24.0,-3.0,-40.0,-6.0,-2.0,-11.0,-15.0,-12.0,-26.0,0.0
-34.0,-3.0,-27.0,-15.0,31.0,12.0,-1.0,11.0,-5.0,-37.0,0.0
-46.0,-37.0,-54.0,-31.0,17.0,23.0,44.0,46.0,17.0,-12.0,0.0
-37.0,-57.0,-55.0,-44.0,-12.0,18.0,59.0,55.0,10.0,11.0,0.0
-20.0,-39.0,-38.0,-30.0,-28.0,15.0,47.0,41.0,-9.0,-3.0,0.0
-3.0,-36.0,-15.0,2.0,-10.0,18.0,39.0,16.0,-14.0,-20.0,0.0
2.0,-21.0,25.0,38.0,6.0,9.0,29.0,8.0,-3.0,-20.0,0.0
0.0,-9.0,65.0,68.0,21.0,-20.0,32.0,-4.0,-9.0,-22.0,0.0
-11.0,0.0,53.0,77.0,18.0,-28.0,46.0,-1.0,0.0,-21.0,0.0
-13.0,-5.0,65.0,70.0,18.0,-20.0,19.0,11.0,31.0,-16.0,0.0
4.0,7.0,40.0,76.0,40.0,-15.0,0.0,1.0,50.0,-16.0,0.0
22.0,0.0,37.0,80.0,43.0,-27.0,-2.0,-11.0,41.0,-26.0,0.0
45.0,5.0,59.0,69.0,36.0,-29.0,-9.0,-26.0,12.0,-29.0,0.0
54.0,-1.0,49.0,45.0,17.0,-24.0,-17.0,-35.0,2.0,-36.0,0.0
33.0,4.0,58.0,42.0,10.0,-22.0,-28.0,-41.0,-14.0,-57.0,0.0
20.0,-6.0,57.0,45.0,14.0,-13.0,-14.0,-39.0,-22.0,-42.0,0.0
23.0,-3.0,45.0,29.0,24.0,-18.0,26.0,-38.0,-26.0,-17.0,0.0
24.0,1.0,56.0,22.0,15.0,-15.0,34.0,-27.0,-38.0,-8.0,0.0
11.0,-18.0,29.0,8.0,6.0,-12.0,43.0,-8.0,-28.0,-6.0,0.0
2.0,-10.0,14.0,-3.0,-1.0,-12.0,47.0,10.0,-18.0,5.0,0.0
0.0,2.0,16.0,-7.0,9.0,-4.0,26.0,15.0,-24.0,4.0,0.0
-2.0,34.0,22.0,-9.0,8.0,-5.0,-9.0,0.0,-34.0,3.0,0.0
0.0,31.0,23.0,-10.0,-2.0,-8.0,-38.0,-8.0,-33.0,4.0,0.0
3.0,10.0,23.0,-2.0,0.0,-7.0,-49.0,-4.0,-38.0,17.0,0.0
9.0,1.0,6.0,0.0,-6.0,2.0,-36.0,-7.0,-26.0,24.0,0.0
3.0,-24.0,-33.0,-1.0,-1.0,9.0,2.0,4.0,-18.0,34.0,0.0
13.0,-13.0,-11.0,-2.0,6.0,13.0,0.0,15.0,-13.0,35.0,0.0
15.0,-12.0,4.0,-3.0,0.0,10.0,-25.0,17.0,-15.0,27.0,0.0
17.0,-11.0,-13.0,-1.0,-8.0,6.0,-27.0,8.0,-11.0,27.0,0.0
8.0,-12.0,-56.0,-1.0,-12.0,7.0,-18.0,0.0,5.0,28.0,0.0
1.0,-2.0,-18.0,0.0,-13.0,8.0,-15.0,3.0,25.0,20.0,0.0
6.0,-14.0,-23.0,-12.0,-9.0,14.0,-17.0,16.0,32.0,6.0,0.0
13.0,-9.0,-24.0,-20.0,0.0,18.0,1.0,17.0,41.0,-3.0,0.0
-5.0,-10.0,2.0,-9.0,6.0,10.0,1.0,16.0,36.0,-1.0,0.0
-2.0,6.0,11.0,-10.0,5.0,5.0,-17.0,8.0,11.0,10.0,0.0
0.0,12.0,11.0,0.0,-1.0,4.0,-16.0,7.0,3.0,17.0,0.0
0.0,15.0,11.0,1.0,-5.0,6.0,-10.0,16.0,13.0,14.0,0.0
-7.0,17.0,5.0,-2.0,-3.0,3.0,-16.0,10.0,5.0,9.0,0.0
-8.0,5.0,12.0,-8.0,-11.0,0.0,-20.0,10.0,-3.0,1.0,0.0
0.0,17.0,7.0,-8.0,-20.0,-9.0,-25.0,2.0,-13.0,-3.0,0.0
5.0,10.0,-54.0,-8.0,-21.0,-2.0,-20.0,-3.0,-19.0,6.0,0.0
14.0,9.0,-56.0,-10.0,-13.0,-4.0,-18.0,-2.0,-31.0,11.0,0.0
9.0,17.0,2.0,-20.0,-4.0,1.0,-24.0,-3.0,-33.0,18.0,0.0
6.0,4.0,5.0,-16.0,-4.0,2.0,-28.0,-12.0,-43.0,21.0,0.0
1.0,7.0,4.0,-11.0,-9.0,1.0,-17.0,-16.0,-40.0,20.0,0.0
-11.0,4.0,-29.0,-21.0,-17.0,4.0,-7.0,-21.0,-16.0,11.0,0.0
-5.0,15.0,-13.0,-25.0,-15.0,8.0,24.0,-25.0,-4.0,11.0,0.0
-3.0,14.0,24.0,-21.0,-10.0,10.0,18.0,-23.0,11.0,11.0,0.0
0.0,4.0,22.0,-17.0,-11.0,7.0,8.0,-12.0,25.0,7.0,0.0
-11.0,21.0,14.0,-13.0,-7.0,11.0,35.0,-4.0,34.0,10.0,0.0
-19.0,21.0,14.0,-16.0,-6.0,16.0,58.0,4.0,46.0,7.0,0.0
-14.0,9.0,22.0,-12.0,-7.0,10.0,57.0,0.0,50.0,14.0,0.0
6.0,16.0,17.0,-9.0,-18.0,2.0,25.0,-5.0,33.0,9.0,0.0
27.0,17.0,6.0,-9.0,-18.0,2.0,-6.0,-1.0,17.0,8.0,0.0
35.0,0.0,4.0,-1.0,-21.0,-9.0,-11.0,10.0,9.0,14.0,0.0
57.0,18.0,-22.0,-10.0,-30.0,-12.0,-10.0,5.0,6.0,30.0,0.0
66.0,17.0,-51.0,-17.0,-41.0,-9.0,-11.0,3.0,3.0,36.0,0.0
69.0,23.0,13.0,-28.0,-45.0,-19.0,-20.0,6.0,10.0,31.0,0.0
70.0,68.0,29.0,-34.0,-39.0,-26.0,-22.0,8.0,7.0,33.0,0.0
81.0,89.0,28.0,-26.0,-34.0,-27.0,-27.0,-3.0,-26.0,18.0,0.0
68.0,74.0,-2.0,-39.0,0.0,0.0,-27.0,-13.0,-35.0,2.0,0.0
56.0,42.0,-54.0,-57.0,36.0,19.0,-23.0,-21.0,-29.0,12.0,0.0
52.0,28.0,-11.0,-56.0,4.0,-3.0,-1.0,-17.0,-19.0,27.0,0.0
21.0,-43.0,-77.0,-49.0,-46.0,-11.0,30.0,0.0,-11.0,35.0,0.0
-13.0,-105.0,-118.0,-20.0,-47.0,-10.0,9.0,7.0,-19.0,31.0,0.0
-47.0,-118.0,-34.0,-5.0,-30.0,1.0,-24.0,0.0,-25.0,3.0,0.0
-81.0,-112.0,-7.0,-22.0,-6.0,35.0,6.0,16.0,-5.0,-4.0,0.0
-93.0,-90.0,20.0,-19.0,40.0,40.0,47.0,17.0,8.0,-12.0,0.0
-98.0,-58.0,32.0,20.0,73.0,16.0,40.0,4.0,0.0,-28.0,0.0
-109.0,-40.0,44.0,28.0,50.0,10.0,24.0,0.0,12.0,-40.0,0.0
-83.0,-36.0,42.0,22.0,29.0,1.0,35.0,2.0,24.0,-48.0,0.0
-44.0,-19.0,19.0,17.0,24.0,5.0,35.0,-1.0,40.0,-46.0,0.0
-18.0,-19.0,-2.0,15.0,17.0,5.0,7.0,-4.0,56.0,-40.0,0.0
-9.0,-14.0,-13.0,12.0,8.0,-1.0,-14.0,0.0,36.0,-24.0,0.0
-15.0,-26.0,-36.0,21.0,9.0,-1.0,0.0,-1.0,19.0,-25.0,0.0
-12.0,-9.0,-19.0,23.0,5.0,4.0,-1.0,-11.0,18.0,-26.0,0.0
-11.0,-8.0,26.0,30.0,12.0,7.0,-17.0,-7.0,31.0,-2.0,0.0
-14.0,-18.0,21.0,30.0,21.0,6.0,-10.0,-5.0,29.0,-7.0,0.0
-21.0,-27.0,-59.0,30.0,27.0,0.0,-1.0,-8.0,18.0,-27.0,0.0
-18.0,-35.0,-24.0,30.0,36.0,-7.0,-27.0,-5.0,-15.0,-33.0,0.0
-9.0,-13.0,48.0,34.0,34.0,-6.0,-36.0,-18.0,-41.0,-38.0,0.0
16.0,31.0,84.0,29.0,28.0,-8.0,-46.0,-34.0,-53.0,-34.0,0.0
46.0,57.0,83.0,30.0,3.0,-12.0,-33.0,-37.0,-58.0,-9.0,0.0
43.0,59.0,60.0,28.0,-20.0,-3.0,-5.0,-29.0,-47.0,-8.0,0.0
41.0,21.0,32.0,4.0,-23.0,8.0,-3.0,-7.0,-25.0,0.0,0.0
37.0,-19.0,-23.0,-2.0,-22.0,9.0,-3.0,-1.0,-2.0,7.0,0.0
33.0,-48.0,-71.0,1.0,-46.0,12.0,0.0,12.0,27.0,24.0,0.0
17.0,-50.0,15.0,9.0,-57.0,17.0,0.0,12.0,42.0,33.0,0.0
0.0,-49.0,33.0,18.0,8.0,19.0,-1.0,-3.0,40.0,21.0,0.0
-12.0,-49.0,12.0,8.0,68.0,7.0,-11.0,-16.0,40.0,14.0,0.0
-14.0,-30.0,-23.0,-9.0,7.0,-10.0,-8.0,3.0,67.0,23.0,0.0
-11.0,-4.0,-97.0,-15.0,-39.0,-6.0,7.0,6.0,82.0,42.0,0.0
-17.0,17.0,-142.0,-20.0,-38.0,12.0,18.0,-6.0,59.0,21.0,0.0
6.0,42.0,-77.0,-15.0,-35.0,19.0,26.0,-18.0,38.0,7.0,0.0
25.0,55.0,10.0,-13.0,-17.0,24.0,19.0,-19.0,0.0,9.0,0.0
26.0,14.0,11.0,-15.0,10.0,36.0,3.0,-13.0,-12.0,9.0,0.0
15.0,-22.0,-13.0,-31.0,10.0,45.0,-8.0,0.0,-1.0,26.0,0.0
7.0,-65.0,-29.0,-28.0,12.0,41.0,19.0,2.0,9.0,49.0,0.0
-8.0,-80.0,-34.0,-19.0,-3.0,34.0,54.0,14.0,36.0,64.0,0.0
-19.0,-34.0,-7.0,-11.0,-11.0,18.0,59.0,-1.0,15.0,47.0,0.0
-33.0,-6.0,13.0,3.0,-1.0,14.0,29.0,-24.0,-17.0,-6.0,0.0
-21.0,1.0,26.0,7.0,-2.0,15.0,-5.0,-18.0,-16.0,-1.0,0.0
9.0,21.0,36.0,6.0,-24.0,20.0,0.0,-15.0,3.0,14.0,0.0
10.0,8.0,37.0,-13.0,-48.0,21.0,31.0,-14.0,11.0,1.0,0.0
-10.0,-3.0,26.0,-15.0,-54.0,13.0,51.0,-15.0,9.0,-17.0,0.0
-21.0,-4.0,-9.0,-29.0,-68.0,8.0,47.0,-5.0,9.0,-13.0,0.0
-11.0,3.0,-25.0,-43.0,-98.0,3.0,8.0,8.0,3.0,-2.0,0.0
-11.0,-4.0,-15.0,-38.0,-88.0,5.0,-8.0,15.0,-6.0,2.0,0.0
-15.0,-6.0,-22.0,13.0,46.0,25.0,-14.0,-2.0,-48.0,-11.0,0.0
-20.0,-20.0,-34.0,63.0,155.0,34.0,-26.0,-33.0,-76.0,-33.0,0.0
-7.0,-7.0,-33.0,28.0,95.0,17.0,-23.0,-25.0,-63.0,-22.0,0.0
3.0,19.0,-55.0,0.0,23.0,-4.0,-40.0,-19.0,-69.0,-5.0,0.0
-7.0,33.0,-2.0,5.0,4.0,-11.0,-46.0,-22.0,-48.0,10.0,0.0
-24.0,27.0,22.0,17.0,-2.0,-18.0,-38.0,-17.0,-22.0,10.0,0.0
-47.0,29.0,29.0,22.0,-9.0,-33.0,-34.0,-15.0,-17.0,-8.0,0.0
-74.0,16.0,54.0,43.0,2.0,-43.0,-39.0,-23.0,-10.0,-11.0,0.0
-80.0,25.0,76.0,63.0,20.0,-26.0,-48.0,-26.0,-5.0,-11.0,0.0
-52.0,14.0,60.0,52.0,11.0,-15.0,-48.0,-17.0,0.0,0.0,0.0
-14.0,25.0,45.0,42.0,15.0,-26.0,-29.0,-7.0,0.0,8.0,0.0
-1.0,40.0,45.0,39.0,13.0,-32.0,-32.0,-10.0,1.0,4.0,0.0
5.0,14.0,43.0,28.0,8.0,-19.0,-41.0,-3.0,-8.0,0.0,0.0
2.0,19.0,45.0,23.0,16.0,-15.0,-12.0,7.0,-16.0,3.0,0.0
0.0,8.0,32.0,23.0,7.0,-5.0,20.0,-1.0,-16.0,2.0,0.0
-2.0,0.0,22.0,23.0,6.0,4.0,34.0,-11.0,-19.0,6.0,0.0
-6.0,-3.0,11.0,18.0,3.0,-8.0,24.0,-3.0,-8.0,15.0,0.0
0.0,-7.0,-12.0,9.0,2.0,-19.0,23.0,2.0,0.0,17.0,0.0
13.0,-2.0,-11.0,5.0,-7.0,-13.0,7.0,-1.0,-8.0,13.0,0.0
22.0,-8.0,12.0,-9.0,-15.0,-6.0,-31.0,-1.0,-21.0,4.0,0.0
20.0,-13.0,13.0,-4.0,1.0,0.0,-36.0,0.0,-26.0,0.0,0.0
13.0,-5.0,-2.0,6.0,1.0,-5.0,-37.0,-6.0,-32.0,-5.0,0.0
19.0,0.0,1.0,2.0,2.0,-17.0,-20.0,-5.0,-40.0,-2.0,0.0
7.0,-2.0,-12.0,2.0,-5.0,-13.0,1.0,-3.0,-36.0,-3.0,0.0
-4.0,-3.0,-100.0,0.0,-10.0,-9.0,10.0,-6.0,-16.0,-7.0,0.0
-3.0,-10.0,-61.0,-2.0,-12.0,-4.0,11.0,-7.0,3.0,-6.0,0.0
0.0,-5.0,-25.0,0.0,-14.0,-6.0,-3.0,-7.0,12.0,0.0,0.0
-1.0,4.0,8.0,-4.0,-22.0,-8.0,-14.0,-5.0,30.0,5.0,0.0
10.0,5.0,18.0,-11.0,-22.0,-7.0,-5.0,8.0,30.0,4.0,0.0
28.0,11.0,11.0,-5.0,-18.0,-7.0,-4.0,1.0,19.0,18.0,0.0
33.0,6.0,23.0,-2.0,-20.0,-11.0,22.0,1.0,8.0,17.0,0.0
30.0,6.0,17.0,-4.0,-24.0,-12.0,29.0,3.0,-4.0,3.0,0.0
29.0,17.0,16.0,-7.0,-27.0,-7.0,11.0,8.0,-12.0,2.0,0.0
36.0,9.0,5.0,-7.0,-36.0,-7.0,-14.0,9.0,-10.0,2.0,0.0
48.0,22.0,-105.0,-21.0,-44.0,-15.0,-6.0,14.0,-8.0,1.0,0.0
43.0,10.0,-113.0,-27.0,-62.0,-10.0,1.0,26.0,-9.0,18.0,0.0
27.0,7.0,-30.0,-32.0,-40.0,6.0,0.0,23.0,-16.0,21.0,0.0
12.0,-9.0,-36.0,-27.0,10.0,8.0,13.0,19.0,-21.0,15.0,0.0
6.0,-27.0,-35.0,-39.0,8.0,2.0,14.0,20.0,-20.0,13.0,0.0
4.0,-29.0,-28.0,-47.0,-11.0,1.0,25.0,22.0,-27.0,6.0,0.0
9.0,-28.0,-29.0,-45.0,-24.0,-3.0,22.0,31.0,-32.0,0.0,0.0
8.0,-29.0,-27.0,-43.0,-25.0,-13.0,17.0,30.0,-25.0,-6.0,0.0
8.0,-16.0,-37.0,-44.0,-37.0,-5.0,22.0,22.0,-7.0,2.0,0.0
26.0,22.0,-18.0,-43.0,-49.0,-11.0,33.0,28.0,23.0,32.0,0.0
37.0,56.0,13.0,-23.0,-46.0,-5.0,21.0,28.0,58.0,44.0,0.0
44.0,44.0,9.0,-6.0,-24.0,4.0,-1.0,23.0,73.0,48.0,0.0
37.0,39.0,1.0,3.0,15.0,4.0,-7.0,14.0,50.0,39.0,0.0
36.0,53.0,17.0,2.0,38.0,-6.0,-26.0,6.0,15.0,15.0,0.0
46.0,52.0,33.0,-3.0,-4.0,-20.0,-51.0,-15.0,-15.0,4.0,0.0
34.0,23.0,54.0,15.0,-30.0,-7.0,-39.0,-18.0,-23.0,-1.0,0.0
5.0,6.0,58.0,35.0,-22.0,16.0,-31.0,-17.0,-16.0,-22.0,0.0
-5.0,-3.0,54.0,50.0,-15.0,10.0,-38.0,-22.0,-24.0,-29.0,0.0
-1.0,-34.0,18.0,47.0,27.0,-5.0,-55.0,-33.0,-33.0,-21.0,0.0
-14.0,-75.0,-19.0,31.0,66.0,-11.0,-46.0,-34.0,-44.0,-22.0,0.0
-30.0,-83.0,-38.0,17.0,72.0,2.0,-29.0,-17.0,-46.0,-13.0,0.0
-36.0,-58.0,-12.0,4.0,55.0,8.0,-14.0,-14.0,-33.0,-10.0,0.0
-24.0,-33.0,-51.0,-6.0,27.0,4.0,-15.0,-5.0,-31.0,-6.0,0.0
-15.0,-20.0,-75.0,-10.0,18.0,1.0,3.0,0.0,-34.0,4.0,0.0
-3.0,-19.0,16.0,-12.0,23.0,9.0,20.0,5.0,-24.0,-9.0,0.0
9.0,-17.0,23.0,-9.0,15.0,8.0,21.0,14.0,-5.0,-13.0,0.0
9.0,-8.0,22.0,3.0,9.0,5.0,22.0,20.0,-4.0,-21.0,0.0
15.0,-6.0,-8.0,4.0,7.0,6.0,39.0,13.0,3.0,-32.0,0.0
-9.0,-10.0,-105.0,5.0,10.0,24.0,42.0,26.0,24.0,-29.0,0.0
-41.0,-46.0,-50.0,0.0,25.0,24.0,56.0,41.0,37.0,11.0,0.0
-46.0,-26.0,-5.0,-11.0,16.0,-5.0,44.0,20.0,38.0,8.0,0.0
-66.0,29.0,18.0,7.0,2.0,-13.0,18.0,-9.0,13.0,-34.0,0.0
-86.0,22.0,33.0,21.0,1.0,-10.0,9.0,-15.0,22.0,-35.0,0.0
-47.0,31.0,25.0,13.0,9.0,-8.0,5.0,5.0,44.0,-12.0,0.0
-22.0,40.0,28.0,12.0,23.0,1.0,11.0,11.0,45.0,4.0,0.0
-15.0,7.0,13.0,-2.0,10.0,-3.0,5.0,15.0,36.0,-3.0,0.0
-10.0,14.0,4.0,-6.0,-4.0,-7.0,2.0,18.0,35.0,0.0,0.0
-19.0,14.0,2.0,-10.0,-13.0,-19.0,-16.0,7.0,9.0,-1.0,0.0
-20.0,18.0,-16.0,-8.0,-12.0,-15.0,-27.0,1.0,-20.0,-5.0,0.0
-18.0,3.0,-18.0,-14.0,-9.0,-15.0,-27.0,-6.0,-19.0,-2.0,0.0
-2.0,37.0,-16.0,-16.0,-23.0,-26.0,-37.0,-16.0,-24.0,-2.0,0.0
23.0,73.0,8.0,-4.0,-24.0,-37.0,-43.0,-20.0,-42.0,0.0,0.0
42.0,56.0,28.0,16.0,-24.0,-34.0,-25.0,-5.0,-40.0,4.0,0.0
44.0,39.0,27.0,17.0,-25.0,-25.0,-41.0,13.0,-25.0,6.0,0.0
42.0,26.0,-19.0,2.0,-26.0,-30.0,-60.0,5.0,-27.0,9.0,0.0
27.0,-17.0,-54.0,1.0,2.0,-1.0,-14.0,0.0,-14.0,25.0,0.0
3.0,-52.0,-22.0,6.0,16.0,33.0,20.0,11.0,21.0,11.0,0.0
13.0,-39.0,-5.0,-4.0,-21.0,22.0,15.0,7.0,40.0,4.0,0.0
27.0,1.0,-12.0,-10.0,-53.0,10.0,37.0,6.0,53.0,27.0,0.0
30.0,9.0,-56.0,-14.0,-81.0,3.0,36.0,13.0,48.0,27.0,0.0
37.0,44.0,0.0,-23.0,-97.0,3.0,38.0,16.0,47.0,27.0,0.0
28.0,58.0,40.0,-11.0,-54.0,5.0,29.0,-1.0,32.0,13.0,0.0
-4.0,23.0,33.0,18.0,55.0,4.0,18.0,-27.0,5.0,-18.0,0.0
-11.0,3.0,17.0,11.0,115.0,-4.0,-9.0,-58.0,-32.0,-44.0,0.0
1.0,6.0,26.0,-5.0,56.0,-11.0,-23.0,-59.0,-35.0,-31.0,0.0
4.0,-28.0,30.0,-9.0,31.0,-5.0,-7.0,-43.0,-26.0,-11.0,0.0
24.0,-35.0,37.0,-3.0,37.0,2.0,-4.0,-32.0,-30.0,-15.0,0.0
72.0,-7.0,45.0,-1.0,24.0,-10.0,-23.0,-33.0,-58.0,-7.0,0.0
91.0,2.0,27.0,-13.0,0.0,-9.0,-30.0,-35.0,-60.0,-1.0,0.0
109.0,3.0,21.0,-25.0,-37.0,-1.0,-39.0,-11.0,-43.0,7.0,0.0
114.0,26.0,22.0,-39.0,-89.0,0.0,-33.0,11.0,-24.0,21.0,0.0
73.0,3.0,11.0,-46.0,-79.0,22.0,-22.0,20.0,-4.0,38.0,0.0
2.0,-12.0,11.0,-26.0,-16.0,41.0,-3.0,28.0,27.0,41.0,0.0
-42.0,-9.0,35.0,-8.0,-28.0,29.0,1.0,30.0,49.0,20.0,0.0
-57.0,2.0,37.0,-14.0,-48.0,21.0,6.0,19.0,49.0,14.0,0.0
-80.0,-21.0,11.0,16.0,27.0,30.0,-3.0,6.0,33.0,4.0,0.0
-131.0,-52.0,-80.0,82.0,157.0,40.0,-17.0,-23.0,3.0,-32.0,0.0
-126.0,-44.0,-123.0,85.0,161.0,27.0,-28.0,-34.0,-3.0,-47.0,0.0
-83.0,-18.0,-115.0,45.0,82.0,26.0,0.0,-13.0,1.0,-42.0,0.0
-52.0,-20.0,-125.0,31.0,41.0,30.0,14.0,-2.0,8.0,-40.0,0.0
-33.0,-29.0,-29.0,34.0,36.0,25.0,24.0,3.0,18.0,-17.0,0.0
-14.0,-32.0,-10.0,20.0,26.0,20.0,30.0,-1.0,8.0,-7.0,0.0
-6.0,-28.0,9.0,13.0,22.0,6.0,19.0,-5.0,2.0,-6.0,0.0
-7.0,-19.0,32.0,4.0,21.0,-4.0,-2.0,-5.0,-10.0,-11.0,0.0
-27.0,-23.0,32.0,-3.0,17.0,-8.0,-6.0,-4.0,-22.0,-31.0,0.0
-61.0,-29.0,38.0,7.0,17.0,-1.0,-9.0,-9.0,-32.0,-27.0,0.0
-78.0,-30.0,28.0,16.0,18.0,4.0,-9.0,-6.0,-43.0,0.0,0.0
-68.0,-30.0,0.0,15.0,4.0,1.0,-19.0,5.0,-27.0,7.0,0.0
-44.0,-14.0,24.0,3.0,5.0,-10.0,-36.0,6.0,-23.0,8.0,0.0
-38.0,-3.0,34.0,6.0,18.0,-11.0,-46.0,14.0,-24.0,11.0,0.0
-27.0,-7.0,39.0,9.0,18.0,-7.0,-44.0,13.0,-3.0,18.0,0.0
-17.0,9.0,43.0,17.0,22.0,5.0,-39.0,3.0,1.0,14.0,0.0
-17.0,9.0,38.0,7.0,21.0,10.0,-32.0,1.0,12.0,15.0,0.0
-6.0,15.0,38.0,6.0,13.0,16.0,-16.0,15.0,27.0,26.0,0.0
6.0,18.0,39.0,-1.0,9.0,15.0,6.0,26.0,44.0,30.0,0.0
11.0,24.0,23.0,-5.0,19.0,11.0,0.0,30.0,55.0,17.0,0.0
7.0,12.0,18.0,-4.0,19.0,4.0,0.0,15.0,53.0,17.0,0.0
11.0,5.0,28.0,3.0,17.0,-2.0,0.0,12.0,28.0,19.0,0.0
15.0,5.0,31.0,6.0,22.0,-3.0,-5.0,21.0,22.0,8.0,0.0
17.0,0.0,43.0,4.0,8.0,-3.0,-3.0,16.0,19.0,1.0,0.0
13.0,2.0,37.0,-3.0,-3.0,-10.0,9.0,8.0,3.0,8.0,0.0
26.0,9.0,30.0,-2.0,4.0,-13.0,-14.0,-2.0,0.0,11.0,0.0
32.0,9.0,31.0,-17.0,7.0,-10.0,-28.0,-5.0,2.0,4.0,0.0
29.0,-3.0,22.0,-24.0,12.0,-17.0,-28.0,-1.0,-7.0,-3.0,0.0
24.0,-24.0,3.0,-23.0,-1.0,-11.0,-22.0,12.0,-11.0,6.0,0.0
29.0,-22.0,-8.0,-37.0,-10.0,-6.0,-15.0,7.0,0.0,14.0,0.0
8.0,-20.0,-10.0,-51.0,-7.0,-2.0,-11.0,8.0,5.0,14.0,0.0
0.0,-12.0,-21.0,-42.0,-1.0,-13.0,-1.0,20.0,4.0,24.0,0.0
-7.0,-6.0,-34.0,-30.0,-15.0,-3.0,28.0,21.0,6.0,24.0,0.0
2.0,-1.0,-38.0,-36.0,-12.0,4.0,48.0,22.0,5.0,13.0,0.0
10.0,-2.0,-36.0,-37.0,-8.0,1.0,55.0,15.0,7.0,12.0,0.0
-1.0,0.0,-12.0,-36.0,-5.0,0.0,51.0,4.0,14.0,-2.0,0.0
-7.0,11.0,5.0,-22.0,0.0,3.0,51.0,9.0,22.0,6.0,0.0
5.0,1.0,9.0,0.0,9.0,6.0,46.0,7.0,39.0,3.0,0.0
0.0,10.0,2.0,-6.0,4.0,2.0,12.0,13.0,55.0,-9.0,0.0
-2.0,24.0,15.0,-7.0,-6.0,2.0,11.0,2.0,41.0,-5.0,0.0
-7.0,34.0,18.0,-17.0,-5.0,-11.0,39.0,0.0,25.0,10.0,0.0
-9.0,24.0,0.0,-28.0,-16.0,-10.0,32.0,4.0,13.0,6.0,0.0
-11.0,-2.0,-7.0,-11.0,-16.0,-5.0,14.0,4.0,-7.0,-2.0,0.0
-6.0,12.0,4.0,-7.0,1.0,-9.0,-10.0,-3.0,-30.0,-17.0,0.0
0.0,35.0,20.0,-2.0,17.0,-22.0,-34.0,-17.0,-38.0,-25.0,0.0
25.0,71.0,32.0,1.0,3.0,-36.0,-41.0,-30.0,-35.0,-15.0,0.0
57.0,93.0,45.0,0.0,-4.0,-37.0,-33.0,-29.0,-42.0,4.0,0.0
63.0,92.0,51.0,10.0,-7.0,-31.0,-54.0,-28.0,-48.0,17.0,0.0
69.0,52.0,38.0,19.0,-16.0,-24.0,-59.0,-31.0,-45.0,10.0,0.0
77.0,7.0,31.0,23.0,-12.0,-6.0,-50.0,-17.0,-29.0,8.0,0.0
63.0,4.0,41.0,23.0,-12.0,11.0,-40.0,0.0,-28.0,7.0,0.0
56.0,-14.0,35.0,1.0,-19.0,14.0,-33.0,14.0,-23.0,3.0,0.0
29.0,-26.0,8.0,-8.0,-27.0,3.0,-18.0,19.0,0.0,17.0,0.0
-4.0,-31.0,-49.0,0.0,-21.0,5.0,-7.0,33.0,15.0,9.0,0.0
-49.0,-43.0,-15.0,-6.0,-9.0,11.0,5.0,50.0,43.0,0.0,0.0
-73.0,-27.0,-5.0,-4.0,33.0,10.0,17.0,39.0,36.0,-45.0,0.0
-77.0,2.0,6.0,25.0,79.0,11.0,34.0,12.0,19.0,-80.0,0.0
-62.0,5.0,7.0,35.0,67.0,20.0,23.0,8.0,21.0,-69.0,0.0
-28.0,20.0,0.0,35.0,49.0,22.0,24.0,8.0,35.0,-56.0,0.0
-14.0,16.0,-15.0,27.0,45.0,4.0,15.0,14.0,36.0,-36.0,0.0
-13.0,12.0,-106.0,29.0,30.0,0.0,10.0,25.0,35.0,-15.0,0.0
-1.0,-4.0,-183.0,16.0,25.0,1.0,7.0,26.0,31.0,-6.0,0.0
5.0,-19.0,-180.0,3.0,27.0,5.0,14.0,24.0,25.0,-10.0,0.0
5.0,-10.0,-97.0,-10.0,27.0,7.0,19.0,22.0,18.0,-13.0,0.0
4.0,-34.0,-16.0,-12.0,21.0,2.0,18.0,25.0,20.0,-14.0,0.0
8.0,-30.0,1.0,-3.0,24.0,13.0,18.0,21.0,13.0,-6.0,0.0
30.0,-23.0,12.0,-3.0,22.0,16.0,36.0,10.0,-7.0,-5.0,0.0
31.0,-17.0,7.0,-18.0,18.0,16.0,30.0,4.0,-23.0,-1.0,0.0
-2.0,-2.0,24.0,-13.0,3.0,12.0,0.0,-2.0,-40.0,7.0,0.0
-33.0,-13.0,-24.0,-7.0,-7.0,1.0,9.0,-8.0,-36.0,4.0,0.0
-37.0,-6.0,-51.0,-9.0,-6.0,4.0,8.0,1.0,-37.0,6.0,0.0
-51.0,-12.0,-6.0,-16.0,-2.0,5.0,0.0,4.0,-43.0,1.0,0.0
-53.0,-11.0,-22.0,-14.0,-6.0,1.0,0.0,10.0,-21.0,0.0,0.0
-45.0,-9.0,-39.0,2.0,-3.0,-2.0,4.0,11.0,0.0,0.0,0.0
-35.0,2.0,21.0,15.0,-2.0,-10.0,8.0,13.0,5.0,0.0,0.0
-11.0,5.0,38.0,22.0,-10.0,-21.0,10.0,21.0,7.0,5.0,0.0
5.0,21.0,48.0,26.0,-23.0,-35.0,4.0,21.0,28.0,4.0,0.0
37.0,32.0,54.0,22.0,-31.0,-46.0,6.0,13.0,38.0,4.0,0.0
64.0,47.0,39.0,-2.0,-45.0,-55.0,13.0,12.0,39.0,26.0,0.0
89.0,66.0,28.0,-19.0,-81.0,-66.0,18.0,13.0,44.0,44.0,0.0
104.0,87.0,42.0,-21.0,-105.0,-59.0,11.0,12.0,31.0,51.0,0.0
96.0,89.0,34.0,-11.0,-48.0,-32.0,8.0,3.0,5.0,35.0,0.0
109.0,70.0,19.0,-20.0,-1.0,-20.0,25.0,2.0,-9.0,17.0,0.0
99.0,51.0,12.0,-5.0,12.0,4.0,47.0,5.0,-17.0,1.0,0.0
84.0,76.0,36.0,-2.0,4.0,6.0,46.0,2.0,-42.0,-11.0,0.0
76.0,102.0,59.0,29.0,31.0,-5.0,23.0,-24.0,-63.0,-24.0,0.0
53.0,55.0,35.0,31.0,68.0,-19.0,-2.0,-23.0,-60.0,-1.0,0.0
19.0,-30.0,-1.0,-10.0,17.0,-21.0,-3.0,14.0,-11.0,51.0,0.0
0.0,-67.0,2.0,-23.0,-39.0,-6.0,2.0,25.0,-7.0,40.0,0.0
-7.0,-52.0,27.0,-8.0,-21.0,3.0,-13.0,1.0,-44.0,-6.0,0.0
-62.0,-78.0,0.0,19.0,92.0,24.0,-25.0,-17.0,-46.0,-39.0,0.0
-87.0,-95.0,-55.0,17.0,131.0,16.0,-25.0,-27.0,-30.0,-40.0,0.0
-64.0,-50.0,-43.0,11.0,76.0,-4.0,-14.0,-24.0,9.0,-41.0,0.0
-59.0,-22.0,-9.0,16.0,40.0,-13.0,-8.0,-12.0,24.0,-22.0,0.0
-74.0,-39.0,-22.0,11.0,24.0,-7.0,28.0,11.0,41.0,8.0,0.0
-87.0,-56.0,-13.0,0.0,17.0,0.0,62.0,24.0,58.0,18.0,0.0
-72.0,-56.0,19.0,25.0,19.0,7.0,62.0,12.0,35.0,14.0,0.0
-60.0,-62.0,45.0,31.0,21.0,15.0,54.0,8.0,14.0,0.0,0.0
-54.0,-60.0,44.0,14.0,14.0,18.0,44.0,3.0,9.0,-1.0,0.0
-18.0,-52.0,36.0,10.0,15.0,16.0,12.0,0.0,-4.0,0.0,0.0
19.0,-30.0,39.0,-8.0,-2.0,0.0,-10.0,-2.0,-28.0,-12.0,0.0
13.0,-26.0,30.0,-18.0,-23.0,-11.0,-23.0,-5.0,-23.0,-21.0,0.0
-8.0,-29.0,-57.0,-10.0,-27.0,-7.0,-20.0,1.0,-11.0,-37.0,0.0
-19.0,-23.0,-137.0,-12.0,-26.0,-10.0,-15.0,15.0,-22.0,-31.0,0.0
-31.0,-20.0,-57.0,-1.0,-17.0,3.0,-11.0,6.0,-39.0,-9.0,0.0
-35.0,-20.0,-3.0,1.0,-5.0,7.0,-15.0,-7.0,-37.0,5.0,0.0
5.0,-18.0,2.0,-4.0,3.0,-3.0,-13.0,-1.0,-32.0,2.0,0.0
30.0,-7.0,5.0,-1.0,-1.0,-1.0,1.0,0.0,-33.0,-6.0,0.0
37.0,9.0,11.0,4.0,-3.0,0.0,38.0,5.0,-12.0,-17.0,0.0
23.0,18.0,6.0,2.0,-3.0,-11.0,43.0,11.0,2.0,-24.0,0.0
27.0,18.0,12.0,-11.0,0.0,-7.0,37.0,10.0,10.0,-10.0,0.0
29.0,20.0,11.0,-14.0,-10.0,-10.0,43.0,6.0,21.0,-4.0,0.0
13.0,7.0,14.0,-17.0,-4.0,-8.0,44.0,2.0,24.0,-19.0,0.0
-34.0,10.0,15.0,-23.0,-1.0,-7.0,47.0,-2.0,26.0,-26.0,0.0
-65.0,0.0,7.0,-20.0,-12.0,-14.0,27.0,-11.0,12.0,-12.0,0.0
-54.0,-3.0,0.0,-10.0,-21.0,-30.0,-16.0,-10.0,-5.0,7.0,0.0
-17.0,-2.0,-1.0,-7.0,-33.0,-44.0,-40.0,-8.0,-10.0,9.0,0.0
-8.0,5.0,-13.0,-11.0,-36.0,-44.0,-28.0,-9.0,-12.0,8.0,0.0
3.0,5.0,0.0,-23.0,-38.0,-27.0,-30.0,-7.0,-4.0,8.0,0.0
7.0,10.0,-3.0,-18.0,-38.0,-22.0,-39.0,-9.0,-17.0,11.0,0.0
-8.0,-7.0,-7.0,-34.0,-51.0,-33.0,-38.0,-7.0,-34.0,3.0,0.0
0.0,-16.0,-19.0,-54.0,-71.0,-48.0,-29.0,-8.0,-25.0,4.0,0.0
-8.0,-9.0,-20.0,-34.0,-54.0,-29.0,-23.0,-7.0,-14.0,6.0,0.0
-23.0,-16.0,-13.0,-10.0,-35.0,-15.0,-28.0,-17.0,-13.0,2.0,0.0
-14.0,-1.0,-21.0,-23.0,-40.0,-18.0,-25.0,-19.0,-18.0,0.0,0.0
3.0,15.0,-52.0,-33.0,-54.0,-8.0,-8.0,0.0,-3.0,11.0,0.0
-3.0,25.0,-22.0,-14.0,-34.0,0.0,1.0,-4.0,18.0,11.0,0.0
-29.0,19.0,-17.0,25.0,18.0,7.0,10.0,-9.0,24.0,21.0,0.0
-21.0,29.0,-10.0,27.0,27.0,8.0,7.0,-14.0,17.0,15.0,0.0
-13.0,43.0,1.0,11.0,-4.0,15.0,8.0,-3.0,19.0,5.0,0.0
-13.0,23.0,-6.0,2.0,-10.0,29.0,10.0,0.0,51.0,15.0,0.0
8.0,17.0,2.0,7.0,16.0,22.0,16.0,5.0,53.0,27.0,0.0
22.0,6.0,9.0,2.0,11.0,12.0,15.0,13.0,35.0,35.0,0.0
30.0,-28.0,-5.0,-10.0,-24.0,0.0,17.0,-5.0,14.0,22.0,0.0
17.0,-26.0,-11.0,-27.0,-26.0,-29.0,-2.0,-10.0,-1.0,13.0,0.0
14.0,-21.0,0.0,-27.0,-18.0,-43.0,-20.0,0.0,-15.0,3.0,0.0
20.0,-19.0,2.0,-25.0,-45.0,-37.0,-18.0,8.0,-23.0,20.0,0.0
20.0,-15.0,-1.0,-30.0,-54.0,-40.0,-15.0,-4.0,-23.0,37.0,0.0
15.0,-22.0,-73.0,-23.0,-36.0,-38.0,-22.0,-24.0,-38.0,23.0,0.0
0.0,-29.0,-76.0,2.0,3.0,-5.0,-14.0,-36.0,-62.0,9.0,0.0
-9.0,-23.0,-5.0,13.0,45.0,14.0,-6.0,-45.0,-75.0,-3.0,0.0
-3.0,-23.0,-9.0,2.0,53.0,7.0,0.0,-38.0,-65.0,-13.0,0.0
17.0,-14.0,-42.0,4.0,33.0,-11.0,-4.0,-24.0,-61.0,-15.0,0.0
28.0,-10.0,-56.0,17.0,18.0,-21.0,-32.0,-20.0,-53.0,-20.0,0.0
21.0,-14.0,-42.0,22.0,16.0,-12.0,-19.0,-12.0,-32.0,-29.0,0.0
11.0,-6.0,3.0,25.0,4.0,5.0,6.0,3.0,-5.0,-31.0,0.0
17.0,1.0,29.0,27.0,5.0,22.0,16.0,6.0,6.0,-32.0,0.0
13.0,17.0,19.0,33.0,1.0,18.0,15.0,19.0,9.0,-31.0,0.0
20.0,13.0,23.0,22.0,-14.0,1.0,30.0,32.0,41.0,-24.0,0.0
25.0,24.0,28.0,14.0,-25.0,-3.0,26.0,28.0,59.0,-9.0,0.0
8.0,3.0,7.0,14.0,20.0,12.0,18.0,17.0,37.0,-8.0,0.0
4.0,-11.0,-14.0,1.0,73.0,25.0,17.0,12.0,22.0,-4.0,0.0
12.0,-22.0,-38.0,-4.0,39.0,19.0,19.0,19.0,16.0,3.0,0.0
22.0,-27.0,0.0,-7.0,6.0,11.0,17.0,15.0,21.0,2.0,0.0
16.0,-23.0,3.0,0.0,3.0,23.0,31.0,5.0,31.0,-2.0,0.0
14.0,-13.0,-5.0,-9.0,2.0,29.0,43.0,6.0,18.0,-4.0,0.0
14.0,-26.0,-4.0,-4.0,-9.0,25.0,11.0,9.0,5.0,-5.0,0.0
14.0,-25.0,-35.0,-5.0,-24.0,16.0,-8.0,11.0,-4.0,-11.0,0.0
22.0,-19.0,-5.0,-11.0,-32.0,16.0,-21.0,13.0,-7.0,-24.0,0.0
19.0,-8.0,0.0,-18.0,-25.0,23.0,-34.0,20.0,-17.0,-5.0,0.0
17.0,-12.0,-7.0,-21.0,-38.0,26.0,-28.0,26.0,-17.0,1.0,0.0
