channel0,channel1,channel2,channel3,channel4,channel5,channel6,channel7,channel8,channel9,true_locs
-104.0,-75.0,-48.0,-37.0,-65.0,-47.0,-34.0,-5.0,-17.0,16.0,0.0
-90.0,-59.0,-28.0,-50.0,-93.0,-63.0,-40.0,-18.0,-35.0,12.0,0.0
-32.0,-9.0,-14.0,-51.0,-101.0,-62.0,-28.0,-18.0,-29.0,16.0,0.0
68.0,49.0,-8.0,-44.0,-98.0,-32.0,-17.0,-6.0,-20.0,8.0,0.0
200.0,89.0,-15.0,-54.0,-87.0,-20.0,-7.0,9.0,-14.0,12.0,0.0
307.0,105.0,-29.0,-72.0,-72.0,-19.0,-6.0,11.0,-6.0,33.0,0.0
364.0,165.0,-39.0,-45.0,-12.0,-16.0,-16.0,7.0,1.0,69.0,0.0
200.0,200.0,-10.0,46.0,112.0,0.0,-36.0,-11.0,-32.0,0.0,0.0
150.0,278.0,41.0,104.0,147.0,36.0,-36.0,-18.0,-48.0,-79.0,0.0
306.0,379.0,105.0,104.0,129.0,62.0,-20.0,-3.0,-30.0,-56.0,0.0
333.0,351.0,137.0,103.0,118.0,66.0,-5.0,15.0,-5.0,-14.0,0.0
230.0,221.0,117.0,80.0,102.0,70.0,5.0,28.0,38.0,25.0,0.0
185.0,191.0,95.0,46.0,58.0,50.0,-16.0,6.0,23.0,24.0,0.0
183.0,140.0,34.0,-2.0,14.0,10.0,-42.0,-28.0,-26.0,-10.0,0.0
94.0,-6.0,-28.0,-57.0,-31.0,-34.0,-76.0,-78.0,-106.0,-96.0,0.0
-50.0,-135.0,-53.0,-80.0,-77.0,-56.0,-92.0,-103.0,-118.0,-82.0,0.0
-112.0,-187.0,-35.0,-98.0,-119.0,-62.0,-75.0,-66.0,-36.0,5.0,0.0
-211.0,-224.0,-54.0,-118.0,-141.0,-68.0,-8.0,8.0,65.0,66.0,0.0
-387.0,-328.0,-99.0,-73.0,-89.0,-32.0,33.0,56.0,87.0,24.0,0.0
-510.0,-451.0,-112.0,6.0,29.0,32.0,49.0,43.0,41.0,-103.0,0.0
-487.0,-446.0,-92.0,43.0,102.0,83.0,55.0,28.0,11.0,-168.0,0.0
-298.0,-332.0,-71.0,19.0,67.0,64.0,44.0,32.0,3.0,-113.0,0.0
-181.0,-248.0,-50.0,31.0,49.0,43.0,34.0,49.0,33.0,-13.0,0.0
-79.0,-156.0,-2.0,54.0,56.0,32.0,11.0,35.0,33.0,7.0,0.0
-35.0,-61.0,32.0,58.0,64.0,50.0,4.0,25.0,26.0,-9.0,0.0
-59.0,-19.0,46.0,43.0,67.0,54.0,7.0,38.0,32.0,-30.0,0.0
-88.0,-1.0,48.0,50.0,66.0,53.0,21.0,50.0,59.0,-15.0,0.0
-58.0,10.0,46.0,56.0,64.0,57.0,25.0,50.0,86.0,7.0,0.0
52.0,78.0,41.0,23.0,38.0,42.0,18.0,22.0,71.0,10.0,0.0
161.0,143.0,19.0,3.0,17.0,11.0,-20.0,-11.0,15.0,9.0,0.0
153.0,109.0,-9.0,-3.0,15.0,-5.0,-31.0,-14.0,1.0,37.0,0.0
41.0,-15.0,-39.0,-11.0,14.0,-14.0,41.0,10.0,77.0,70.0,0.0
-93.0,-80.0,-8.0,-5.0,7.0,-25.0,99.0,8.0,121.0,30.0,0.0
-200.0,-111.0,-7.0,-23.0,-17.0,-35.0,19.0,-7.0,39.0,-19.0,0.0
-216.0,-119.0,-25.0,-38.0,-48.0,-46.0,-3.0,-12.0,-8.0,-60.0,0.0
-196.0,-116.0,-24.0,-42.0,-63.0,-56.0,-23.0,-39.0,-36.0,-83.0,0.0
-147.0,-110.0,-18.0,-43.0,-57.0,-44.0,-31.0,-47.0,-30.0,-71.0,0.0
-99.0,-86.0,-22.0,-36.0,-49.0,-32.0,-21.0,-35.0,-18.0,-47.0,0.0
-66.0,-44.0,-13.0,-18.0,-47.0,-24.0,-9.0,-33.0,-4.0,-25.0,0.0
-27.0,-7.0,2.0,-1.0,-40.0,-2.0,2.0,-30.0,6.0,9.0,0.0
34.0,39.0,28.0,7.0,-41.0,19.0,11.0,-21.0,14.0,30.0,0.0
76.0,71.0,49.0,23.0,-12.0,50.0,17.0,-9.0,21.0,41.0,0.0
113.0,99.0,49.0,36.0,-5.0,60.0,9.0,-4.0,25.0,72.0,0.0
146.0,117.0,46.0,27.0,-17.0,51.0,6.0,13.0,29.0,78.0,0.0
148.0,98.0,42.0,9.0,-39.0,46.0,12.0,31.0,48.0,66.0,0.0
125.0,77.0,40.0,11.0,-32.0,45.0,12.0,32.0,60.0,69.0,0.0
78.0,45.0,24.0,45.0,35.0,44.0,9.0,18.0,45.0,67.0,0.0
31.0,16.0,15.0,63.0,51.0,34.0,15.0,-4.0,36.0,53.0,0.0
-19.0,17.0,13.0,40.0,-2.0,10.0,-24.0,-28.0,-8.0,3.0,0.0
-63.0,7.0,-7.0,20.0,-6.0,-25.0,-48.0,-43.0,-27.0,-38.0,0.0
-59.0,0.0,-44.0,-6.0,0.0,-63.0,-54.0,-60.0,-47.0,-48.0,0.0
-64.0,-13.0,-57.0,-26.0,-34.0,-78.0,-44.0,-67.0,-59.0,-77.0,0.0
-82.0,9.0,-26.0,-30.0,-40.0,-74.0,-43.0,-78.0,-68.0,-89.0,0.0
-70.0,31.0,-2.0,-21.0,-35.0,-61.0,-30.0,-82.0,-71.0,-80.0,0.0
-17.0,55.0,18.0,-20.0,-56.0,-66.0,-26.0,-74.0,-61.0,-64.0,0.0
30.0,75.0,13.0,-22.0,-63.0,-65.0,-24.0,-49.0,-46.0,-46.0,0.0
70.0,76.0,-14.0,-21.0,-39.0,-35.0,-4.0,-15.0,-1.0,10.0,0.0
97.0,78.0,-23.0,4.0,-8.0,2.0,6.0,0.0,14.0,39.0,0.0
92.0,86.0,31.0,36.0,23.0,18.0,12.0,9.0,17.0,36.0,0.0
80.0,73.0,46.0,49.0,46.0,39.0,37.0,37.0,40.0,53.0,0.0
49.0,13.0,20.0,51.0,41.0,63.0,56.0,61.0,81.0,108.0,0.0
13.0,-28.0,5.0,59.0,45.0,76.0,48.0,51.0,73.0,115.0,0.0
18.0,4.0,13.0,52.0,38.0,50.0,24.0,20.0,30.0,87.0,0.0
11.0,29.0,0.0,36.0,22.0,16.0,14.0,-6.0,5.0,48.0,0.0
3.0,38.0,-25.0,4.0,-15.0,-18.0,-13.0,-24.0,-11.0,28.0,0.0
-6.0,41.0,-30.0,-16.0,-36.0,-44.0,-21.0,-41.0,-32.0,-4.0,0.0
-21.0,27.0,-22.0,-40.0,-43.0,-57.0,-10.0,-48.0,-47.0,-24.0,0.0
-56.0,1.0,-20.0,-53.0,-48.0,-68.0,8.0,-41.0,-41.0,-29.0,0.0
-116.0,-40.0,-46.0,-54.0,-45.0,-66.0,14.0,-39.0,-59.0,-57.0,0.0
-155.0,-72.0,-48.0,-53.0,-34.0,-60.0,25.0,-38.0,-62.0,-78.0,0.0
-108.0,-58.0,-34.0,-57.0,-31.0,-49.0,23.0,-36.0,-45.0,-56.0,0.0
-24.0,-19.0,-14.0,-50.0,-22.0,-38.0,18.0,-32.0,-23.0,-30.0,0.0
31.0,10.0,8.0,-29.0,-2.0,-23.0,9.0,-24.0,-20.0,-18.0,0.0
36.0,5.0,29.0,4.0,20.0,3.0,3.0,-11.0,-15.0,-20.0,0.0
44.0,15.0,38.0,20.0,37.0,33.0,20.0,5.0,12.0,-14.0,0.0
67.0,35.0,22.0,17.0,53.0,43.0,34.0,27.0,23.0,1.0,0.0
49.0,45.0,14.0,27.0,54.0,56.0,40.0,41.0,44.0,20.0,0.0
20.0,46.0,19.0,48.0,56.0,65.0,38.0,40.0,44.0,29.0,0.0
34.0,43.0,19.0,52.0,59.0,60.0,23.0,41.0,41.0,42.0,0.0
39.0,40.0,4.0,53.0,32.0,55.0,15.0,27.0,42.0,50.0,0.0
19.0,15.0,-23.0,10.0,7.0,38.0,13.0,22.0,31.0,27.0,0.0
-11.0,0.0,-38.0,-8.0,-8.0,17.0,10.0,14.0,19.0,12.0,0.0
-30.0,-6.0,-43.0,-21.0,-32.0,-7.0,10.0,-9.0,6.0,4.0,0.0
-47.0,-11.0,-30.0,-27.0,-51.0,-35.0,7.0,-24.0,-9.0,-12.0,0.0
-70.0,-41.0,-22.0,-10.0,-60.0,-53.0,-8.0,-31.0,-30.0,-29.0,0.0
-89.0,-42.0,-18.0,-9.0,-64.0,-49.0,-9.0,-34.0,-36.0,-20.0,0.0
-78.0,-29.0,2.0,0.0,-43.0,-55.0,-5.0,-28.0,-34.0,-32.0,0.0
-56.0,-5.0,12.0,7.0,-33.0,-62.0,-8.0,-21.0,-30.0,-29.0,0.0
-12.0,10.0,33.0,16.0,-31.0,-41.0,-1.0,-23.0,-6.0,-15.0,0.0
57.0,44.0,48.0,21.0,-18.0,-12.0,7.0,-18.0,15.0,4.0,0.0
177.0,103.0,52.0,19.0,-16.0,-5.0,2.0,-8.0,12.0,42.0,0.0
347.0,186.0,54.0,27.0,-6.0,-5.0,-13.0,-17.0,-14.0,62.0,0.0
430.0,271.0,90.0,66.0,34.0,6.0,-42.0,-35.0,-45.0,50.0,0.0
401.0,282.0,120.0,82.0,60.0,35.0,-43.0,-34.0,-46.0,61.0,0.0
297.0,161.0,86.0,72.0,65.0,37.0,-22.0,-14.0,-15.0,117.0,0.0
112.0,37.0,67.0,72.0,58.0,18.0,-3.0,2.0,-2.0,88.0,0.0
0.0,0.0,56.0,53.0,30.0,15.0,21.0,27.0,13.0,12.0,0.0
-29.0,-21.0,31.0,33.0,3.0,40.0,40.0,60.0,37.0,-10.0,0.0
-20.0,-38.0,22.0,18.0,-23.0,23.0,38.0,61.0,34.0,-2.0,0.0
-33.0,-21.0,-3.0,2.0,-30.0,-13.0,12.0,31.0,0.0,-42.0,0.0
-134.0,0.0,8.0,-4.0,-24.0,-35.0,-7.0,4.0,-11.0,-58.0,1.0
-215.0,9.0,0.0,-17.0,-27.0,-67.0,-19.0,-24.0,-5.0,-32.0,1.0
-225.0,-13.0,-38.0,-28.0,-8.0,-88.0,-49.0,-63.0,-38.0,-53.0,1.0
-167.0,-14.0,-44.0,-59.0,-36.0,-89.0,-59.0,-74.0,-64.0,-86.0,1.0
7.0,0.0,-50.0,-56.0,-48.0,-62.0,-59.0,-69.0,-74.0,-101.0,1.0
189.0,30.0,-80.0,-53.0,-28.0,-42.0,-35.0,-43.0,-45.0,-76.0,1.0
285.0,171.0,-45.0,-33.0,-15.0,-36.0,-48.0,-24.0,-41.0,-41.0,1.0
251.0,238.0,0.0,-15.0,-10.0,0.0,-32.0,32.0,53.0,99.0,1.0
189.0,194.0,-11.0,-8.0,29.0,47.0,26.0,83.0,132.0,202.0,1.0
49.0,194.0,53.0,70.0,68.0,48.0,-9.0,29.0,28.0,25.0,1.0
-62.0,104.0,84.0,96.0,84.0,58.0,-14.0,2.0,-16.0,-91.0,1.0
39.0,44.0,24.0,19.0,56.0,54.0,8.0,37.0,7.0,-28.0,1.0
46.0,48.0,22.0,6.0,48.0,42.0,7.0,46.0,22.0,28.0,1.0
-159.0,-72.0,75.0,50.0,79.0,42.0,6.0,26.0,5.0,-23.0,1.0
-355.0,-314.0,-4.0,42.0,74.0,53.0,41.0,58.0,30.0,-33.0,1.0
-480.0,-435.0,-78.0,22.0,54.0,57.0,50.0,77.0,24.0,-77.0,1.0
-500.0,-370.0,-76.0,25.0,46.0,52.0,39.0,54.0,-9.0,-130.0,1.0
-400.0,-247.0,-59.0,1.0,20.0,24.0,31.0,34.0,-19.0,-115.0,1.0
-273.0,-188.0,-64.0,-42.0,-6.0,14.0,35.0,52.0,9.0,-61.0,0.0
-158.0,-148.0,-71.0,-54.0,-14.0,21.0,49.0,64.0,37.0,-12.0,0.0
-19.0,-80.0,-40.0,-45.0,-24.0,14.0,22.0,48.0,17.0,-13.0,0.0
106.0,-27.0,-14.0,-50.0,-47.0,-8.0,-6.0,26.0,0.0,-4.0,0.0
74.0,-71.0,-41.0,-72.0,-53.0,-15.0,-7.0,38.0,43.0,51.0,0.0
-81.0,-149.0,-44.0,-35.0,-30.0,-13.0,-22.0,24.0,36.0,32.0,0.0
-190.0,-160.0,-17.0,39.0,38.0,3.0,-25.0,24.0,20.0,8.0,0.0
-120.0,-80.0,3.0,58.0,52.0,29.0,-3.0,36.0,21.0,28.0,0.0
-60.0,-21.0,23.0,45.0,49.0,48.0,14.0,61.0,39.0,27.0,0.0
-32.0,33.0,43.0,47.0,33.0,41.0,10.0,50.0,31.0,9.0,0.0
32.0,100.0,60.0,43.0,9.0,29.0,2.0,27.0,16.0,23.0,0.0
54.0,119.0,80.0,48.0,0.0,10.0,-8.0,8.0,-4.0,0.0,0.0
52.0,64.0,42.0,62.0,0.0,-19.0,-36.0,-24.0,-38.0,-8.0,0.0
18.0,-39.0,-3.0,52.0,8.0,-27.0,-40.0,-9.0,-34.0,-14.0,0.0
-79.0,-145.0,-47.0,15.0,0.0,-18.0,-9.0,27.0,-16.0,-32.0,0.0
-143.0,-176.0,-95.0,-28.0,-32.0,-12.0,5.0,31.0,7.0,-12.0,0.0
-134.0,-132.0,-100.0,-44.0,-54.0,-27.0,6.0,10.0,-16.0,-31.0,0.0
-100.0,-82.0,-65.0,-38.0,-63.0,-49.0,3.0,-6.0,-52.0,-46.0,0.0
-52.0,-33.0,-49.0,-41.0,-63.0,-52.0,15.0,-7.0,-58.0,-41.0,0.0
-17.0,-15.0,-52.0,-42.0,-72.0,-42.0,14.0,19.0,-25.0,-4.0,0.0
0.0,3.0,-24.0,-27.0,-73.0,-35.0,8.0,17.0,-13.0,14.0,0.0
-11.0,20.0,22.0,-12.0,-59.0,-21.0,12.0,15.0,6.0,27.0,0.0
5.0,32.0,41.0,-7.0,-28.0,5.0,5.0,12.0,12.0,31.0,0.0
52.0,67.0,38.0,16.0,4.0,34.0,17.0,26.0,22.0,50.0,0.0
81.0,91.0,47.0,64.0,51.0,32.0,17.0,26.0,31.0,61.0,0.0
95.0,98.0,45.0,71.0,102.0,40.0,5.0,24.0,22.0,45.0,0.0
111.0,88.0,40.0,55.0,87.0,33.0,-8.0,4.0,19.0,49.0,0.0
124.0,73.0,33.0,32.0,42.0,20.0,-10.0,0.0,14.0,38.0,0.0
101.0,71.0,27.0,19.0,24.0,16.0,-16.0,-7.0,-1.0,16.0,0.0
56.0,48.0,13.0,0.0,12.0,1.0,-19.0,-19.0,-22.0,-10.0,0.0
19.0,28.0,-5.0,-19.0,-11.0,-14.0,-24.0,-33.0,-27.0,-25.0,0.0
3.0,9.0,-20.0,-47.0,-37.0,-35.0,-29.0,-44.0,-32.0,-30.0,0.0
5.0,-4.0,-35.0,-68.0,-60.0,-60.0,-27.0,-56.0,-51.0,-38.0,0.0
10.0,-27.0,-48.0,-76.0,-71.0,-72.0,-18.0,-73.0,-60.0,-62.0,0.0
29.0,-40.0,-59.0,-85.0,-70.0,-73.0,-13.0,-68.0,-46.0,-67.0,0.0
56.0,-14.0,-43.0,-69.0,-70.0,-72.0,-16.0,-58.0,-26.0,-51.0,0.0
69.0,21.0,-21.0,-58.0,-61.0,-54.0,-19.0,-43.0,-20.0,-21.0,0.0
98.0,66.0,9.0,-39.0,-38.0,-22.0,-13.0,-33.0,-10.0,3.0,0.0
106.0,79.0,18.0,-13.0,-9.0,6.0,-2.0,-17.0,1.0,36.0,0.0
67.0,78.0,14.0,2.0,21.0,29.0,17.0,15.0,30.0,46.0,0.0
50.0,95.0,30.0,22.0,33.0,38.0,21.0,26.0,34.0,50.0,0.0
65.0,75.0,43.0,39.0,40.0,43.0,21.0,35.0,40.0,74.0,0.0
86.0,64.0,37.0,44.0,40.0,58.0,20.0,46.0,63.0,87.0,0.0
101.0,43.0,21.0,37.0,30.0,54.0,17.0,41.0,37.0,83.0,0.0
145.0,47.0,1.0,6.0,13.0,42.0,7.0,29.0,1.0,60.0,0.0
166.0,51.0,-11.0,-10.0,8.0,29.0,4.0,12.0,-5.0,27.0,0.0
116.0,23.0,-31.0,-14.0,-8.0,18.0,9.0,-1.0,-4.0,-2.0,0.0
14.0,-23.0,-28.0,-11.0,-15.0,9.0,13.0,-5.0,-18.0,-20.0,0.0
-67.0,-54.0,-15.0,-24.0,-30.0,2.0,8.0,-4.0,-17.0,-16.0,0.0
-99.0,-73.0,-17.0,-30.0,-53.0,-23.0,8.0,-15.0,-32.0,-49.0,0.0
-84.0,-72.0,-26.0,-18.0,-60.0,-50.0,8.0,-34.0,-52.0,-58.0,0.0
-43.0,-44.0,-25.0,-23.0,-56.0,-46.0,-4.0,-47.0,-51.0,-59.0,0.0
-24.0,-24.0,-29.0,-27.0,-50.0,-31.0,-13.0,-47.0,-45.0,-46.0,0.0
-18.0,-22.0,-32.0,-18.0,-43.0,-23.0,-11.0,-35.0,-20.0,-17.0,0.0
-30.0,-21.0,-18.0,-15.0,-15.0,-10.0,-2.0,-10.0,9.0,27.0,0.0
-24.0,17.0,8.0,-14.0,4.0,12.0,-4.0,0.0,19.0,52.0,0.0
-12.0,40.0,32.0,-10.0,29.0,34.0,-5.0,11.0,25.0,44.0,0.0
15.0,54.0,59.0,11.0,60.0,58.0,5.0,23.0,28.0,43.0,0.0
68.0,54.0,57.0,24.0,73.0,71.0,11.0,42.0,42.0,63.0,0.0
111.0,35.0,29.0,10.0,70.0,80.0,18.0,55.0,56.0,91.0,0.0
129.0,26.0,4.0,-9.0,57.0,65.0,9.0,55.0,66.0,117.0,0.0
115.0,66.0,24.0,-20.0,28.0,34.0,0.0,20.0,25.0,72.0,0.0
63.0,93.0,19.0,-41.0,0.0,12.0,-4.0,-20.0,-12.0,27.0,0.0
-7.0,72.0,-17.0,-66.0,-32.0,-1.0,-6.0,-28.0,-11.0,5.0,0.0
-93.0,23.0,-41.0,-69.0,-52.0,-13.0,3.0,-14.0,4.0,-23.0,0.0
-74.0,-21.0,-25.0,-73.0,-63.0,-45.0,4.0,-23.0,-3.0,-39.0,0.0
-47.0,-55.0,-20.0,-72.0,-80.0,-60.0,10.0,-40.0,-11.0,-67.0,0.0
-32.0,-51.0,-8.0,-72.0,-93.0,-65.0,13.0,-50.0,-30.0,-112.0,0.0
26.0,-21.0,-24.0,-84.0,-99.0,-75.0,13.0,-53.0,-29.0,-95.0,0.0
-5.0,-42.0,-43.0,-52.0,-44.0,-54.0,3.0,-57.0,-37.0,-95.0,0.0
-128.0,-77.0,-40.0,-28.0,30.0,-8.0,-3.0,-41.0,-49.0,-103.0,0.0
-159.0,-67.0,-15.0,0.0,54.0,20.0,1.0,-26.0,-46.0,-76.0,0.0
-122.0,-29.0,16.0,45.0,83.0,32.0,7.0,-11.0,-24.0,-61.0,0.0
-52.0,12.0,23.0,45.0,82.0,51.0,17.0,9.0,-1.0,-31.0,0.0
42.0,66.0,51.0,46.0,78.0,65.0,9.0,18.0,2.0,2.0,0.0
129.0,134.0,66.0,51.0,82.0,74.0,-2.0,21.0,2.0,32.0,0.0
167.0,161.0,55.0,42.0,74.0,66.0,-10.0,14.0,20.0,51.0,0.0
225.0,155.0,30.0,28.0,61.0,47.0,-27.0,14.0,35.0,81.0,0.0
276.0,119.0,-10.0,-2.0,29.0,31.0,-15.0,28.0,49.0,133.0,0.0
187.0,53.0,-29.0,-21.0,5.0,13.0,-16.0,0.0,14.0,78.0,0.0
50.0,26.0,-1.0,5.0,9.0,24.0,-6.0,-19.0,-39.0,-21.0,0.0
19.0,52.0,10.0,-7.0,-22.0,-6.0,-8.0,-32.0,-60.0,-37.0,0.0
0.0,44.0,-13.0,-62.0,-70.0,-52.0,-32.0,-64.0,-61.0,-41.0,0.0
-75.0,-21.0,-47.0,-85.0,-106.0,-68.0,-33.0,-53.0,-46.0,-44.0,0.0
-78.0,-25.0,-43.0,-92.0,-109.0,-54.0,-11.0,-32.0,-22.0,-26.0,0.0
-19.0,1.0,-19.0,-44.0,-51.0,-27.0,-1.0,-24.0,-18.0,-38.0,0.0
-4.0,-24.0,-25.0,9.0,55.0,-6.0,-2.0,-34.0,-41.0,-71.0,0.0
26.0,-68.0,-45.0,-18.0,64.0,16.0,10.0,-24.0,-40.0,-30.0,0.0
89.0,-59.0,-47.0,-39.0,28.0,31.0,19.0,2.0,-7.0,55.0,0.0
167.0,37.0,-23.0,-42.0,9.0,20.0,5.0,18.0,22.0,114.0,0.0
281.0,146.0,7.0,-47.0,-6.0,34.0,10.0,34.0,44.0,157.0,0.0
245.0,110.0,22.0,-21.0,0.0,54.0,10.0,40.0,82.0,160.0,0.0
38.0,-6.0,48.0,33.0,39.0,78.0,12.0,29.0,48.0,51.0,0.0
-107.0,-132.0,39.0,36.0,58.0,96.0,32.0,44.0,48.0,33.0,0.0
-105.0,-169.0,12.0,-9.0,33.0,100.0,49.0,76.0,101.0,129.0,0.0
8.0,-28.0,36.0,-40.0,-30.0,45.0,8.0,41.0,47.0,71.0,0.0
100.0,56.0,33.0,-68.0,-62.0,11.0,-3.0,0.0,-27.0,-16.0,0.0
149.0,43.0,0.0,-104.0,-103.0,9.0,25.0,-6.0,-29.0,-12.0,0.0
56.0,-69.0,-61.0,-128.0,-137.0,16.0,68.0,30.0,30.0,62.0,0.0
-148.0,-218.0,-84.0,-69.0,-100.0,4.0,74.0,26.0,31.0,77.0,0.0
-272.0,-225.0,-46.0,33.0,-9.0,-38.0,5.0,-58.0,-67.0,-41.0,0.0
-249.0,-163.0,-62.0,14.0,3.0,-67.0,-36.0,-87.0,-103.0,-92.0,0.0
-187.0,-117.0,-74.0,-51.0,-39.0,-81.0,-58.0,-71.0,-79.0,-61.0,0.0
-120.0,-14.0,-10.0,-44.0,-47.0,-78.0,-66.0,-88.0,-81.0,-54.0,0.0
-119.0,34.0,56.0,26.0,33.0,-23.0,-23.0,-53.0,-37.0,-37.0,0.0
-195.0,-37.0,62.0,78.0,131.0,79.0,64.0,48.0,43.0,-25.0,0.0
-217.0,-56.0,50.0,82.0,142.0,139.0,125.0,112.0,78.0,-35.0,0.0
-134.0,-23.0,30.0,72.0,113.0,153.0,117.0,117.0,95.0,9.0,0.0
-55.0,39.0,38.0,82.0,100.0,133.0,86.0,115.0,90.0,55.0,0.0
12.0,171.0,110.0,79.0,79.0,85.0,57.0,65.0,58.0,59.0,0.0
68.0,226.0,190.0,78.0,36.0,61.0,33.0,33.0,43.0,69.0,0.0
146.0,187.0,173.0,32.0,-15.0,44.0,24.0,54.0,77.0,116.0,0.0
137.0,93.0,108.0,-44.0,-80.0,33.0,25.0,66.0,95.0,128.0,0.0
13.0,-38.0,32.0,-68.0,-102.0,11.0,10.0,47.0,46.0,44.0,0.0
-194.0,-205.0,0.0,0.0,-34.0,-8.0,-21.0,-4.0,-19.0,-41.0,0.0
-352.0,-304.0,-23.0,87.0,53.0,-20.0,-43.0,-47.0,-68.0,-100.0,0.0
-352.0,-281.0,-41.0,106.0,112.0,-17.0,-52.0,-78.0,-96.0,-154.0,0.0
-213.0,-210.0,-56.0,101.0,84.0,-29.0,-44.0,-98.0,-102.0,-148.0,0.0
-103.0,-180.0,-70.0,84.0,29.0,-29.0,-30.0,-102.0,-97.0,-123.0,0.0
-82.0,-199.0,-78.0,17.0,-36.0,-29.0,-22.0,-69.0,-63.0,-93.0,0.0
-96.0,-202.0,-63.0,-8.0,-58.0,-28.0,-15.0,-36.0,-47.0,-61.0,0.0
-46.0,-129.0,-26.0,6.0,-46.0,-2.0,0.0,7.0,-15.0,-18.0,0.0
17.0,-73.0,2.0,24.0,-26.0,28.0,8.0,30.0,12.0,19.0,0.0
47.0,-39.0,7.0,74.0,48.0,52.0,-4.0,26.0,20.0,39.0,0.0
70.0,-20.0,10.0,108.0,138.0,65.0,-12.0,24.0,28.0,47.0,0.0
86.0,5.0,20.0,100.0,119.0,70.0,0.0,37.0,39.0,59.0,0.0
84.0,15.0,34.0,91.0,111.0,71.0,4.0,23.0,30.0,41.0,0.0
74.0,4.0,12.0,90.0,140.0,46.0,-9.0,10.0,9.0,11.0,0.0
83.0,15.0,-1.0,42.0,89.0,14.0,-30.0,-6.0,-1.0,-4.0,0.0
86.0,5.0,-10.0,1.0,11.0,-16.0,-25.0,-11.0,2.0,-2.0,0.0
57.0,-16.0,-43.0,-20.0,-17.0,-22.0,-24.0,-14.0,-1.0,13.0,0.0
27.0,0.0,-41.0,-33.0,-28.0,-26.0,-30.0,-29.0,-12.0,18.0,0.0
23.0,38.0,-19.0,-36.0,-38.0,-38.0,-38.0,-47.0,-39.0,-31.0,0.0
4.0,-1.0,-44.0,-49.0,-48.0,-42.0,-57.0,-45.0,-54.0,-55.0,0.0
4.0,-41.0,-68.0,-59.0,-55.0,-52.0,-35.0,-32.0,-44.0,-65.0,0.0
2.0,-56.0,-55.0,-49.0,-49.0,-40.0,-13.0,-20.0,-28.0,-65.0,0.0
8.0,-48.0,-26.0,-29.0,-40.0,-38.0,3.0,-20.0,-21.0,-59.0,0.0
45.0,-12.0,-14.0,-19.0,-32.0,-25.0,4.0,-11.0,-24.0,-42.0,0.0
64.0,16.0,-1.0,0.0,-18.0,4.0,12.0,0.0,-18.0,-28.0,0.0
84.0,47.0,17.0,12.0,0.0,25.0,14.0,9.0,8.0,-14.0,0.0
112.0,54.0,45.0,27.0,30.0,56.0,8.0,26.0,25.0,6.0,0.0
123.0,61.0,67.0,39.0,48.0,70.0,14.0,40.0,35.0,19.0,0.0
118.0,64.0,59.0,32.0,49.0,74.0,22.0,39.0,41.0,33.0,0.0
105.0,60.0,41.0,28.0,43.0,63.0,18.0,37.0,46.0,48.0,0.0
89.0,49.0,42.0,10.0,33.0,45.0,10.0,32.0,43.0,43.0,0.0
59.0,40.0,32.0,-1.0,14.0,27.0,11.0,25.0,26.0,22.0,0.0
32.0,33.0,10.0,-15.0,6.0,6.0,4.0,-3.0,7.0,-5.0,0.0
23.0,19.0,-2.0,-24.0,-2.0,-15.0,3.0,-26.0,-13.0,-12.0,0.0
5.0,-2.0,-27.0,-43.0,-35.0,-40.0,-1.0,-30.0,-31.0,-24.0,0.0
-27.0,-23.0,-38.0,-40.0,-55.0,-53.0,-8.0,-36.0,-42.0,-43.0,0.0
-36.0,-34.0,-32.0,-41.0,-57.0,-50.0,-9.0,-40.0,-44.0,-59.0,0.0
-29.0,-30.0,-41.0,-31.0,-58.0,-48.0,-4.0,-38.0,-45.0,-45.0,0.0
-19.0,-11.0,-42.0,-20.0,-47.0,-36.0,2.0,-27.0,-39.0,-33.0,0.0
-13.0,1.0,-25.0,-9.0,-33.0,-33.0,2.0,-7.0,-15.0,-23.0,0.0
35.0,35.0,-3.0,-1.0,-26.0,-11.0,2.0,-3.0,-5.0,12.0,0.0
95.0,70.0,11.0,9.0,-7.0,5.0,2.0,-5.0,-12.0,9.0,0.0
122.0,96.0,13.0,33.0,13.0,18.0,-1.0,2.0,-15.0,2.0,0.0
145.0,111.0,29.0,54.0,38.0,34.0,-12.0,4.0,-14.0,18.0,0.0
193.0,114.0,51.0,41.0,22.0,26.0,-15.0,13.0,11.0,89.0,0.0
234.0,136.0,42.0,23.0,6.0,10.0,-1.0,31.0,36.0,144.0,0.0
172.0,133.0,32.0,23.0,11.0,8.0,7.0,39.0,37.0,99.0,0.0
69.0,159.0,47.0,29.0,23.0,24.0,10.0,37.0,20.0,38.0,0.0
29.0,171.0,27.0,7.0,0.0,12.0,4.0,31.0,34.0,76.0,0.0
15.0,130.0,3.0,-21.0,-21.0,-4.0,12.0,35.0,61.0,129.0,0.0
-5.0,76.0,6.0,-11.0,-24.0,-15.0,20.0,32.0,49.0,79.0,0.0
-43.0,-11.0,4.0,-8.0,-28.0,-21.0,20.0,12.0,15.0,13.0,0.0
-69.0,-87.0,0.0,-19.0,-43.0,-48.0,11.0,-9.0,-9.0,-36.0,0.0
-22.0,-126.0,-34.0,-51.0,-66.0,-85.0,-13.0,-34.0,-24.0,-79.0,0.0
-41.0,-172.0,-62.0,-73.0,-76.0,-87.0,-30.0,-48.0,-45.0,-111.0,0.0
-136.0,-184.0,-58.0,-66.0,-59.0,-69.0,-11.0,-37.0,-33.0,-110.0,0.0
-162.0,-107.0,-25.0,-33.0,-21.0,-38.0,-4.0,-31.0,-52.0,-119.0,0.0
-95.0,-28.0,-18.0,-18.0,13.0,11.0,15.0,-7.0,-40.0,-99.0,0.0
25.0,42.0,20.0,-1.0,35.0,29.0,14.0,2.0,-34.0,-67.0,0.0
159.0,111.0,44.0,11.0,26.0,18.0,-3.0,1.0,-18.0,0.0,0.0
269.0,132.0,9.0,-15.0,2.0,16.0,0.0,30.0,33.0,75.0,0.0
376.0,184.0,-32.0,-29.0,-4.0,12.0,-13.0,13.0,5.0,58.0,0.0
466.0,171.0,-66.0,-49.0,-13.0,2.0,-19.0,-14.0,-29.0,43.0,0.0
439.0,124.0,-72.0,-48.0,3.0,11.0,-14.0,-4.0,-26.0,77.0,0.0
292.0,101.0,-31.0,-9.0,12.0,5.0,-16.0,-20.0,-40.0,55.0,0.0
15.0,-6.0,-20.0,-8.0,-8.0,-11.0,-16.0,-11.0,-18.0,26.0,0.0
-149.0,-102.0,-37.0,-39.0,-30.0,-19.0,6.0,19.0,29.0,38.0,0.0
-185.0,-135.0,-53.0,-52.0,-39.0,-15.0,12.0,26.0,33.0,18.0,0.0
-140.0,-86.0,-47.0,-59.0,-60.0,-51.0,-30.0,-25.0,-29.0,-23.0,0.0
102.0,23.0,-67.0,-126.0,-120.0,-104.0,-84.0,-75.0,-54.0,1.0,0.0
380.0,155.0,-94.0,-176.0,-156.0,-129.0,-81.0,-71.0,-40.0,52.0,0.0
440.0,207.0,-92.0,-151.0,-158.0,-135.0,-91.0,-63.0,-27.0,98.0,0.0
331.0,163.0,-84.0,-133.0,-154.0,-120.0,-65.0,-4.0,48.0,210.0,0.0
80.0,69.0,-20.0,-69.0,-96.0,-55.0,-12.0,41.0,98.0,189.0,0.0
-168.0,51.0,121.0,58.0,-2.0,7.0,-20.0,2.0,6.0,-81.0,0.0
-223.0,18.0,202.0,142.0,56.0,41.0,-24.0,1.0,-41.0,-180.0,0.0
-167.0,-80.0,129.0,121.0,80.0,59.0,9.0,56.0,28.0,-56.0,0.0
-264.0,-257.0,23.0,73.0,107.0,75.0,33.0,107.0,117.0,47.0,0.0
-463.0,-318.0,73.0,129.0,166.0,96.0,26.0,73.0,63.0,-85.0,0.0
-450.0,-279.0,103.0,154.0,185.0,104.0,46.0,67.0,49.0,-131.0,0.0
-345.0,-262.0,33.0,90.0,107.0,74.0,59.0,105.0,119.0,0.0,0.0
-294.0,-190.0,23.0,41.0,57.0,46.0,44.0,84.0,98.0,32.0,0.0
-273.0,-101.0,35.0,3.0,16.0,17.0,21.0,34.0,27.0,-32.0,0.0
-310.0,-153.0,16.0,-23.0,6.0,20.0,34.0,21.0,22.0,-43.0,0.0
-314.0,-166.0,-3.0,-43.0,-10.0,5.0,33.0,-6.0,-15.0,-60.0,0.0
-297.0,-176.0,-27.0,-18.0,-12.0,-29.0,19.0,-22.0,-22.0,-46.0,0.0
-277.0,-193.0,-17.0,19.0,-17.0,-43.0,18.0,-34.0,-46.0,-59.0,0.0
-230.0,-189.0,-29.0,35.0,-14.0,-46.0,13.0,-57.0,-62.0,-63.0,0.0
-117.0,-159.0,-59.0,20.0,-26.0,-54.0,0.0,-57.0,-58.0,-36.0,0.0
-44.0,-60.0,-27.0,5.0,-48.0,-60.0,0.0,-42.0,-55.0,-14.0,0.0
-16.0,55.0,55.0,33.0,-28.0,-42.0,-3.0,-26.0,-46.0,-7.0,0.0
-34.0,65.0,63.0,53.0,20.0,-3.0,23.0,18.0,15.0,53.0,0.0
-91.0,41.0,42.0,62.0,63.0,44.0,47.0,53.0,55.0,88.0,0.0
-136.0,60.0,67.0,74.0,61.0,71.0,47.0,52.0,44.0,52.0,0.0
-157.0,90.0,95.0,58.0,34.0,87.0,55.0,61.0,32.0,27.0,0.0
-109.0,107.0,100.0,41.0,-1.0,75.0,74.0,75.0,35.0,44.0,0.0
-19.0,114.0,99.0,56.0,7.0,51.0,51.0,48.0,25.0,78.0,0.0
87.0,81.0,63.0,52.0,31.0,28.0,8.0,14.0,14.0,79.0,0.0
144.0,22.0,12.0,-14.0,-38.0,-5.0,-4.0,2.0,13.0,76.0,0.0
67.0,-90.0,-41.0,-34.0,-30.0,-13.0,-1.0,-8.0,-14.0,35.0,0.0
-13.0,-132.0,-67.0,-7.0,44.0,-28.0,-19.0,-43.0,-43.0,4.0,0.0
11.0,-97.0,-62.0,-7.0,40.0,-56.0,-36.0,-68.0,-79.0,-20.0,0.0
7.0,-70.0,-73.0,-9.0,8.0,-66.0,-31.0,-84.0,-100.0,-64.0,0.0
-59.0,-90.0,-85.0,-13.0,-4.0,-65.0,-32.0,-84.0,-102.0,-124.0,0.0
-112.0,-88.0,-64.0,-16.0,-20.0,-55.0,-20.0,-71.0,-97.0,-129.0,0.0
-105.0,-63.0,-54.0,-20.0,-15.0,-57.0,-9.0,-51.0,-60.0,-100.0,0.0
-62.0,-17.0,-57.0,-15.0,-3.0,-51.0,-21.0,-36.0,-36.0,-55.0,0.0
7.0,11.0,-38.0,-4.0,-4.0,-27.0,-24.0,-23.0,-33.0,-28.0,0.0
53.0,34.0,-32.0,-4.0,0.0,-6.0,-26.0,-20.0,-26.0,-5.0,0.0
50.0,47.0,-20.0,0.0,13.0,5.0,-23.0,-11.0,-9.0,21.0,0.0
76.0,57.0,1.0,3.0,30.0,25.0,-10.0,-7.0,14.0,55.0,0.0
134.0,88.0,20.0,1.0,44.0,30.0,-7.0,0.0,16.0,62.0,0.0
166.0,103.0,12.0,8.0,36.0,29.0,-9.0,14.0,4.0,60.0,0.0
149.0,82.0,12.0,-3.0,30.0,25.0,-13.0,0.0,-4.0,55.0,0.0
105.0,48.0,6.0,-9.0,20.0,16.0,-5.0,-4.0,-7.0,41.0,0.0
42.0,23.0,8.0,-9.0,7.0,2.0,6.0,-5.0,-5.0,28.0,0.0
-16.0,13.0,13.0,-2.0,-1.0,-6.0,14.0,-13.0,0.0,18.0,0.0
-47.0,14.0,-1.0,-18.0,-17.0,-10.0,14.0,-11.0,-8.0,4.0,0.0
-38.0,0.0,-35.0,-42.0,-40.0,-34.0,1.0,-24.0,-17.0,-18.0,0.0
-39.0,-9.0,-51.0,-66.0,-63.0,-59.0,-8.0,-46.0,-39.0,-37.0,0.0
-57.0,-27.0,-51.0,-71.0,-68.0,-62.0,-6.0,-45.0,-45.0,-47.0,0.0
-43.0,-35.0,-51.0,-64.0,-62.0,-58.0,0.0,-29.0,-41.0,-33.0,0.0
-40.0,-26.0,-49.0,-56.0,-41.0,-39.0,4.0,-23.0,-29.0,-12.0,0.0
-30.0,0.0,-28.0,-27.0,-24.0,-12.0,14.0,-12.0,-2.0,4.0,0.0
-17.0,36.0,1.0,0.0,-7.0,4.0,29.0,2.0,18.0,37.0,0.0
0.0,70.0,12.0,20.0,0.0,14.0,24.0,19.0,26.0,72.0,0.0
44.0,101.0,26.0,28.0,11.0,34.0,23.0,34.0,34.0,95.0,0.0
116.0,115.0,41.0,35.0,32.0,34.0,15.0,44.0,38.0,98.0,0.0
221.0,114.0,27.0,41.0,34.0,27.0,9.0,35.0,41.0,94.0,0.0
264.0,91.0,2.0,30.0,37.0,36.0,2.0,33.0,33.0,85.0,0.0
200.0,60.0,-8.0,10.0,30.0,38.0,5.0,43.0,35.0,80.0,0.0
114.0,21.0,-23.0,2.0,10.0,22.0,1.0,32.0,26.0,53.0,0.0
33.0,-22.0,-47.0,-5.0,-3.0,1.0,-4.0,12.0,10.0,13.0,0.0
-34.0,-32.0,-48.0,-24.0,-19.0,-9.0,-3.0,7.0,2.0,-7.0,0.0
-37.0,-38.0,-58.0,-46.0,-39.0,-20.0,1.0,1.0,-9.0,-22.0,0.0
-37.0,-44.0,-54.0,-56.0,-49.0,-38.0,-5.0,-17.0,-29.0,-33.0,0.0
-53.0,-39.0,-59.0,-75.0,-55.0,-49.0,-7.0,-21.0,-34.0,-32.0,0.0
-61.0,-33.0,-60.0,-75.0,-63.0,-52.0,-12.0,-22.0,-37.0,-31.0,0.0
-100.0,-19.0,-55.0,-58.0,-65.0,-48.0,-12.0,-16.0,-29.0,-19.0,0.0
-131.0,12.0,-15.0,-27.0,-50.0,-35.0,-4.0,-12.0,-10.0,-14.0,0.0
-93.0,60.0,28.0,-2.0,-39.0,-25.0,-11.0,-12.0,16.0,13.0,0.0
-15.0,90.0,56.0,16.0,-30.0,-13.0,-10.0,-5.0,29.0,43.0,0.0
70.0,126.0,66.0,23.0,-29.0,-19.0,-3.0,-3.0,34.0,48.0,0.0
123.0,144.0,67.0,36.0,3.0,0.0,5.0,-7.0,45.0,45.0,0.0
154.0,130.0,36.0,53.0,81.0,29.0,9.0,-2.0,43.0,49.0,0.0
159.0,92.0,19.0,43.0,72.0,21.0,-2.0,-8.0,27.0,43.0,0.0
142.0,56.0,11.0,20.0,37.0,4.0,0.0,-14.0,16.0,20.0,0.0
115.0,46.0,21.0,14.0,24.0,12.0,2.0,-8.0,23.0,22.0,0.0
81.0,59.0,10.0,22.0,16.0,12.0,0.0,-10.0,15.0,24.0,0.0
47.0,93.0,10.0,4.0,2.0,3.0,0.0,-20.0,6.0,12.0,0.0
40.0,100.0,6.0,-10.0,-14.0,-10.0,1.0,-26.0,-12.0,-5.0,0.0
35.0,79.0,-9.0,-15.0,-25.0,-25.0,-6.0,-43.0,-26.0,-21.0,0.0
16.0,54.0,-22.0,-21.0,-38.0,-25.0,-6.0,-45.0,-25.0,-35.0,0.0
44.0,43.0,-40.0,-42.0,-58.0,-35.0,-17.0,-46.0,-22.0,-35.0,0.0
81.0,53.0,-58.0,-53.0,-71.0,-41.0,-14.0,-52.0,-29.0,-19.0,0.0
56.0,25.0,-56.0,-42.0,-68.0,-32.0,-8.0,-55.0,-26.0,-20.0,0.0
-13.0,-42.0,-50.0,-38.0,-61.0,-17.0,8.0,-32.0,-3.0,4.0,0.0
-40.0,-76.0,-37.0,-33.0,-49.0,5.0,17.0,-10.0,19.0,10.0,0.0
38.0,-6.0,-12.0,-17.0,-46.0,24.0,16.0,6.0,34.0,20.0,0.0
129.0,81.0,-14.0,-21.0,-39.0,38.0,21.0,22.0,66.0,74.0,0.0
182.0,125.0,-18.0,-18.0,-19.0,60.0,28.0,57.0,94.0,121.0,0.0
219.0,138.0,-13.0,-22.0,-3.0,70.0,31.0,83.0,128.0,173.0,0.0
151.0,126.0,25.0,5.0,41.0,65.0,-3.0,59.0,97.0,128.0,0.0
-37.0,52.0,80.0,59.0,110.0,49.0,-41.0,9.0,22.0,-6.0,0.0
-84.0,-25.0,45.0,45.0,117.0,35.0,-29.0,10.0,6.0,-23.0,0.0
-38.0,-26.0,16.0,5.0,58.0,9.0,-24.0,14.0,-10.0,-2.0,0.0
-60.0,-19.0,27.0,0.0,14.0,-14.0,-31.0,-21.0,-50.0,-61.0,0.0
-84.0,-16.0,12.0,-9.0,7.0,-18.0,-28.0,-32.0,-68.0,-102.0,0.0
-79.0,10.0,-16.0,-31.0,3.0,-27.0,-32.0,-40.0,-60.0,-70.0,0.0
-57.0,-1.0,-52.0,-78.0,-46.0,-56.0,-42.0,-33.0,15.0,49.0,0.0
-71.0,-34.0,-65.0,-100.0,-91.0,-68.0,-16.0,-4.0,49.0,75.0,0.0
-84.0,-55.0,-22.0,-71.0,-97.0,-68.0,-15.0,1.0,20.0,11.0,0.0
-75.0,-66.0,19.0,-35.0,-93.0,-59.0,-20.0,-5.0,1.0,-16.0,0.0
-32.0,-5.0,40.0,-25.0,-86.0,-36.0,6.0,8.0,17.0,13.0,0.0
40.0,56.0,32.0,-19.0,-86.0,-24.0,14.0,22.0,36.0,67.0,0.0
114.0,95.0,22.0,51.0,-5.0,10.0,8.0,30.0,19.0,50.0,0.0
43.0,55.0,74.0,192.0,192.0,82.0,34.0,24.0,-20.0,-37.0,0.0
-36.0,-13.0,120.0,258.0,287.0,119.0,40.0,29.0,-3.0,-59.0,0.0
9.0,4.0,103.0,186.0,198.0,80.0,15.0,26.0,20.0,10.0,0.0
4.0,12.0,75.0,139.0,117.0,30.0,3.0,22.0,48.0,58.0,0.0
-4.0,19.0,36.0,127.0,94.0,0.0,-8.0,22.0,70.0,72.0,0.0
30.0,59.0,5.0,77.0,55.0,-18.0,-12.0,20.0,56.0,78.0,0.0
61.0,75.0,-5.0,30.0,2.0,-42.0,-33.0,-6.0,16.0,29.0,0.0
20.0,111.0,17.0,27.0,-12.0,-51.0,-65.0,-62.0,-68.0,-76.0,0.0
-115.0,76.0,54.0,36.0,-3.0,-40.0,-49.0,-94.0,-103.0,-147.0,0.0
-179.0,-1.0,51.0,38.0,12.0,-18.0,-2.0,-62.0,-60.0,-96.0,0.0
-79.0,11.0,35.0,7.0,-23.0,-36.0,-13.0,-54.0,-35.0,-54.0,0.0
-61.0,-78.0,-35.0,-30.0,-42.0,-39.0,8.0,-17.0,3.0,-44.0,0.0
-214.0,-291.0,-120.0,-44.0,-25.0,-1.0,69.0,56.0,57.0,-33.0,0.0
-346.0,-413.0,-142.0,-21.0,-3.0,23.0,86.0,81.0,71.0,-30.0,0.0
-312.0,-330.0,-92.0,3.0,34.0,43.0,96.0,89.0,77.0,-19.0,0.0
-211.0,-134.0,0.0,35.0,45.0,48.0,59.0,47.0,31.0,-61.0,0.0
-146.0,-49.0,38.0,52.0,48.0,45.0,31.0,45.0,13.0,-56.0,0.0
-71.0,-37.0,41.0,55.0,58.0,57.0,34.0,56.0,28.0,11.0,0.0
-28.0,-31.0,34.0,53.0,62.0,70.0,29.0,61.0,26.0,35.0,0.0
-19.0,-12.0,36.0,58.0,61.0,69.0,9.0,51.0,3.0,27.0,0.0
-5.0,4.0,20.0,45.0,46.0,53.0,-5.0,44.0,1.0,22.0,0.0
23.0,15.0,-4.0,6.0,6.0,26.0,-13.0,34.0,-1.0,25.0,0.0
89.0,78.0,2.0,-34.0,-39.0,-3.0,-34.0,7.0,-22.0,12.0,0.0
185.0,144.0,-17.0,-57.0,-57.0,-18.0,-38.0,-22.0,-44.0,6.0,0.0
257.0,157.0,-42.0,-76.0,-60.0,-32.0,-36.0,-31.0,-56.0,4.0,0.0
266.0,130.0,-72.0,-91.0,-73.0,-49.0,-29.0,-28.0,-49.0,15.0,0.0
167.0,48.0,-98.0,-95.0,-64.0,-56.0,-18.0,-25.0,-26.0,48.0,0.0
-54.0,-46.0,-25.0,-20.0,-5.0,-33.0,-11.0,-43.0,-57.0,-46.0,0.0
-228.0,-95.0,56.0,55.0,22.0,-15.0,-14.0,-61.0,-96.0,-160.0,0.0
-220.0,-111.0,34.0,24.0,-14.0,-30.0,-19.0,-47.0,-39.0,-88.0,0.0
-100.0,-74.0,2.0,-17.0,-37.0,-22.0,-6.0,-3.0,27.0,24.0,0.0
-12.0,-34.0,16.0,-21.0,-19.0,-11.0,-3.0,28.0,63.0,61.0,0.0
14.0,-37.0,18.0,-10.0,3.0,26.0,10.0,51.0,70.0,77.0,0.0
-15.0,-63.0,24.0,12.0,30.0,67.0,49.0,78.0,76.0,81.0,0.0
-49.0,-47.0,48.0,24.0,37.0,75.0,67.0,77.0,81.0,57.0,0.0
-34.0,-13.0,48.0,31.0,35.0,64.0,52.0,80.0,87.0,52.0,0.0
-7.0,-18.0,17.0,9.0,26.0,52.0,36.0,82.0,65.0,50.0,0.0
-52.0,-19.0,9.0,2.0,24.0,59.0,35.0,71.0,41.0,17.0,0.0
-105.0,-38.0,17.0,5.0,25.0,52.0,34.0,66.0,53.0,22.0,0.0
-121.0,-34.0,9.0,-11.0,25.0,29.0,22.0,37.0,54.0,27.0,0.0
-82.0,-5.0,3.0,-30.0,7.0,4.0,10.0,8.0,36.0,1.0,0.0
-33.0,-28.0,-31.0,-60.0,-28.0,-8.0,11.0,3.0,17.0,-16.0,0.0
5.0,-56.0,-58.0,-87.0,-46.0,-20.0,4.0,-10.0,9.0,-24.0,0.0
28.0,-59.0,-60.0,-88.0,-40.0,-34.0,-5.0,-30.0,-10.0,-46.0,0.0
52.0,-40.0,-53.0,-78.0,-42.0,-36.0,-8.0,-58.0,-40.0,-81.0,0.0
30.0,-19.0,-48.0,-66.0,-33.0,-40.0,-10.0,-58.0,-57.0,-113.0,0.0
-22.0,-15.0,-20.0,-35.0,-16.0,-42.0,-16.0,-61.0,-61.0,-124.0,0.0
-31.0,20.0,26.0,-6.0,9.0,-22.0,-30.0,-55.0,-60.0,-95.0,0.0
0.0,47.0,60.0,25.0,29.0,-9.0,-29.0,-40.0,-33.0,-44.0,0.0
43.0,81.0,91.0,52.0,31.0,5.0,-18.0,-28.0,-18.0,-18.0,0.0
75.0,80.0,88.0,58.0,41.0,27.0,-10.0,-10.0,10.0,18.0,0.0
92.0,61.0,77.0,54.0,59.0,49.0,8.0,1.0,22.0,38.0,0.0
74.0,39.0,55.0,38.0,55.0,48.0,16.0,15.0,29.0,43.0,0.0
53.0,36.0,32.0,26.0,42.0,40.0,4.0,16.0,23.0,45.0,0.0
43.0,33.0,31.0,20.0,24.0,33.0,3.0,12.0,19.0,35.0,0.0
25.0,36.0,36.0,10.0,13.0,20.0,1.0,15.0,19.0,35.0,0.0
0.0,29.0,15.0,-7.0,-3.0,3.0,1.0,8.0,13.0,30.0,0.0
-22.0,1.0,-2.0,-30.0,-20.0,-10.0,1.0,-4.0,6.0,27.0,0.0
-28.0,-8.0,-12.0,-38.0,-29.0,-25.0,-7.0,-20.0,-16.0,3.0,0.0
-23.0,-9.0,-18.0,-57.0,-46.0,-46.0,-21.0,-35.0,-33.0,-30.0,0.0
-1.0,-8.0,-22.0,-52.0,-59.0,-60.0,-23.0,-39.0,-42.0,-52.0,0.0
20.0,0.0,-27.0,-44.0,-52.0,-53.0,-22.0,-42.0,-57.0,-71.0,0.0
9.0,6.0,-22.0,-39.0,-34.0,-44.0,-12.0,-29.0,-54.0,-71.0,0.0
-14.0,10.0,-28.0,-22.0,-20.0,-31.0,1.0,-6.0,-30.0,-55.0,0.0
-14.0,0.0,-27.0,9.0,-3.0,0.0,7.0,20.0,-5.0,-26.0,0.0
0.0,0.0,-18.0,25.0,7.0,14.0,6.0,34.0,17.0,-5.0,0.0
27.0,17.0,-4.0,36.0,26.0,41.0,4.0,30.0,31.0,3.0,0.0
46.0,23.0,8.0,45.0,36.0,59.0,2.0,31.0,52.0,26.0,0.0
87.0,16.0,19.0,48.0,13.0,47.0,-10.0,17.0,50.0,49.0,0.0
101.0,35.0,33.0,50.0,0.0,38.0,-12.0,5.0,44.0,52.0,0.0
68.0,41.0,30.0,45.0,4.0,44.0,0.0,19.0,49.0,44.0,0.0
47.0,48.0,35.0,25.0,4.0,36.0,10.0,22.0,47.0,37.0,0.0
27.0,35.0,46.0,20.0,0.0,6.0,7.0,20.0,35.0,25.0,0.0
6.0,11.0,39.0,38.0,15.0,-2.0,-6.0,11.0,15.0,8.0,0.0
25.0,-1.0,24.0,24.0,10.0,-26.0,-15.0,-11.0,-3.0,-10.0,0.0
53.0,22.0,0.0,0.0,-2.0,-48.0,-25.0,-35.0,-25.0,-14.0,0.0
106.0,77.0,-5.0,-22.0,-31.0,-71.0,-25.0,-53.0,-39.0,-15.0,0.0
200.0,106.0,-25.0,-42.0,-74.0,-78.0,-32.0,-62.0,-53.0,-10.0,0.0
246.0,96.0,-69.0,-60.0,-88.0,-63.0,-20.0,-38.0,-49.0,-4.0,0.0
212.0,74.0,-84.0,-57.0,-81.0,-41.0,3.0,-17.0,-46.0,-32.0,0.0
156.0,94.0,-44.0,-16.0,-56.0,-23.0,0.0,-19.0,-77.0,-80.0,0.0
185.0,213.0,25.0,-5.0,-59.0,-34.0,-34.0,-47.0,-88.0,-76.0,0.0
168.0,265.0,79.0,3.0,-75.0,-39.0,-58.0,-43.0,-58.0,-27.0,0.0
54.0,134.0,56.0,-6.0,-65.0,12.0,-23.0,24.0,30.0,67.0,0.0
-64.0,25.0,52.0,27.0,-8.0,68.0,9.0,61.0,47.0,62.0,0.0
-99.0,-78.0,37.0,84.0,73.0,104.0,27.0,80.0,32.0,40.0,0.0
-60.0,-118.0,40.0,88.0,67.0,87.0,16.0,70.0,13.0,19.0,0.0
21.0,-66.0,46.0,43.0,1.0,46.0,10.0,51.0,11.0,38.0,0.0
18.0,-75.0,27.0,36.0,50.0,39.0,-1.0,35.0,18.0,42.0,0.0
32.0,-91.0,-23.0,-4.0,57.0,32.0,-5.0,11.0,19.0,18.0,0.0
80.0,-56.0,-78.0,-80.0,-44.0,11.0,8.0,13.0,17.0,23.0,0.0
151.0,26.0,-58.0,-108.0,-91.0,0.0,1.0,-5.0,-35.0,-26.0,0.0
120.0,25.0,-31.0,-83.0,-61.0,-11.0,-8.0,-42.0,-89.0,-62.0,0.0
-7.0,-101.0,-75.0,-106.0,-49.0,-37.0,-15.0,-45.0,-46.0,8.0,0.0
-144.0,-150.0,-70.0,-90.0,-34.0,-36.0,-5.0,-51.0,-39.0,-32.0,0.0
-286.0,-181.0,-66.0,-58.0,11.0,-32.0,4.0,-47.0,-36.0,-89.0,0.0
-191.0,-127.0,-90.0,-59.0,-24.0,-52.0,-8.0,-29.0,-12.0,-46.0,0.0
-15.0,19.0,-55.0,-70.0,-88.0,-74.0,-45.0,-46.0,-33.0,-33.0,0.0
99.0,123.0,-5.0,-64.0,-82.0,-59.0,-62.0,-36.0,-12.0,29.0,0.0
156.0,109.0,15.0,-32.0,-25.0,1.0,-32.0,0.0,19.0,86.0,0.0
164.0,91.0,51.0,18.0,44.0,64.0,5.0,23.0,8.0,32.0,0.0
219.0,136.0,33.0,26.0,76.0,94.0,24.0,42.0,6.0,-28.0,0.0
355.0,240.0,-4.0,17.0,79.0,87.0,18.0,53.0,23.0,-16.0,0.0
420.0,310.0,0.0,68.0,52.0,58.0,2.0,41.0,40.0,47.0,0.0
311.0,241.0,32.0,74.0,-5.0,26.0,-7.0,32.0,47.0,72.0,0.0
85.0,71.0,44.0,80.0,-14.0,52.0,17.0,26.0,36.0,30.0,0.0
-156.0,-94.0,47.0,101.0,-3.0,70.0,38.0,45.0,20.0,-32.0,0.0
-310.0,-269.0,-4.0,46.0,-11.0,53.0,45.0,83.0,69.0,0.0,0.0
-400.0,-389.0,-72.0,-26.0,-104.0,-10.0,41.0,85.0,73.0,13.0,0.0
-342.0,-348.0,-111.0,-80.0,-189.0,-61.0,2.0,15.0,6.0,-59.0,0.0
-135.0,-202.0,-139.0,-169.0,-237.0,-84.0,-46.0,-29.0,-32.0,-67.0,0.0
-20.0,-6.0,-30.0,-180.0,-246.0,-91.0,-44.0,-41.0,-26.0,-67.0,0.0
-66.0,110.0,121.0,-79.0,-116.0,-55.0,-11.0,-24.0,1.0,-30.0,0.0
-198.0,49.0,142.0,-27.0,-25.0,-13.0,29.0,22.0,41.0,24.0,0.0
-322.0,-48.0,82.0,-70.0,-122.0,2.0,61.0,94.0,106.0,75.0,0.0
-410.0,-146.0,33.0,-8.0,-38.0,77.0,70.0,126.0,109.0,22.0,0.0
-452.0,-159.0,70.0,215.0,270.0,144.0,40.0,49.0,-20.0,-151.0,0.0
-390.0,-213.0,38.0,377.0,527.0,154.0,-18.0,-5.0,-36.0,-122.0,0.0
-270.0,-224.0,-27.0,320.0,504.0,122.0,-35.0,-9.0,-16.0,-53.0,0.0
-215.0,-106.0,11.0,201.0,304.0,85.0,-31.0,-16.0,-37.0,-90.0,0.0
-128.0,21.0,61.0,131.0,186.0,58.0,-25.0,0.0,-12.0,-58.0,0.0
-127.0,6.0,17.0,80.0,116.0,28.0,-19.0,10.0,25.0,2.0,0.0
-202.0,-83.0,-30.0,40.0,65.0,4.0,-7.0,-4.0,10.0,-11.0,0.0
-220.0,-122.0,-37.0,44.0,44.0,2.0,9.0,-8.0,-11.0,-41.0,0.0
-196.0,-139.0,-46.0,36.0,33.0,-5.0,17.0,3.0,4.0,-26.0,0.0
-163.0,-115.0,-47.0,20.0,8.0,-11.0,10.0,-3.0,2.0,-36.0,0.0
-124.0,-99.0,-51.0,-3.0,-23.0,-18.0,7.0,-1.0,-11.0,-37.0,0.0
-89.0,-101.0,-65.0,-23.0,-38.0,-35.0,6.0,0.0,-9.0,-23.0,0.0
-43.0,-72.0,-78.0,-18.0,-33.0,-36.0,5.0,-17.0,-21.0,-40.0,0.0
-37.0,-38.0,-45.0,0.0,-25.0,-33.0,6.0,-18.0,-33.0,-47.0,0.0
-29.0,-10.0,-14.0,23.0,-15.0,-29.0,7.0,-7.0,-18.0,-38.0,0.0
1.0,3.0,6.0,36.0,-8.0,-11.0,12.0,-1.0,-6.0,0.0,0.0
26.0,9.0,7.0,49.0,4.0,9.0,13.0,3.0,13.0,18.0,0.0
47.0,45.0,31.0,58.0,24.0,26.0,9.0,4.0,18.0,27.0,0.0
59.0,56.0,36.0,52.0,34.0,43.0,9.0,15.0,25.0,48.0,0.0
78.0,58.0,49.0,50.0,35.0,61.0,9.0,28.0,31.0,61.0,0.0
124.0,71.0,65.0,41.0,35.0,59.0,4.0,10.0,24.0,59.0,0.0
159.0,80.0,49.0,39.0,25.0,38.0,5.0,3.0,14.0,55.0,0.0
174.0,84.0,33.0,24.0,17.0,20.0,13.0,2.0,10.0,45.0,0.0
152.0,56.0,5.0,8.0,-7.0,0.0,9.0,-22.0,0.0,30.0,0.0
112.0,28.0,-29.0,-13.0,-29.0,-26.0,2.0,-31.0,-9.0,1.0,0.0
21.0,-16.0,-48.0,-36.0,-50.0,-58.0,-16.0,-53.0,-27.0,-34.0,0.0
-72.0,-63.0,-65.0,-62.0,-78.0,-83.0,-20.0,-67.0,-36.0,-56.0,0.0
-106.0,-70.0,-73.0,-79.0,-89.0,-84.0,-9.0,-64.0,-51.0,-52.0,0.0
-82.0,-64.0,-63.0,-60.0,-82.0,-78.0,-8.0,-51.0,-48.0,-54.0,0.0
-35.0,-40.0,-48.0,-49.0,-67.0,-67.0,-6.0,-49.0,-34.0,-41.0,0.0
19.0,-11.0,-36.0,-33.0,-59.0,-48.0,0.0,-42.0,-31.0,-21.0,0.0
96.0,7.0,-25.0,-20.0,-51.0,-32.0,1.0,-30.0,-19.0,0.0,0.0
156.0,26.0,-9.0,-18.0,-27.0,-17.0,-4.0,-16.0,-1.0,11.0,0.0
167.0,27.0,-5.0,-9.0,-10.0,0.0,-2.0,-9.0,14.0,10.0,0.0
127.0,39.0,7.0,6.0,11.0,34.0,11.0,14.0,26.0,21.0,0.0
109.0,61.0,24.0,25.0,33.0,57.0,14.0,20.0,24.0,38.0,0.0
117.0,66.0,34.0,24.0,35.0,55.0,14.0,17.0,19.0,51.0,0.0
120.0,61.0,24.0,17.0,20.0,42.0,3.0,12.0,16.0,60.0,0.0
114.0,58.0,-4.0,9.0,16.0,33.0,4.0,9.0,12.0,42.0,0.0
93.0,41.0,-25.0,-12.0,14.0,14.0,8.0,4.0,14.0,25.0,0.0
59.0,0.0,-37.0,-36.0,-4.0,-11.0,7.0,-8.0,4.0,15.0,0.0
18.0,-29.0,-40.0,-49.0,-16.0,-32.0,20.0,-10.0,-14.0,-3.0,0.0
-11.0,-38.0,-51.0,-60.0,-32.0,-52.0,11.0,-28.0,-33.0,-19.0,0.0
-35.0,-34.0,-55.0,-65.0,-63.0,-77.0,-10.0,-46.0,-43.0,-34.0,0.0
-22.0,-36.0,-53.0,-82.0,-82.0,-84.0,-26.0,-50.0,-59.0,-34.0,0.0
0.0,-40.0,-51.0,-98.0,-84.0,-83.0,-20.0,-45.0,-66.0,-20.0,0.0
28.0,-22.0,-45.0,-89.0,-75.0,-72.0,-12.0,-30.0,-45.0,-10.0,0.0
66.0,3.0,-52.0,-79.0,-67.0,-63.0,-9.0,-17.0,-39.0,0.0,0.0
120.0,44.0,-39.0,-64.0,-59.0,-44.0,-13.0,-18.0,-28.0,10.0,0.0
154.0,94.0,-21.0,-21.0,-31.0,-29.0,-7.0,-9.0,-4.0,33.0,0.0
161.0,120.0,15.0,13.0,10.0,3.0,9.0,2.0,2.0,25.0,0.0
170.0,120.0,43.0,33.0,38.0,36.0,15.0,6.0,-1.0,26.0,0.0
183.0,119.0,59.0,46.0,47.0,40.0,16.0,22.0,16.0,49.0,0.0
181.0,112.0,66.0,41.0,55.0,40.0,3.0,11.0,10.0,39.0,0.0
156.0,72.0,39.0,13.0,56.0,45.0,18.0,21.0,28.0,42.0,0.0
139.0,45.0,19.0,14.0,55.0,46.0,44.0,25.0,27.0,26.0,0.0
169.0,79.0,30.0,-1.0,17.0,9.0,18.0,-3.0,12.0,6.0,0.0
171.0,128.0,35.0,-34.0,-27.0,-41.0,-19.0,-24.0,-5.0,16.0,0.0
123.0,115.0,-4.0,-64.0,-57.0,-71.0,-34.0,-27.0,-12.0,39.0,0.0
-14.0,34.0,-41.0,-72.0,-65.0,-74.0,-42.0,-29.0,-14.0,12.0,0.0
-184.0,-46.0,2.0,-26.0,-36.0,-78.0,-33.0,-38.0,-30.0,-48.0,0.0
-232.0,-60.0,40.0,9.0,-13.0,-76.0,-12.0,-42.0,-45.0,-87.0,0.0
-248.0,-63.0,24.0,1.0,-16.0,-71.0,5.0,-26.0,-15.0,-57.0,0.0
-271.0,-38.0,27.0,-13.0,-7.0,-53.0,10.0,-15.0,-23.0,-91.0,0.0
-149.0,0.0,30.0,-2.0,9.0,-24.0,22.0,6.0,-28.0,-86.0,0.0
33.0,55.0,26.0,10.0,31.0,-4.0,22.0,27.0,-17.0,-52.0,0.0
195.0,143.0,56.0,24.0,45.0,5.0,6.0,15.0,-24.0,-37.0,0.0
367.0,241.0,79.0,24.0,45.0,23.0,0.0,14.0,-20.0,11.0,0.0
435.0,248.0,59.0,23.0,30.0,30.0,-6.0,25.0,0.0,62.0,0.0
388.0,228.0,44.0,13.0,22.0,23.0,-15.0,12.0,-17.0,52.0,0.0
310.0,136.0,10.0,-24.0,-10.0,0.0,-33.0,-1.0,-40.0,30.0,0.0
155.0,-20.0,-35.0,-50.0,-25.0,-16.0,-13.0,7.0,-16.0,25.0,0.0
86.0,-52.0,-30.0,-60.0,-35.0,-15.0,2.0,18.0,7.0,36.0,0.0
21.0,-26.0,7.0,-57.0,-40.0,-29.0,-9.0,-4.0,-8.0,20.0,0.0
-148.0,-102.0,-15.0,-83.0,-50.0,-25.0,17.0,44.0,55.0,69.0,0.0
-210.0,-126.0,-38.0,-89.0,-85.0,-59.0,3.0,40.0,63.0,85.0,0.0
-246.0,-150.0,-34.0,-35.0,-71.0,-76.0,-11.0,7.0,27.0,4.0,0.0
-264.0,-185.0,-26.0,-15.0,-59.0,-55.0,17.0,14.0,18.0,-63.0,0.0
-217.0,-120.0,3.0,-8.0,-60.0,-30.0,30.0,13.0,8.0,-97.0,0.0
-250.0,-111.0,25.0,1.0,-62.0,-22.0,29.0,44.0,27.0,-97.0,0.0
-291.0,-152.0,18.0,-25.0,-101.0,-26.0,35.0,57.0,53.0,-52.0,0.0
-333.0,-217.0,9.0,2.0,-24.0,-12.0,18.0,46.0,41.0,-34.0,0.0
-338.0,-235.0,13.0,87.0,163.0,29.0,11.0,40.0,24.0,-54.0,0.0
-238.0,-147.0,34.0,102.0,187.0,62.0,24.0,50.0,44.0,-20.0,0.0
-134.0,-65.0,55.0,91.0,129.0,62.0,27.0,65.0,48.0,17.0,0.0
-89.0,-35.0,62.0,91.0,133.0,69.0,26.0,72.0,46.0,21.0,0.0
-68.0,-41.0,49.0,75.0,134.0,65.0,15.0,53.0,48.0,22.0,0.0
-45.0,-60.0,35.0,50.0,92.0,63.0,16.0,53.0,55.0,56.0,0.0
-24.0,-49.0,30.0,30.0,58.0,66.0,21.0,62.0,55.0,73.0,0.0
15.0,-15.0,13.0,0.0,8.0,37.0,-5.0,44.0,37.0,57.0,0.0
94.0,44.0,-22.0,-64.0,-67.0,-13.0,-30.0,13.0,11.0,41.0,0.0
162.0,82.0,-61.0,-115.0,-102.0,-42.0,-40.0,-18.0,-42.0,5.0,0.0
203.0,97.0,-99.0,-110.0,-97.0,-91.0,-83.0,-84.0,-118.0,-46.0,0.0
210.0,197.0,-35.0,-69.0,-85.0,-151.0,-154.0,-162.0,-161.0,-70.0,0.0
191.0,321.0,113.0,-31.0,-107.0,-142.0,-124.0,-141.0,-124.0,-40.0,0.0
111.0,228.0,110.0,-60.0,-136.0,-79.0,-42.0,-35.0,-34.0,12.0,0.0
-24.0,-35.0,-34.0,-66.0,-79.0,-3.0,43.0,74.0,84.0,80.0,0.0
-146.0,-266.0,-141.0,13.0,63.0,30.0,52.0,76.0,92.0,67.0,0.0
-166.0,-267.0,-102.0,70.0,169.0,39.0,-3.0,10.0,18.0,-12.0,0.0
-20.0,-97.0,-18.0,49.0,112.0,36.0,-33.0,8.0,-16.0,-21.0,0.0
94.0,-23.0,-10.0,15.0,59.0,47.0,-7.0,54.0,42.0,63.0,0.0
50.0,-63.0,-36.0,22.0,67.0,62.0,3.0,83.0,73.0,102.0,0.0
20.0,-47.0,-46.0,20.0,92.0,74.0,-7.0,66.0,64.0,93.0,0.0
-10.0,-6.0,-11.0,24.0,95.0,78.0,-3.0,47.0,25.0,24.0,0.0
6.0,-4.0,-13.0,14.0,78.0,70.0,10.0,46.0,26.0,17.0,0.0
18.0,-47.0,-46.0,3.0,48.0,59.0,23.0,72.0,77.0,84.0,0.0
-71.0,-85.0,-37.0,13.0,32.0,39.0,28.0,61.0,70.0,30.0,0.0
-109.0,-83.0,-8.0,28.0,23.0,20.0,1.0,21.0,2.0,-94.0,0.0
-81.0,-78.0,-17.0,18.0,4.0,3.0,-17.0,-13.0,-40.0,-113.0,0.0
-132.0,-90.0,-35.0,-2.0,-17.0,-16.0,-13.0,-26.0,-65.0,-122.0,0.0
-193.0,-93.0,-40.0,-9.0,-34.0,-40.0,-9.0,-39.0,-79.0,-127.0,0.0
-167.0,-66.0,-30.0,-14.0,-52.0,-64.0,-5.0,-35.0,-58.0,-82.0,0.0
-84.0,-16.0,-16.0,-27.0,-68.0,-68.0,1.0,-49.0,-54.0,-47.0,0.0
-28.0,12.0,1.0,-17.0,-48.0,-59.0,-6.0,-40.0,-65.0,-48.0,0.0
-7.0,39.0,18.0,0.0,-18.0,-39.0,-3.0,-20.0,-56.0,-45.0,0.0
10.0,54.0,23.0,4.0,0.0,-8.0,10.0,0.0,-23.0,8.0,0.0
0.0,47.0,27.0,18.0,18.0,8.0,20.0,9.0,-7.0,24.0,0.0
-6.0,59.0,50.0,40.0,21.0,8.0,-1.0,5.0,-6.0,0.0,0.0
-10.0,56.0,52.0,47.0,17.0,19.0,8.0,35.0,24.0,19.0,0.0
20.0,86.0,67.0,49.0,27.0,37.0,19.0,54.0,52.0,49.0,0.0
54.0,119.0,99.0,61.0,43.0,37.0,14.0,33.0,44.0,44.0,0.0
53.0,90.0,61.0,46.0,33.0,21.0,10.0,20.0,42.0,58.0,0.0
27.0,36.0,2.0,31.0,16.0,11.0,6.0,24.0,33.0,45.0,0.0
8.0,7.0,-25.0,15.0,-7.0,-3.0,5.0,18.0,-1.0,18.0,0.0
0.0,32.0,7.0,8.0,-11.0,-14.0,-3.0,-10.0,-29.0,-17.0,0.0
-8.0,16.0,-1.0,-10.0,-18.0,-26.0,4.0,-14.0,-30.0,-14.0,0.0
3.0,-28.0,-63.0,-22.0,-43.0,-39.0,12.0,-17.0,-38.0,-25.0,0.0
58.0,-13.0,-72.0,-17.0,-47.0,-41.0,0.0,-56.0,-86.0,-86.0,0.0
89.0,14.0,-41.0,-25.0,-43.0,-44.0,0.0,-79.0,-102.0,-107.0,0.0
90.0,23.0,-48.0,-45.0,-55.0,-50.0,-10.0,-61.0,-67.0,-49.0,0.0
63.0,-13.0,-82.0,-69.0,-63.0,-37.0,-8.0,-23.0,-22.0,23.0,0.0
-3.0,-48.0,-96.0,-68.0,-57.0,-12.0,5.0,15.0,31.0,86.0,0.0
-27.0,7.0,-36.0,-40.0,-45.0,-7.0,15.0,1.0,25.0,43.0,0.0
-51.0,20.0,5.0,-23.0,-31.0,11.0,24.0,-5.0,30.0,19.0,0.0
-38.0,11.0,40.0,-27.0,-33.0,54.0,49.0,44.0,70.0,57.0,0.0
5.0,40.0,64.0,-18.0,-45.0,77.0,59.0,70.0,72.0,73.0,0.0
34.0,62.0,67.0,6.0,-49.0,70.0,42.0,66.0,55.0,43.0,0.0
1.0,47.0,79.0,29.0,-25.0,68.0,20.0,42.0,30.0,40.0,0.0
-58.0,-9.0,101.0,34.0,6.0,73.0,19.0,46.0,41.0,59.0,0.0
-66.0,8.0,109.0,54.0,33.0,72.0,14.0,21.0,36.0,33.0,0.0
-7.0,64.0,78.0,97.0,55.0,25.0,-18.0,-25.0,-18.0,-14.0,0.0
90.0,92.0,30.0,69.0,61.0,-30.0,-63.0,-67.0,-65.0,-28.0,0.0
150.0,59.0,-32.0,-36.0,-34.0,-90.0,-83.0,-104.0,-92.0,-22.0,0.0
99.0,-30.0,-74.0,-70.0,-85.0,-82.0,-69.0,-101.0,-88.0,-41.0,0.0
-15.0,-84.0,-31.0,-40.0,-53.0,-72.0,-60.0,-81.0,-73.0,-59.0,0.0
-145.0,-66.0,50.0,3.0,-36.0,-63.0,-50.0,-77.0,-88.0,-131.0,0.0
-151.0,-12.0,74.0,-4.0,-61.0,-29.0,-23.0,-62.0,-64.0,-113.0,0.0
-133.0,26.0,62.0,2.0,-22.0,-13.0,-12.0,-47.0,-28.0,-61.0,0.0
-99.0,20.0,40.0,88.0,113.0,7.0,-11.0,-32.0,-16.0,-43.0,0.0
35.0,50.0,25.0,115.0,124.0,24.0,-15.0,-17.0,16.0,-10.0,0.0
183.0,125.0,32.0,81.0,73.0,33.0,-28.0,-6.0,26.0,29.0,0.0
243.0,170.0,64.0,78.0,77.0,64.0,-22.0,10.0,10.0,28.0,0.0
257.0,197.0,94.0,94.0,82.0,73.0,-4.0,16.0,-5.0,32.0,0.0
174.0,138.0,76.0,68.0,62.0,61.0,-3.0,10.0,1.0,57.0,0.0
-22.0,-29.0,28.0,47.0,47.0,55.0,2.0,29.0,33.0,62.0,0.0
-120.0,-112.0,-14.0,42.0,38.0,66.0,23.0,55.0,53.0,58.0,0.0
-49.0,-41.0,-28.0,27.0,23.0,55.0,11.0,25.0,27.0,19.0,0.0
30.0,30.0,-12.0,6.0,-7.0,11.0,-12.0,-11.0,-4.0,-39.0,0.0
31.0,-11.0,-40.0,-20.0,-39.0,-17.0,-21.0,-19.0,-16.0,-33.0,0.0
-15.0,-123.0,-75.0,-54.0,-72.0,-42.0,-44.0,-39.0,-39.0,-65.0,0.0
-102.0,-222.0,-91.0,-64.0,-83.0,-63.0,-50.0,-52.0,-64.0,-77.0,0.0
-108.0,-199.0,-95.0,-63.0,-80.0,-54.0,-12.0,-44.0,-58.0,-55.0,0.0
-86.0,-124.0,-96.0,-71.0,-72.0,-54.0,4.0,-37.0,-35.0,-27.0,0.0
-68.0,-82.0,-99.0,-81.0,-67.0,-44.0,12.0,-20.0,9.0,1.0,0.0
-11.0,2.0,-55.0,-55.0,-39.0,-24.0,-4.0,-22.0,-13.0,-41.0,0.0
61.0,48.0,-18.0,-30.0,-20.0,-8.0,-28.0,-18.0,-37.0,-35.0,0.0
167.0,66.0,-11.0,-43.0,-27.0,0.0,-45.0,-18.0,-18.0,22.0,0.0
230.0,69.0,-13.0,-55.0,-48.0,12.0,-26.0,3.0,35.0,105.0,0.0
211.0,87.0,12.0,-65.0,-55.0,25.0,-6.0,25.0,58.0,167.0,0.0
140.0,89.0,55.0,-28.0,-42.0,42.0,1.0,35.0,48.0,155.0,0.0
37.0,51.0,73.0,-4.0,-18.0,56.0,26.0,35.0,45.0,95.0,0.0
24.0,50.0,53.0,10.0,2.0,60.0,38.0,33.0,60.0,68.0,0.0
42.0,14.0,19.0,37.0,34.0,52.0,26.0,18.0,39.0,55.0,0.0
95.0,-14.0,-14.0,2.0,34.0,5.0,-11.0,-7.0,-6.0,17.0,0.0
231.0,0.0,-56.0,-47.0,7.0,-50.0,-49.0,-56.0,-45.0,-5.0,0.0
314.0,34.0,-127.0,-83.0,-6.0,-76.0,-74.0,-98.0,-90.0,-54.0,0.0
240.0,113.0,-94.0,-99.0,-42.0,-83.0,-79.0,-106.0,-122.0,-125.0,0.0
197.0,193.0,-9.0,-110.0,-83.0,-73.0,-42.0,-86.0,-96.0,-99.0,0.0
-28.0,28.0,-47.0,-118.0,-67.0,-31.0,33.0,-24.0,-5.0,-25.0,0.0
-338.0,-167.0,-47.0,-32.0,3.0,10.0,67.0,18.0,23.0,-70.0,0.0
-466.0,-233.0,-4.0,44.0,70.0,40.0,60.0,38.0,8.0,-98.0,0.0
-485.0,-210.0,30.0,64.0,95.0,63.0,59.0,52.0,-8.0,-143.0,0.0
-351.0,-210.0,-1.0,32.0,91.0,76.0,86.0,95.0,51.0,-73.0,0.0
-196.0,-198.0,-30.0,8.0,76.0,95.0,109.0,126.0,122.0,21.0,0.0
-122.0,-121.0,4.0,25.0,79.0,111.0,80.0,105.0,104.0,29.0,0.0
-112.0,-37.0,42.0,42.0,85.0,107.0,49.0,72.0,64.0,1.0,0.0
-52.0,4.0,42.0,51.0,84.0,85.0,16.0,53.0,32.0,1.0,0.0
-4.0,20.0,24.0,38.0,68.0,53.0,-6.0,11.0,8.0,12.0,0.0
34.0,32.0,14.0,24.0,60.0,40.0,-1.0,16.0,18.0,14.0,0.0
22.0,9.0,-7.0,-13.0,27.0,33.0,15.0,47.0,58.0,60.0,0.0
-50.0,-35.0,-13.0,-20.0,1.0,17.0,10.0,40.0,75.0,67.0,0.0
-92.0,-34.0,18.0,-14.0,-1.0,-5.0,0.0,5.0,22.0,-17.0,0.0
-120.0,-37.0,8.0,-7.0,-10.0,-32.0,-9.0,-22.0,-33.0,-103.0,0.0
-109.0,-41.0,-21.0,-23.0,-43.0,-50.0,0.0,-27.0,-39.0,-101.0,0.0
-94.0,-57.0,-40.0,-47.0,-67.0,-73.0,-2.0,-22.0,-18.0,-66.0,0.0
-104.0,-95.0,-27.0,-23.0,-23.0,-64.0,-16.0,-25.0,-18.0,-60.0,0.0
-98.0,-80.0,2.0,16.0,9.0,-46.0,-17.0,-29.0,-20.0,-60.0,0.0
-71.0,-39.0,15.0,21.0,-9.0,-49.0,-28.0,-22.0,-11.0,-45.0,0.0
-32.0,6.0,29.0,19.0,-10.0,-33.0,-38.0,-25.0,-9.0,-22.0,0.0
0.0,52.0,45.0,37.0,12.0,-15.0,-38.0,-17.0,-1.0,6.0,0.0
26.0,103.0,72.0,48.0,40.0,9.0,-9.0,0.0,21.0,22.0,0.0
53.0,108.0,75.0,60.0,65.0,37.0,26.0,20.0,31.0,45.0,0.0
103.0,105.0,61.0,67.0,58.0,45.0,24.0,43.0,49.0,69.0,0.0
146.0,83.0,45.0,60.0,40.0,30.0,12.0,53.0,56.0,81.0,0.0
170.0,71.0,46.0,46.0,27.0,26.0,1.0,33.0,47.0,60.0,0.0
141.0,40.0,25.0,30.0,-1.0,13.0,-6.0,8.0,19.0,32.0,0.0
180.0,6.0,-78.0,-118.0,-189.0,-62.0,-10.0,-39.0,-27.0,-6.0,0.0
52.0,-90.0,-74.0,-102.0,-202.0,-46.0,10.0,-11.0,10.0,14.0,0.0
-58.0,-102.0,-36.0,-92.0,-200.0,-33.0,24.0,2.0,10.0,-11.0,0.0
-83.0,-70.0,-26.0,-79.0,-208.0,-39.0,39.0,-3.0,6.0,-11.0,0.0
-53.0,-4.0,-4.0,-44.0,-132.0,-30.0,24.0,-40.0,-23.0,-40.0,0.0
-24.0,62.0,36.0,27.0,32.0,6.0,7.0,-65.0,-46.0,-59.0,0.0
40.0,110.0,51.0,106.0,171.0,29.0,-22.0,-62.0,-46.0,-50.0,0.0
125.0,140.0,19.0,139.0,237.0,38.0,-37.0,-64.0,-47.0,-49.0,0.0
241.0,190.0,16.0,87.0,149.0,30.0,-28.0,-70.0,-47.0,-25.0,0.0
355.0,219.0,27.0,27.0,76.0,18.0,-5.0,-62.0,-25.0,40.0,0.0
326.0,158.0,-17.0,-28.0,28.0,4.0,-5.0,-24.0,27.0,104.0,0.0
181.0,56.0,-49.0,-38.0,11.0,6.0,7.0,16.0,91.0,156.0,0.0
-28.0,3.0,9.0,12.0,43.0,46.0,28.0,52.0,86.0,112.0,0.0
-199.0,26.0,67.0,26.0,51.0,65.0,41.0,48.0,33.0,-19.0,0.0
-177.0,56.0,36.0,4.0,13.0,35.0,41.0,22.0,-1.0,-92.0,0.0
-131.0,0.0,-43.0,-36.0,-26.0,5.0,26.0,7.0,-5.0,-92.0,0.0
-98.0,-36.0,-78.0,-54.0,-51.0,-10.0,22.0,-4.0,-9.0,-77.0,0.0
-52.0,-43.0,-76.0,-51.0,-56.0,-27.0,3.0,-20.0,-13.0,-61.0,0.0
-76.0,-51.0,-21.0,20.0,-3.0,-34.0,-23.0,-59.0,-57.0,-120.0,0.0
-173.0,-92.0,-4.0,60.0,11.0,-32.0,-27.0,-68.0,-81.0,-173.0,0.0
-245.0,-187.0,-50.0,9.0,-20.0,-52.0,-20.0,-53.0,-59.0,-147.0,0.0
-217.0,-147.0,-42.0,11.0,-9.0,-41.0,-17.0,-40.0,-41.0,-106.0,0.0
-101.0,-40.0,15.0,36.0,10.0,-4.0,-17.0,-22.0,-35.0,-71.0,0.0
7.0,16.0,46.0,52.0,21.0,15.0,-7.0,-6.0,-6.0,-14.0,0.0
58.0,7.0,29.0,57.0,26.0,24.0,9.0,14.0,14.0,34.0,0.0
40.0,-40.0,-6.0,51.0,30.0,46.0,20.0,26.0,34.0,53.0,0.0
-30.0,-117.0,-22.0,39.0,38.0,47.0,23.0,32.0,33.0,55.0,0.0
-77.0,-128.0,-12.0,45.0,36.0,37.0,14.0,34.0,19.0,50.0,0.0
-36.0,-73.0,-8.0,47.0,31.0,25.0,3.0,24.0,5.0,44.0,0.0
-1.0,-50.0,-18.0,23.0,19.0,6.0,-5.0,3.0,-6.0,31.0,0.0
-3.0,-45.0,-31.0,-10.0,-5.0,-24.0,-14.0,-14.0,-6.0,16.0,0.0
-12.0,-45.0,-29.0,-34.0,-32.0,-48.0,-14.0,-12.0,-25.0,-5.0,0.0
-34.0,-53.0,-33.0,-46.0,-56.0,-63.0,-13.0,-29.0,-31.0,-34.0,0.0
-51.0,-65.0,-35.0,-59.0,-67.0,-70.0,-14.0,-40.0,-39.0,-48.0,0.0
-52.0,-59.0,-38.0,-61.0,-74.0,-74.0,-22.0,-39.0,-48.0,-39.0,0.0
-62.0,-41.0,-38.0,-65.0,-72.0,-63.0,-19.0,-49.0,-49.0,-44.0,0.0
-76.0,-27.0,-28.0,-48.0,-57.0,-44.0,-3.0,-40.0,-30.0,-22.0,0.0
-68.0,-18.0,-22.0,-31.0,-32.0,-26.0,5.0,-23.0,-8.0,10.0,0.0
-39.0,9.0,-3.0,-23.0,-17.0,1.0,21.0,-2.0,13.0,35.0,0.0
19.0,39.0,5.0,-8.0,-16.0,21.0,24.0,25.0,35.0,68.0,0.0
69.0,66.0,17.0,-3.0,-16.0,29.0,22.0,46.0,51.0,99.0,0.0
143.0,87.0,39.0,-2.0,-17.0,38.0,14.0,49.0,60.0,122.0,0.0
213.0,108.0,47.0,-16.0,-33.0,37.0,1.0,36.0,57.0,123.0,0.0
214.0,117.0,57.0,-26.0,-45.0,41.0,-3.0,33.0,38.0,78.0,0.0
209.0,110.0,74.0,-14.0,-59.0,50.0,0.0,26.0,23.0,30.0,0.0
225.0,115.0,62.0,-16.0,-65.0,41.0,0.0,29.0,14.0,18.0,0.0
271.0,146.0,39.0,-29.0,-88.0,9.0,-9.0,5.0,-8.0,7.0,0.0
348.0,225.0,16.0,-6.0,-39.0,-41.0,-56.0,-69.0,-60.0,-27.0,0.0
349.0,229.0,-34.0,34.0,99.0,-77.0,-121.0,-153.0,-163.0,-110.0,0.0
321.0,185.0,-92.0,-15.0,87.0,-91.0,-140.0,-171.0,-196.0,-138.0,0.0
341.0,156.0,-113.0,-86.0,-15.0,-94.0,-104.0,-124.0,-124.0,-29.0,0.0
232.0,84.0,-87.0,-68.0,-49.0,-83.0,-74.0,-86.0,-66.0,23.0,0.0
-18.0,51.0,-13.0,-15.0,-37.0,-71.0,-75.0,-84.0,-77.0,-53.0,0.0
-189.0,42.0,32.0,0.0,-36.0,-67.0,-54.0,-53.0,-34.0,-62.0,0.0
-248.0,0.0,79.0,24.0,0.0,-15.0,-17.0,-15.0,-4.0,-58.0,0.0
-219.0,-84.0,70.0,57.0,59.0,61.0,31.0,17.0,-5.0,-64.0,0.0
-86.0,-95.0,16.0,44.0,67.0,72.0,33.0,31.0,-3.0,-30.0,0.0
23.0,-63.0,-42.0,-1.0,39.0,57.0,20.0,50.0,50.0,64.0,0.0
48.0,16.0,-34.0,-24.0,22.0,55.0,26.0,88.0,125.0,160.0,0.0
-37.0,75.0,34.0,10.0,34.0,78.0,32.0,92.0,124.0,110.0,0.0
-70.0,54.0,62.0,35.0,53.0,106.0,30.0,95.0,104.0,81.0,0.0
-88.0,-12.0,43.0,23.0,47.0,103.0,47.0,97.0,102.0,103.0,0.0
-188.0,-112.0,6.0,2.0,13.0,63.0,26.0,80.0,97.0,70.0,0.0
-251.0,-166.0,-18.0,-13.0,-16.0,30.0,11.0,45.0,50.0,-6.0,0.0
-245.0,-198.0,-35.0,-34.0,-42.0,0.0,-1.0,22.0,17.0,-15.0,0.0
-221.0,-210.0,-56.0,-53.0,-53.0,-18.0,5.0,9.0,12.0,-20.0,0.0
-239.0,-230.0,-65.0,-77.0,-53.0,-29.0,12.0,5.0,-2.0,-58.0,0.0
-258.0,-239.0,-69.0,-68.0,-38.0,-22.0,14.0,-11.0,-7.0,-82.0,0.0
-205.0,-185.0,-62.0,-57.0,-22.0,-28.0,-3.0,-21.0,-20.0,-80.0,0.0
-149.0,-134.0,-41.0,-52.0,-22.0,-31.0,-22.0,-12.0,-23.0,-63.0,0.0
-117.0,-97.0,-27.0,-39.0,-24.0,-25.0,-13.0,-5.0,-17.0,-36.0,0.0
-80.0,-72.0,-18.0,-26.0,-2.0,5.0,-2.0,-9.0,-17.0,-5.0,0.0
-26.0,-53.0,-15.0,-15.0,22.0,27.0,3.0,1.0,9.0,19.0,0.0
13.0,-11.0,-12.0,-9.0,28.0,34.0,18.0,16.0,16.0,43.0,0.0
48.0,12.0,1.0,-7.0,43.0,47.0,24.0,28.0,23.0,69.0,0.0
74.0,32.0,26.0,3.0,59.0,50.0,17.0,35.0,38.0,64.0,0.0
86.0,47.0,65.0,17.0,61.0,49.0,1.0,32.0,39.0,60.0,0.0
90.0,47.0,82.0,11.0,60.0,40.0,-26.0,21.0,24.0,54.0,0.0
86.0,40.0,59.0,4.0,45.0,31.0,-39.0,10.0,12.0,29.0,0.0
68.0,38.0,35.0,-3.0,16.0,23.0,-37.0,0.0,4.0,5.0,0.0
45.0,28.0,22.0,-29.0,-13.0,7.0,-28.0,-12.0,-9.0,-11.0,0.0
32.0,11.0,0.0,-38.0,-28.0,-6.0,-29.0,-20.0,-17.0,-24.0,0.0
2.0,-16.0,-19.0,-46.0,-40.0,-30.0,-25.0,-28.0,-46.0,-36.0,0.0
-16.0,-40.0,-35.0,-63.0,-58.0,-57.0,-16.0,-34.0,-54.0,-55.0,0.0
-21.0,-44.0,-36.0,-80.0,-71.0,-67.0,-14.0,-46.0,-46.0,-57.0,0.0
-8.0,-36.0,-33.0,-90.0,-82.0,-55.0,-14.0,-38.0,-28.0,-42.0,0.0
-3.0,-25.0,-21.0,-87.0,-62.0,-30.0,-17.0,-24.0,-25.0,-37.0,0.0
7.0,-1.0,5.0,-55.0,-43.0,-20.0,-6.0,-24.0,-22.0,-18.0,0.0
66.0,54.0,36.0,-43.0,-47.0,-11.0,-4.0,-27.0,2.0,17.0,0.0
150.0,112.0,69.0,-18.0,-56.0,-9.0,-19.0,-16.0,11.0,43.0,0.0
240.0,184.0,80.0,21.0,-33.0,0.0,-50.0,-16.0,-7.0,58.0,0.0
333.0,244.0,85.0,64.0,32.0,3.0,-55.0,-26.0,-26.0,81.0,0.0
354.0,235.0,56.0,53.0,76.0,2.0,-65.0,-17.0,-26.0,105.0,0.0
314.0,185.0,-9.0,17.0,48.0,0.0,-54.0,9.0,8.0,135.0,0.0
259.0,134.0,-13.0,17.0,59.0,27.0,-12.0,30.0,19.0,96.0,0.0
199.0,108.0,27.0,42.0,79.0,67.0,10.0,38.0,10.0,10.0,0.0
161.0,75.0,21.0,32.0,49.0,57.0,4.0,31.0,-20.0,-70.0,0.0
106.0,10.0,-25.0,2.0,15.0,-1.0,-11.0,2.0,-41.0,-68.0,0.0
-22.0,-33.0,-39.0,27.0,19.0,-40.0,-42.0,-38.0,-56.0,-51.0,0.0
-117.0,5.0,8.0,29.0,-18.0,-72.0,-65.0,-61.0,-40.0,-3.0,0.0
-165.0,55.0,26.0,-12.0,-67.0,-90.0,-62.0,-58.0,-16.0,0.0,0.0
-239.0,37.0,31.0,-22.0,-63.0,-64.0,-27.0,-21.0,-19.0,-104.0,0.0
-308.0,-98.0,-15.0,-31.0,-38.0,-15.0,35.0,30.0,2.0,-127.0,0.0
-284.0,-181.0,-50.0,-28.0,-9.0,0.0,67.0,49.0,18.0,-93.0,0.0
-213.0,-136.0,-36.0,7.0,19.0,5.0,65.0,38.0,20.0,-40.0,0.0
-126.0,-70.0,3.0,35.0,22.0,10.0,56.0,32.0,25.0,-8.0,0.0
-56.0,-35.0,27.0,-15.0,-36.0,24.0,67.0,50.0,50.0,31.0,0.0
1.0,15.0,44.0,-48.0,-90.0,33.0,83.0,84.0,85.0,68.0,0.0
12.0,15.0,57.0,-14.0,-60.0,71.0,82.0,100.0,94.0,86.0,0.0
37.0,-3.0,53.0,-31.0,-56.0,76.0,80.0,114.0,101.0,116.0,0.0
39.0,-10.0,46.0,-59.0,-72.0,68.0,86.0,114.0,92.0,113.0,0.0
-13.0,-30.0,38.0,9.0,16.0,64.0,65.0,77.0,56.0,59.0,0.0
-52.0,-65.0,0.0,56.0,122.0,28.0,8.0,10.0,-4.0,-6.0,0.0
-39.0,-82.0,-22.0,102.0,186.0,-17.0,-42.0,-34.0,-54.0,-47.0,0.0
-20.0,-88.0,-42.0,128.0,246.0,-44.0,-59.0,-73.0,-79.0,-78.0,0.0
-31.0,-92.0,-58.0,83.0,189.0,-64.0,-53.0,-79.0,-88.0,-96.0,0.0
-53.0,-93.0,-70.0,7.0,60.0,-65.0,-41.0,-52.0,-69.0,-80.0,0.0
-80.0,-99.0,-75.0,-17.0,10.0,-64.0,-25.0,-32.0,-48.0,-34.0,0.0
-79.0,-65.0,-51.0,-12.0,-26.0,-74.0,-7.0,-35.0,-42.0,-11.0,0.0
-85.0,-32.0,-31.0,-6.0,-54.0,-70.0,-9.0,-30.0,-39.0,-29.0,0.0
-77.0,-39.0,-27.0,-7.0,-56.0,-45.0,-19.0,-11.0,-22.0,-20.0,0.0
-38.0,-26.0,-10.0,-11.0,-21.0,-15.0,-7.0,-4.0,0.0,9.0,0.0
-4.0,5.0,2.0,-8.0,13.0,10.0,2.0,1.0,11.0,26.0,0.0
27.0,35.0,13.0,6.0,51.0,33.0,17.0,17.0,32.0,37.0,0.0
67.0,54.0,21.0,20.0,79.0,36.0,26.0,33.0,43.0,54.0,0.0
94.0,60.0,27.0,38.0,55.0,47.0,25.0,44.0,50.0,69.0,0.0
86.0,74.0,27.0,32.0,5.0,51.0,27.0,48.0,55.0,80.0,0.0
87.0,78.0,37.0,4.0,-36.0,35.0,36.0,61.0,71.0,85.0,0.0
92.0,89.0,36.0,-21.0,-71.0,24.0,26.0,43.0,76.0,85.0,0.0
83.0,94.0,48.0,-43.0,-113.0,12.0,5.0,37.0,66.0,78.0,0.0
68.0,72.0,37.0,-84.0,-156.0,-10.0,-2.0,45.0,51.0,70.0,0.0
51.0,52.0,26.0,-100.0,-180.0,-26.0,5.0,49.0,36.0,65.0,0.0
-1.0,14.0,20.0,-41.0,-75.0,-7.0,-3.0,20.0,-4.0,28.0,0.0
-65.0,-42.0,-6.0,55.0,123.0,4.0,-15.0,-31.0,-65.0,-42.0,0.0
-74.0,-57.0,-21.0,87.0,145.0,-26.0,-37.0,-60.0,-88.0,-79.0,0.0
-36.0,-43.0,-33.0,43.0,62.0,-68.0,-67.0,-75.0,-109.0,-96.0,0.0
117.0,43.0,-45.0,-66.0,-65.0,-81.0,-51.0,-78.0,-110.0,-78.0,0.0
334.0,173.0,-35.0,-131.0,-152.0,-68.0,-18.0,-54.0,-85.0,-23.0,0.0
466.0,250.0,1.0,-157.0,-212.0,-47.0,-14.0,-18.0,-62.0,45.0,0.0
457.0,292.0,58.0,-150.0,-246.0,-33.0,-6.0,-16.0,-39.0,105.0,0.0
352.0,314.0,113.0,-112.0,-255.0,-26.0,17.0,2.0,10.0,144.0,0.0
183.0,239.0,103.0,-127.0,-261.0,0.0,49.0,73.0,104.0,175.0,0.0
43.0,136.0,85.0,-56.0,-143.0,58.0,78.0,118.0,138.0,137.0,0.0
52.0,98.0,84.0,121.0,63.0,73.0,38.0,82.0,84.0,89.0,0.0
11.0,89.0,128.0,246.0,215.0,45.0,-9.0,9.0,8.0,13.0,0.0
-124.0,23.0,113.0,193.0,296.0,14.0,-35.0,-20.0,-9.0,-37.0,0.0
-192.0,-95.0,10.0,29.0,118.0,-15.0,-3.0,34.0,59.0,61.0,0.0
-259.0,-174.0,-34.0,35.0,89.0,-1.0,25.0,68.0,77.0,71.0,0.0
-394.0,-268.0,-77.0,151.0,270.0,0.0,-12.0,8.0,15.0,-57.0,0.0
-396.0,-294.0,-103.0,101.0,207.0,-28.0,-28.0,-26.0,-25.0,-132.0,0.0
-340.0,-250.0,-89.0,12.0,59.0,-48.0,-11.0,-19.0,-34.0,-156.0,0.0
-310.0,-247.0,-85.0,-11.0,16.0,-24.0,16.0,-6.0,-20.0,-127.0,0.0
-218.0,-156.0,-53.0,-23.0,-41.0,-35.0,15.0,6.0,-35.0,-100.0,0.0
-61.0,0.0,-19.0,-44.0,-113.0,-72.0,0.0,6.0,-44.0,-73.0,0.0
42.0,61.0,-36.0,-40.0,-72.0,-62.0,-13.0,8.0,-35.0,-27.0,0.0
50.0,61.0,-32.0,17.0,99.0,-12.0,-15.0,-7.0,-28.0,2.0,0.0
2.0,9.0,-25.0,66.0,213.0,20.0,0.0,20.0,4.0,39.0,0.0
-42.0,-40.0,-18.0,69.0,159.0,38.0,23.0,62.0,35.0,46.0,0.0
-56.0,-19.0,24.0,75.0,113.0,47.0,28.0,61.0,15.0,-11.0,0.0
-33.0,-2.0,51.0,78.0,104.0,57.0,33.0,56.0,3.0,-37.0,0.0
40.0,12.0,6.0,41.0,70.0,58.0,27.0,55.0,27.0,30.0,0.0
-3.0,-23.0,-19.0,24.0,50.0,45.0,25.0,60.0,53.0,93.0,0.0
-137.0,-49.0,38.0,55.0,55.0,33.0,2.0,26.0,12.0,13.0,0.0
-185.0,-76.0,50.0,46.0,39.0,14.0,-3.0,5.0,-17.0,-30.0,0.0
-178.0,-116.0,-11.0,-2.0,10.0,2.0,13.0,26.0,10.0,-26.0,0.0
-170.0,-141.0,-63.0,-32.0,-13.0,-8.0,28.0,20.0,9.0,-32.0,0.0
-113.0,-105.0,-72.0,-64.0,-47.0,-30.0,23.0,-2.0,-6.0,-52.0,0.0
-58.0,-76.0,-92.0,-93.0,-75.0,-34.0,17.0,-7.0,-5.0,-37.0,0.0
-39.0,-85.0,-112.0,-95.0,-75.0,-22.0,21.0,3.0,8.0,-6.0,0.0
-85.0,-106.0,-97.0,-84.0,-70.0,-9.0,34.0,19.0,22.0,-5.0,0.0
-89.0,-85.0,-59.0,-73.0,-66.0,-9.0,41.0,35.0,30.0,-11.0,0.0
-28.0,-53.0,-47.0,-63.0,-51.0,13.0,48.0,44.0,42.0,42.0,0.0
-6.0,-32.0,-43.0,-22.0,-11.0,20.0,39.0,34.0,34.0,50.0,0.0
17.0,-10.0,-10.0,15.0,4.0,23.0,13.0,20.0,16.0,30.0,0.0
58.0,28.0,38.0,25.0,5.0,44.0,1.0,27.0,17.0,31.0,0.0
83.0,53.0,58.0,20.0,12.0,67.0,8.0,37.0,18.0,45.0,0.0
82.0,61.0,62.0,28.0,26.0,59.0,9.0,28.0,13.0,52.0,0.0
46.0,53.0,66.0,49.0,39.0,54.0,0.0,4.0,-1.0,33.0,0.0
36.0,56.0,82.0,54.0,47.0,41.0,-13.0,-11.0,-19.0,21.0,0.0
92.0,98.0,89.0,43.0,27.0,16.0,-23.0,-28.0,-29.0,17.0,0.0
138.0,175.0,67.0,35.0,9.0,-5.0,-23.0,-37.0,-42.0,20.0,0.0
167.0,248.0,47.0,21.0,3.0,-16.0,-15.0,-49.0,-54.0,16.0,0.0
225.0,322.0,38.0,-5.0,-22.0,-32.0,-25.0,-68.0,-84.0,0.0,0.0
253.0,340.0,18.0,-54.0,-71.0,-64.0,-55.0,-81.0,-104.0,-18.0,0.0
199.0,247.0,1.0,-97.0,-98.0,-80.0,-40.0,-70.0,-66.0,12.0,0.0
180.0,165.0,-4.0,-100.0,-126.0,-86.0,-16.0,-54.0,-22.0,60.0,0.0
108.0,103.0,14.0,-69.0,-125.0,-60.0,-7.0,-61.0,-30.0,2.0,0.0
-43.0,35.0,41.0,-29.0,-93.0,-28.0,5.0,-36.0,-33.0,-61.0,0.0
-203.0,-138.0,4.0,-22.0,-99.0,0.0,37.0,1.0,-6.0,-33.0,0.0
-223.0,-264.0,-44.0,-42.0,-94.0,-12.0,38.0,14.0,33.0,42.0,0.0
-60.0,-221.0,-81.0,-3.0,-3.0,-34.0,-9.0,12.0,51.0,83.0,0.0
-18.0,-198.0,-66.0,75.0,96.0,15.0,0.0,32.0,57.0,17.0,0.0
63.0,-101.0,-22.0,89.0,96.0,58.0,16.0,15.0,18.0,-36.0,0.0
238.0,90.0,37.0,90.0,76.0,24.0,-42.0,-55.0,-59.0,-27.0,0.0
309.0,184.0,59.0,66.0,36.0,-21.0,-67.0,-85.0,-69.0,-11.0,0.0
261.0,134.0,-3.0,37.0,29.0,-15.0,-39.0,-66.0,-40.0,-20.0,0.0
182.0,8.0,-87.0,-11.0,30.0,15.0,13.0,-6.0,8.0,-1.0,0.0
26.0,-82.0,-106.0,-17.0,23.0,30.0,34.0,13.0,21.0,-33.0,0.0
-156.0,-183.0,-102.0,-15.0,7.0,9.0,36.0,18.0,23.0,-25.0,0.0
-270.0,-244.0,-67.0,-14.0,5.0,-8.0,42.0,15.0,53.0,7.0,0.0
-387.0,-217.0,4.0,-1.0,-2.0,-22.0,13.0,-16.0,14.0,-54.0,0.0
-399.0,-219.0,0.0,-12.0,-12.0,-24.0,1.0,-29.0,-15.0,-95.0,0.0
-320.0,-200.0,-35.0,-32.0,-20.0,-18.0,0.0,-25.0,-22.0,-85.0,0.0
-252.0,-152.0,-27.0,-35.0,-27.0,-13.0,-3.0,-17.0,-18.0,-67.0,0.0
-150.0,-95.0,-11.0,-32.0,-30.0,-8.0,-3.0,-12.0,-4.0,-30.0,0.0
-75.0,-48.0,13.0,-27.0,-13.0,-1.0,6.0,4.0,11.0,4.0,0.0
-28.0,-8.0,34.0,-21.0,-12.0,6.0,23.0,25.0,39.0,39.0,0.0
10.0,20.0,41.0,-2.0,-2.0,25.0,28.0,42.0,46.0,51.0,0.0
26.0,34.0,48.0,55.0,76.0,56.0,16.0,36.0,53.0,47.0,0.0
45.0,50.0,50.0,73.0,94.0,69.0,23.0,39.0,54.0,56.0,0.0
51.0,59.0,52.0,49.0,53.0,61.0,27.0,34.0,39.0,53.0,0.0
56.0,68.0,44.0,28.0,10.0,52.0,21.0,26.0,31.0,39.0,0.0
67.0,67.0,27.0,-5.0,-44.0,14.0,17.0,19.0,21.0,45.0,0.0
53.0,55.0,12.0,-38.0,-73.0,-11.0,14.0,9.0,9.0,30.0,0.0
30.0,28.0,-6.0,-54.0,-65.0,-22.0,0.0,0.0,-3.0,13.0,0.0
-6.0,-4.0,-25.0,-11.0,-13.0,-53.0,-28.0,-43.0,-26.0,-16.0,0.0
-34.0,-39.0,-48.0,24.0,33.0,-75.0,-38.0,-74.0,-62.0,-59.0,0.0
-48.0,-51.0,-51.0,21.0,18.0,-82.0,-37.0,-75.0,-67.0,-63.0,0.0
-52.0,-61.0,-45.0,38.0,23.0,-79.0,-38.0,-83.0,-68.0,-61.0,0.0
-45.0,-44.0,-47.0,46.0,27.0,-73.0,-38.0,-81.0,-54.0,-49.0,0.0
-18.0,-25.0,-59.0,9.0,3.0,-56.0,-14.0,-49.0,-32.0,-21.0,0.0
13.0,-14.0,-56.0,-2.0,-3.0,-28.0,9.0,-25.0,-12.0,-1.0,0.0
28.0,0.0,-35.0,8.0,7.0,1.0,25.0,-5.0,5.0,29.0,0.0
51.0,22.0,-13.0,25.0,25.0,25.0,31.0,7.0,18.0,36.0,0.0
77.0,43.0,-6.0,36.0,40.0,50.0,39.0,15.0,32.0,53.0,0.0
91.0,42.0,5.0,21.0,44.0,54.0,42.0,24.0,46.0,67.0,0.0
84.0,39.0,10.0,8.0,46.0,50.0,23.0,24.0,43.0,72.0,0.0
72.0,31.0,-8.0,-4.0,45.0,50.0,14.0,20.0,32.0,77.0,0.0
54.0,20.0,-10.0,-5.0,36.0,45.0,12.0,23.0,26.0,67.0,0.0
42.0,12.0,-12.0,-6.0,27.0,31.0,5.0,14.0,15.0,39.0,0.0
39.0,10.0,-3.0,-21.0,0.0,4.0,-13.0,3.0,-6.0,25.0,0.0
45.0,38.0,-9.0,-32.0,-41.0,-16.0,-22.0,-9.0,-17.0,18.0,0.0
66.0,62.0,-21.0,-36.0,-68.0,-34.0,-27.0,-27.0,-37.0,4.0,0.0
144.0,78.0,-17.0,-44.0,-89.0,-50.0,-26.0,-45.0,-68.0,0.0,0.0
190.0,91.0,21.0,-33.0,-118.0,-55.0,-29.0,-57.0,-106.0,-28.0,0.0
181.0,106.0,51.0,-22.0,-135.0,-60.0,-38.0,-72.0,-142.0,-71.0,0.0
322.0,166.0,34.0,-44.0,-157.0,-63.0,-31.0,-69.0,-114.0,-55.0,0.0
480.0,203.0,-7.0,-60.0,-154.0,-12.0,25.0,0.0,-36.0,17.0,0.0
386.0,208.0,30.0,17.0,-84.0,22.0,19.0,6.0,-54.0,-10.0,0.0
120.0,142.0,72.0,81.0,9.0,7.0,-23.0,-18.0,-43.0,0.0,0.0
-100.0,5.0,35.0,62.0,62.0,0.0,-27.0,27.0,71.0,113.0,0.0
-229.0,-30.0,70.0,105.0,129.0,22.0,-45.0,21.0,65.0,68.0,0.0
-142.0,3.0,52.0,119.0,163.0,2.0,-79.0,-25.0,0.0,1.0,0.0
-35.0,25.0,35.0,82.0,73.0,-11.0,-74.0,-28.0,-11.0,12.0,0.0
-38.0,2.0,24.0,73.0,58.0,33.0,-24.0,17.0,20.0,62.0,0.0
-157.0,-77.0,16.0,75.0,55.0,50.0,12.0,50.0,47.0,64.0,0.0
-291.0,-151.0,21.0,80.0,40.0,45.0,17.0,37.0,25.0,-27.0,0.0
-245.0,-161.0,-3.0,45.0,5.0,17.0,10.0,10.0,1.0,-52.0,0.0
-132.0,-129.0,-52.0,-10.0,-51.0,-25.0,-20.0,-1.0,9.0,-14.0,0.0
-98.0,-106.0,-82.0,-53.0,-84.0,-38.0,-38.0,-10.0,0.0,-7.0,0.0
-135.0,-114.0,-84.0,-82.0,-84.0,-39.0,-24.0,-23.0,-13.0,-30.0,0.0
-161.0,-96.0,-66.0,-82.0,-88.0,-36.0,2.0,-23.0,-7.0,-73.0,0.0
-152.0,-90.0,-38.0,-64.0,-85.0,-27.0,23.0,-11.0,-8.0,-89.0,0.0
-109.0,-106.0,-29.0,-58.0,-85.0,-9.0,9.0,2.0,10.0,-60.0,0.0
-66.0,-88.0,-27.0,-51.0,-71.0,10.0,2.0,9.0,18.0,-46.0,0.0
-53.0,-83.0,-18.0,-33.0,-54.0,42.0,24.0,32.0,46.0,-20.0,0.0
-50.0,-69.0,-5.0,-20.0,-47.0,59.0,7.0,45.0,61.0,18.0,0.0
-35.0,-48.0,16.0,41.0,10.0,76.0,0.0,33.0,48.0,33.0,0.0
-20.0,-21.0,36.0,111.0,142.0,96.0,0.0,17.0,30.0,2.0,0.0
2.0,0.0,33.0,98.0,139.0,91.0,15.0,30.0,43.0,6.0,0.0
29.0,17.0,32.0,54.0,45.0,74.0,22.0,51.0,51.0,27.0,0.0
41.0,32.0,25.0,20.0,-21.0,62.0,16.0,61.0,53.0,33.0,0.0
33.0,42.0,22.0,27.0,-24.0,51.0,19.0,45.0,39.0,23.0,0.0
5.0,30.0,20.0,21.0,-19.0,30.0,20.0,19.0,16.0,8.0,0.0
-4.0,15.0,19.0,6.0,-34.0,6.0,4.0,12.0,-6.0,-8.0,0.0
-23.0,-16.0,18.0,7.0,-36.0,-29.0,-34.0,-28.0,-27.0,-40.0,0.0
-57.0,-59.0,-17.0,6.0,-58.0,-62.0,-53.0,-49.0,-45.0,-72.0,0.0
-62.0,-59.0,-47.0,-36.0,-126.0,-86.0,-32.0,-36.0,-53.0,-61.0,0.0
-52.0,-40.0,-44.0,-44.0,-109.0,-78.0,-25.0,-31.0,-56.0,-56.0,0.0
-37.0,-39.0,-28.0,-9.0,1.0,-42.0,-33.0,-41.0,-61.0,-73.0,0.0
-26.0,-21.0,-3.0,9.0,86.0,-18.0,-27.0,-52.0,-53.0,-64.0,0.0
12.0,22.0,9.0,0.0,49.0,-1.0,-4.0,-30.0,-20.0,-23.0,0.0
52.0,53.0,15.0,-4.0,14.0,19.0,13.0,6.0,7.0,6.0,0.0
78.0,88.0,36.0,-25.0,-4.0,29.0,21.0,26.0,33.0,22.0,0.0
137.0,127.0,35.0,-51.0,-30.0,32.0,10.0,31.0,50.0,56.0,0.0
201.0,164.0,29.0,-72.0,-27.0,35.0,-13.0,20.0,39.0,67.0,0.0
252.0,199.0,19.0,-76.0,-7.0,16.0,-37.0,-8.0,15.0,62.0,0.0
309.0,264.0,35.0,0.0,63.0,-11.0,-85.0,-55.0,-22.0,46.0,0.0
338.0,296.0,68.0,42.0,95.0,-25.0,-90.0,-71.0,-49.0,26.0,0.0
286.0,192.0,22.0,-21.0,33.0,-29.0,-50.0,-45.0,-20.0,31.0,0.0
205.0,70.0,-39.0,-90.0,-19.0,-11.0,-24.0,-7.0,34.0,89.0,0.0
52.0,16.0,-14.0,-55.0,9.0,-5.0,-14.0,-20.0,18.0,49.0,0.0
-178.0,-55.0,43.0,55.0,105.0,0.0,-32.0,-58.0,-58.0,-106.0,0.0
-266.0,-143.0,10.0,70.0,99.0,5.0,-22.0,-50.0,-40.0,-122.0,0.0
-246.0,-172.0,-35.0,9.0,43.0,0.0,18.0,-1.0,16.0,-58.0,0.0
-214.0,-150.0,-55.0,-21.0,18.0,0.0,40.0,21.0,35.0,-33.0,0.0
-182.0,-110.0,-45.0,-35.0,3.0,-1.0,43.0,19.0,28.0,-22.0,0.0
-124.0,-81.0,-38.0,-49.0,-21.0,-17.0,35.0,28.0,34.0,-12.0,0.0
-74.0,-60.0,-26.0,-50.0,-17.0,-9.0,17.0,28.0,23.0,-4.0,0.0
-48.0,-43.0,-5.0,1.0,5.0,10.0,0.0,22.0,2.0,-26.0,0.0
7.0,-2.0,-6.0,11.0,10.0,27.0,2.0,43.0,4.0,-13.0,0.0
47.0,33.0,16.0,0.0,-2.0,40.0,16.0,57.0,30.0,7.0,0.0
51.0,51.0,24.0,9.0,-8.0,50.0,30.0,56.0,45.0,31.0,0.0
66.0,54.0,23.0,13.0,-37.0,44.0,50.0,67.0,74.0,59.0,0.0
85.0,39.0,33.0,36.0,-14.0,42.0,48.0,57.0,66.0,59.0,0.0
63.0,22.0,29.0,91.0,76.0,45.0,10.0,9.0,11.0,-3.0,0.0
-19.0,-39.0,-2.0,111.0,182.0,21.0,-40.0,-32.0,-35.0,-61.0,0.0
-65.0,-71.0,-24.0,30.0,96.0,-15.0,-43.0,-23.0,-34.0,-57.0,0.0
-108.0,-121.0,-44.0,-41.0,1.0,-31.0,5.0,-8.0,-9.0,-50.0,0.0
-133.0,-169.0,-62.0,-31.0,14.0,-33.0,19.0,-21.0,-8.0,-62.0,0.0
-138.0,-169.0,-73.0,-27.0,50.0,-51.0,-8.0,-53.0,-38.0,-87.0,0.0
-106.0,-135.0,-67.0,-58.0,9.0,-61.0,-21.0,-60.0,-56.0,-90.0,0.0
-59.0,-94.0,-53.0,-67.0,-17.0,-61.0,-17.0,-41.0,-46.0,-69.0,0.0
-28.0,-70.0,-30.0,-41.0,-10.0,-50.0,3.0,-26.0,-38.0,-49.0,0.0
-3.0,-28.0,-16.0,-4.0,-9.0,-34.0,16.0,-21.0,-26.0,-29.0,0.0
24.0,0.0,-7.0,8.0,-8.0,-5.0,17.0,-7.0,-5.0,4.0,0.0
52.0,20.0,0.0,10.0,6.0,16.0,6.0,23.0,0.0,36.0,0.0
71.0,43.0,21.0,21.0,28.0,28.0,1.0,39.0,1.0,51.0,0.0
86.0,58.0,26.0,40.0,42.0,50.0,5.0,44.0,10.0,52.0,0.0
90.0,77.0,26.0,54.0,45.0,52.0,13.0,52.0,30.0,52.0,0.0
84.0,75.0,33.0,54.0,42.0,42.0,15.0,47.0,33.0,51.0,0.0
85.0,59.0,29.0,50.0,30.0,41.0,10.0,41.0,33.0,45.0,0.0
78.0,47.0,22.0,33.0,13.0,30.0,4.0,29.0,18.0,25.0,0.0
52.0,38.0,3.0,3.0,-6.0,11.0,-11.0,7.0,-2.0,6.0,0.0
20.0,28.0,-6.0,-23.0,-13.0,-7.0,-11.0,-4.0,-27.0,-5.0,0.0
-11.0,5.0,-21.0,-40.0,-27.0,-34.0,-6.0,-16.0,-33.0,-18.0,0.0
-25.0,-20.0,-38.0,-53.0,-50.0,-43.0,-15.0,-26.0,-26.0,-16.0,0.0
-36.0,-29.0,-49.0,-61.0,-72.0,-65.0,-31.0,-33.0,-34.0,-31.0,0.0
-34.0,-28.0,-51.0,-53.0,-72.0,-62.0,-26.0,-36.0,-45.0,-48.0,0.0
-23.0,-31.0,-43.0,-55.0,-57.0,-48.0,-11.0,-25.0,-38.0,-38.0,0.0
-4.0,-18.0,-36.0,-53.0,-43.0,-16.0,-9.0,-13.0,-16.0,-22.0,0.0
21.0,10.0,-17.0,-32.0,-25.0,3.0,-12.0,-9.0,6.0,10.0,0.0
79.0,70.0,9.0,-13.0,-11.0,12.0,-17.0,0.0,10.0,32.0,0.0
189.0,147.0,13.0,-7.0,2.0,17.0,-16.0,2.0,9.0,35.0,0.0
308.0,216.0,14.0,-9.0,9.0,29.0,-11.0,-10.0,-6.0,33.0,0.0
369.0,261.0,0.0,-14.0,1.0,45.0,-10.0,-14.0,-17.0,28.0,0.0
397.0,249.0,-24.0,-41.0,-44.0,35.0,6.0,21.0,34.0,114.0,0.0
363.0,188.0,-37.0,-76.0,-91.0,23.0,29.0,69.0,118.0,233.0,0.0
292.0,154.0,-15.0,-50.0,-78.0,26.0,26.0,74.0,130.0,211.0,0.0
170.0,80.0,-11.0,-35.0,-47.0,23.0,23.0,72.0,122.0,171.0,0.0
21.0,-39.0,-24.0,-22.0,-5.0,26.0,17.0,49.0,72.0,86.0,0.0
-68.0,-85.0,-63.0,-14.0,17.0,3.0,-20.0,0.0,-1.0,4.0,0.0
-77.0,0.0,-62.0,5.0,27.0,-32.0,-40.0,-64.0,-63.0,-55.0,0.0
-112.0,126.0,32.0,34.0,8.0,-48.0,-37.0,-94.0,-94.0,-118.0,0.0
-122.0,311.0,189.0,71.0,-49.0,-76.0,-51.0,-122.0,-126.0,-159.0,0.0
-101.0,333.0,227.0,44.0,-106.0,-84.0,-48.0,-94.0,-77.0,-60.0,0.0
-159.0,121.0,115.0,11.0,-92.0,-48.0,2.0,14.0,74.0,89.0,0.0
-287.0,-32.0,61.0,77.0,56.0,4.0,22.0,39.0,79.0,-18.0,0.0
-244.0,-104.0,14.0,129.0,165.0,49.0,24.0,35.0,32.0,-101.0,0.0
-88.0,-77.0,-13.0,103.0,151.0,56.0,34.0,43.0,31.0,-101.0,0.0
-33.0,-53.0,-10.0,73.0,114.0,55.0,35.0,41.0,43.0,-89.0,0.0
-104.0,-173.0,-42.0,55.0,110.0,78.0,49.0,54.0,41.0,-60.0,0.0
-132.0,-262.0,-53.0,58.0,126.0,103.0,50.0,66.0,53.0,-16.0,0.0
-112.0,-312.0,-71.0,31.0,91.0,80.0,34.0,57.0,67.0,19.0,0.0
-197.0,-331.0,-34.0,28.0,64.0,49.0,13.0,23.0,34.0,-44.0,0.0
-186.0,-264.0,-4.0,44.0,49.0,39.0,11.0,5.0,18.0,-52.0,0.0
-159.0,-212.0,-29.0,14.0,18.0,26.0,3.0,11.0,38.0,0.0,0.0
-185.0,-185.0,-32.0,-14.0,3.0,6.0,6.0,9.0,28.0,-13.0,0.0
-189.0,-121.0,-10.0,-19.0,-9.0,-9.0,6.0,-23.0,-24.0,-67.0,0.0
-179.0,-95.0,-4.0,-21.0,-25.0,-28.0,2.0,-46.0,-53.0,-98.0,0.0
-143.0,-94.0,-9.0,-31.0,-33.0,-46.0,-1.0,-55.0,-66.0,-106.0,0.0
-101.0,-79.0,-23.0,-41.0,-41.0,-64.0,-3.0,-52.0,-66.0,-97.0,0.0
-71.0,-71.0,-29.0,-46.0,-45.0,-73.0,-11.0,-41.0,-34.0,-71.0,0.0
-46.0,-61.0,-27.0,-46.0,-50.0,-56.0,3.0,-19.0,-2.0,-27.0,0.0
-24.0,-37.0,-15.0,-26.0,-32.0,-29.0,24.0,-4.0,16.0,-7.0,0.0
4.0,4.0,6.0,-17.0,-12.0,-17.0,25.0,3.0,23.0,6.0,0.0
41.0,39.0,28.0,-12.0,-2.0,-4.0,26.0,7.0,21.0,13.0,0.0
69.0,56.0,35.0,2.0,15.0,19.0,22.0,22.0,19.0,25.0,0.0
100.0,73.0,26.0,5.0,34.0,35.0,21.0,35.0,26.0,55.0,0.0
107.0,93.0,41.0,12.0,38.0,48.0,10.0,33.0,26.0,64.0,0.0
99.0,114.0,68.0,22.0,28.0,36.0,2.0,8.0,24.0,52.0,0.0
97.0,113.0,64.0,17.0,25.0,22.0,-16.0,0.0,18.0,50.0,0.0
84.0,88.0,43.0,6.0,19.0,12.0,-23.0,-4.0,7.0,50.0,0.0
41.0,50.0,18.0,-8.0,2.0,-1.0,-6.0,-16.0,3.0,24.0,0.0
14.0,27.0,6.0,-19.0,-14.0,-12.0,-10.0,-19.0,-2.0,4.0,0.0
1.0,4.0,-2.0,-39.0,-23.0,-37.0,-28.0,-25.0,-19.0,-11.0,0.0
-15.0,-13.0,-14.0,-53.0,-35.0,-59.0,-31.0,-39.0,-30.0,-23.0,0.0
-28.0,-20.0,-15.0,-62.0,-50.0,-69.0,-11.0,-47.0,-20.0,-36.0,0.0
-20.0,-18.0,-31.0,-65.0,-45.0,-63.0,5.0,-36.0,-15.0,-28.0,0.0
-2.0,-18.0,-46.0,-73.0,-39.0,-57.0,10.0,-16.0,-9.0,-19.0,0.0
7.0,-3.0,-46.0,-58.0,-27.0,-42.0,6.0,9.0,-2.0,-8.0,0.0
20.0,13.0,-23.0,-39.0,-7.0,-14.0,4.0,17.0,12.0,8.0,0.0
47.0,26.0,-8.0,-29.0,11.0,7.0,6.0,24.0,23.0,32.0,0.0
80.0,35.0,1.0,-12.0,35.0,34.0,16.0,34.0,39.0,46.0,0.0
112.0,41.0,21.0,-8.0,32.0,48.0,31.0,46.0,49.0,45.0,0.0
135.0,55.0,27.0,-14.0,-1.0,57.0,37.0,55.0,68.0,58.0,0.0
170.0,79.0,15.0,-31.0,-35.0,61.0,43.0,69.0,70.0,71.0,0.0
268.0,125.0,1.0,-55.0,-81.0,59.0,33.0,61.0,55.0,89.0,0.0
467.0,224.0,-17.0,-97.0,-132.0,23.0,2.0,17.0,5.0,97.0,0.0
678.0,331.0,-17.0,-113.0,-172.0,-16.0,-21.0,-30.0,-58.0,70.0,0.0
789.0,342.0,-51.0,-76.0,-125.0,-42.0,-48.0,-57.0,-84.0,83.0,0.0
698.0,254.0,-77.0,-24.0,-49.0,-65.0,-62.0,-82.0,-68.0,108.0,0.0
338.0,142.0,-53.0,-25.0,-46.0,-91.0,-49.0,-64.0,-12.0,119.0,0.0
-3.0,59.0,-11.0,0.0,-58.0,-76.0,-45.0,-61.0,-14.0,27.0,0.0
-35.0,138.0,68.0,75.0,-5.0,-64.0,-71.0,-125.0,-137.0,-138.0,0.0
143.0,230.0,84.0,92.0,59.0,-55.0,-91.0,-167.0,-208.0,-174.0,0.0
312.0,280.0,77.0,29.0,-19.0,-72.0,-112.0,-169.0,-214.0,-136.0,0.0
266.0,110.0,4.0,-3.0,-15.0,-55.0,-65.0,-64.0,-77.0,1.0,0.0
-74.0,-234.0,-118.0,56.0,120.0,26.0,41.0,86.0,133.0,161.0,0.0
-508.0,-391.0,-49.0,148.0,196.0,80.0,75.0,128.0,163.0,82.0,0.0
-789.0,-318.0,106.0,182.0,160.0,107.0,77.0,105.0,107.0,-75.0,0.0
-831.0,-179.0,239.0,206.0,139.0,108.0,47.0,59.0,16.0,-205.0,0.0
-691.0,-136.0,227.0,190.0,119.0,103.0,53.0,70.0,15.0,-182.0,0.0
-455.0,-113.0,131.0,132.0,61.0,102.0,68.0,95.0,62.0,-76.0,0.0
-312.0,-125.0,83.0,132.0,56.0,79.0,42.0,85.0,42.0,-39.0,0.0
-286.0,-165.0,54.0,177.0,141.0,86.0,24.0,36.0,-1.0,-60.0,0.0
-246.0,-143.0,32.0,144.0,141.0,67.0,21.0,10.0,-10.0,-40.0,0.0
-219.0,-104.0,13.0,87.0,63.0,30.0,15.0,-9.0,-17.0,-38.0,0.0
-204.0,-85.0,3.0,41.0,5.0,6.0,3.0,-21.0,-36.0,-60.0,0.0
-186.0,-62.0,17.0,20.0,-38.0,-15.0,12.0,-20.0,-22.0,-64.0,0.0
-192.0,-66.0,-6.0,3.0,-70.0,-32.0,20.0,-28.0,-29.0,-50.0,0.0
-190.0,-94.0,-34.0,-18.0,-90.0,-20.0,27.0,-10.0,-2.0,-29.0,0.0
-165.0,-109.0,-40.0,-19.0,-88.0,-15.0,24.0,4.0,1.0,-19.0,0.0
-122.0,-110.0,-35.0,-12.0,-66.0,-18.0,23.0,5.0,4.0,-7.0,0.0
-43.0,-67.0,-19.0,-9.0,-43.0,-2.0,22.0,16.0,8.0,15.0,0.0
26.0,-34.0,-17.0,5.0,7.0,8.0,-7.0,2.0,1.0,15.0,0.0
52.0,-29.0,-27.0,14.0,32.0,0.0,-25.0,-8.0,-16.0,2.0,0.0
76.0,-14.0,-8.0,32.0,103.0,22.0,-6.0,0.0,3.0,9.0,0.0
85.0,-12.0,-2.0,36.0,130.0,43.0,9.0,0.0,11.0,9.0,0.0
75.0,-1.0,-4.0,28.0,68.0,48.0,21.0,20.0,16.0,17.0,0.0
60.0,11.0,3.0,26.0,36.0,42.0,26.0,21.0,18.0,29.0,0.0
82.0,27.0,2.0,12.0,28.0,26.0,22.0,10.0,16.0,21.0,0.0
107.0,20.0,-2.0,-2.0,15.0,21.0,14.0,-7.0,0.0,19.0,0.0
110.0,0.0,-23.0,-11.0,-9.0,1.0,5.0,-22.0,-23.0,6.0,0.0
95.0,-4.0,-28.0,-21.0,-39.0,-29.0,-9.0,-29.0,-39.0,-10.0,0.0
53.0,-24.0,-45.0,-47.0,-53.0,-37.0,-17.0,-39.0,-44.0,-36.0,0.0
6.0,-48.0,-51.0,-59.0,-65.0,-53.0,-21.0,-55.0,-54.0,-43.0,0.0
-5.0,-40.0,-48.0,-63.0,-67.0,-61.0,-13.0,-65.0,-50.0,-45.0,0.0
6.0,-21.0,-34.0,-58.0,-67.0,-66.0,-5.0,-55.0,-51.0,-34.0,0.0
21.0,-18.0,-32.0,-63.0,-59.0,-65.0,0.0,-41.0,-49.0,-21.0,0.0
35.0,-23.0,-6.0,-43.0,-31.0,-48.0,10.0,-30.0,-36.0,-20.0,0.0
54.0,-1.0,9.0,-6.0,-6.0,-21.0,4.0,-18.0,-24.0,-3.0,0.0
71.0,18.0,30.0,8.0,11.0,10.0,-5.0,-10.0,6.0,16.0,0.0
101.0,33.0,51.0,21.0,16.0,19.0,-7.0,4.0,30.0,34.0,0.0
119.0,65.0,66.0,21.0,25.0,32.0,1.0,16.0,38.0,52.0,0.0
136.0,69.0,67.0,12.0,31.0,50.0,13.0,28.0,30.0,60.0,0.0
136.0,58.0,73.0,5.0,29.0,50.0,16.0,18.0,27.0,59.0,0.0
118.0,58.0,54.0,-1.0,8.0,38.0,9.0,4.0,21.0,56.0,0.0
103.0,44.0,46.0,-5.0,-7.0,34.0,12.0,4.0,16.0,46.0,0.0
76.0,21.0,29.0,-13.0,-22.0,20.0,8.0,2.0,9.0,27.0,0.0
61.0,-2.0,5.0,-40.0,-34.0,-3.0,10.0,-7.0,-1.0,10.0,0.0
46.0,-21.0,-9.0,-58.0,-46.0,-25.0,-5.0,-13.0,-14.0,3.0,0.0
14.0,-27.0,-14.0,-71.0,-56.0,-44.0,-21.0,-25.0,-25.0,-9.0,0.0
-12.0,-44.0,-33.0,-85.0,-69.0,-49.0,-32.0,-41.0,-37.0,-18.0,0.0
-18.0,-56.0,-55.0,-102.0,-67.0,-48.0,-20.0,-32.0,-38.0,-18.0,0.0
-12.0,-60.0,-73.0,-118.0,-60.0,-36.0,-1.0,-33.0,-29.0,-13.0,0.0
-5.0,-65.0,-86.0,-111.0,-54.0,-22.0,15.0,-14.0,-12.0,0.0,0.0
20.0,-60.0,-93.0,-95.0,-44.0,-5.0,34.0,3.0,9.0,22.0,0.0
46.0,-46.0,-82.0,-74.0,-31.0,0.0,38.0,19.0,29.0,42.0,0.0
51.0,-23.0,-68.0,-50.0,-16.0,16.0,37.0,35.0,41.0,54.0,0.0
53.0,1.0,-45.0,-10.0,21.0,42.0,43.0,37.0,44.0,65.0,0.0
61.0,25.0,-13.0,34.0,68.0,69.0,30.0,30.0,42.0,63.0,0.0
101.0,72.0,16.0,58.0,74.0,68.0,13.0,11.0,32.0,65.0,0.0
141.0,104.0,26.0,55.0,55.0,55.0,6.0,12.0,18.0,67.0,0.0
123.0,95.0,13.0,43.0,35.0,50.0,0.0,7.0,18.0,62.0,0.0
85.0,66.0,14.0,49.0,27.0,33.0,0.0,1.0,17.0,55.0,0.0
53.0,34.0,11.0,47.0,26.0,16.0,0.0,-27.0,0.0,39.0,0.0
-6.0,13.0,29.0,33.0,10.0,-15.0,-11.0,-48.0,-32.0,1.0,0.0
-37.0,8.0,22.0,10.0,-25.0,-39.0,-11.0,-51.0,-48.0,-24.0,0.0
-32.0,-8.0,5.0,-16.0,-60.0,-51.0,-15.0,-57.0,-63.0,-27.0,0.0
4.0,10.0,-11.0,-30.0,-74.0,-71.0,-36.0,-62.0,-79.0,-63.0,0.0
68.0,50.0,-14.0,-29.0,-69.0,-85.0,-49.0,-70.0,-94.0,-91.0,0.0
113.0,85.0,0.0,-24.0,-48.0,-72.0,-37.0,-75.0,-93.0,-86.0,0.0
96.0,73.0,-5.0,-25.0,-30.0,-54.0,-24.0,-49.0,-77.0,-59.0,0.0
39.0,30.0,5.0,-10.0,-13.0,-19.0,-35.0,-16.0,-47.0,-45.0,0.0
22.0,68.0,55.0,21.0,0.0,0.0,-40.0,-6.0,-38.0,-40.0,0.0
36.0,107.0,69.0,26.0,10.0,11.0,-26.0,10.0,-1.0,6.0,0.0
8.0,95.0,71.0,26.0,15.0,21.0,-13.0,39.0,59.0,82.0,0.0
-7.0,94.0,100.0,61.0,29.0,24.0,-17.0,43.0,62.0,70.0,0.0
-9.0,85.0,87.0,103.0,40.0,28.0,-18.0,33.0,39.0,27.0,0.0
-14.0,66.0,74.0,77.0,13.0,32.0,-10.0,19.0,37.0,28.0,0.0
-17.0,66.0,83.0,47.0,-27.0,22.0,-7.0,13.0,36.0,40.0,0.0
16.0,60.0,49.0,-4.0,-67.0,9.0,0.0,20.0,41.0,70.0,0.0
28.0,24.0,12.0,-31.0,-39.0,11.0,-9.0,11.0,31.0,71.0,0.0
7.0,-18.0,-16.0,-12.0,25.0,7.0,-14.0,0.0,25.0,52.0,0.0
-5.0,-44.0,-36.0,-14.0,31.0,-31.0,-13.0,-9.0,31.0,35.0,0.0
-83.0,-102.0,-45.0,-37.0,47.0,-60.0,-13.0,-25.0,13.0,-10.0,0.0
-180.0,-149.0,-37.0,-30.0,53.0,-55.0,-15.0,-24.0,-8.0,-53.0,0.0
-158.0,-120.0,-25.0,-25.0,17.0,-37.0,0.0,-18.0,-23.0,-63.0,0.0
-103.0,-86.0,-12.0,-53.0,-24.0,-31.0,23.0,-1.0,-16.0,-34.0,0.0
-82.0,-69.0,-12.0,-48.0,-25.0,-30.0,18.0,4.0,-18.0,-30.0,0.0
-94.0,-47.0,-20.0,8.0,54.0,-10.0,9.0,3.0,-13.0,-30.0,0.0
-75.0,-40.0,-34.0,22.0,98.0,0.0,0.0,-4.0,-16.0,-30.0,0.0
-7.0,-18.0,-36.0,4.0,61.0,5.0,1.0,11.0,-3.0,11.0,0.0
84.0,5.0,-21.0,29.0,41.0,24.0,10.0,30.0,17.0,50.0,0.0
221.0,69.0,3.0,44.0,22.0,28.0,0.0,33.0,19.0,71.0,0.0
301.0,111.0,18.0,29.0,10.0,14.0,-10.0,27.0,16.0,90.0,0.0
297.0,105.0,-8.0,2.0,-10.0,17.0,-6.0,28.0,41.0,104.0,0.0
197.0,35.0,-78.0,-39.0,-32.0,15.0,2.0,28.0,72.0,138.0,0.0
37.0,-56.0,-121.0,-27.0,24.0,9.0,11.0,26.0,56.0,110.0,0.0
-25.0,-8.0,-60.0,17.0,88.0,4.0,-4.0,-2.0,-19.0,-5.0,0.0
-29.0,31.0,-5.0,12.0,45.0,-7.0,-28.0,-18.0,-53.0,-31.0,0.0
1.0,60.0,-26.0,-22.0,-14.0,-46.0,-44.0,-43.0,-51.0,17.0,0.0
80.0,117.0,-80.0,-72.0,-59.0,-81.0,-53.0,-61.0,-35.0,60.0,0.0
142.0,158.0,-114.0,-103.0,-63.0,-64.0,-41.0,-43.0,-36.0,37.0,0.0
205.0,155.0,-97.0,-79.0,-33.0,-30.0,-2.0,-30.0,-61.0,-13.0,0.0
393.0,179.0,-94.0,-66.0,-27.0,-23.0,9.0,-19.0,-32.0,54.0,0.0
501.0,241.0,-32.0,-58.0,-57.0,-38.0,-45.0,-61.0,-82.0,45.0,0.0
414.0,220.0,18.0,-21.0,-46.0,-34.0,-56.0,-82.0,-112.0,-33.0,0.0
286.0,80.0,-35.0,-23.0,-36.0,-15.0,-10.0,-26.0,-4.0,64.0,0.0
4.0,-77.0,-57.0,-49.0,-45.0,15.0,17.0,41.0,97.0,150.0,0.0
-231.0,-77.0,61.0,9.0,-23.0,65.0,52.0,76.0,108.0,74.0,0.0
-297.0,-129.0,76.0,55.0,27.0,125.0,103.0,124.0,128.0,56.0,0.0
-290.0,-124.0,74.0,112.0,58.0,140.0,105.0,117.0,86.0,-27.0,0.0
-247.0,-46.0,109.0,124.0,50.0,117.0,73.0,74.0,32.0,-76.0,0.0
-256.0,-92.0,68.0,70.0,67.0,108.0,72.0,84.0,89.0,32.0,0.0
-392.0,-250.0,13.0,61.0,103.0,98.0,97.0,120.0,137.0,70.0,0.0
-513.0,-308.0,6.0,82.0,118.0,72.0,86.0,106.0,95.0,-30.0,0.0
-558.0,-292.0,-1.0,25.0,12.0,9.0,37.0,69.0,73.0,-61.0,0.0
-505.0,-231.0,48.0,6.0,-82.0,-17.0,28.0,53.0,21.0,-107.0,0.0
-423.0,-189.0,62.0,30.0,-89.0,1.0,37.0,41.0,-12.0,-143.0,0.0
-344.0,-169.0,51.0,42.0,-93.0,4.0,25.0,21.0,-27.0,-114.0,0.0
-279.0,-153.0,18.0,51.0,-55.0,3.0,1.0,2.0,-35.0,-120.0,0.0
-235.0,-148.0,-13.0,64.0,56.0,22.0,-3.0,-16.0,-41.0,-130.0,0.0
-197.0,-144.0,-33.0,104.0,218.0,39.0,-14.0,-29.0,-59.0,-124.0,0.0
-142.0,-96.0,-29.0,92.0,185.0,27.0,-25.0,-31.0,-33.0,-52.0,0.0
-58.0,-50.0,-20.0,29.0,72.0,25.0,-2.0,10.0,26.0,34.0,0.0
-13.0,-22.0,-1.0,18.0,54.0,50.0,30.0,48.0,67.0,71.0,0.0
5.0,1.0,15.0,32.0,72.0,70.0,31.0,54.0,71.0,52.0,0.0
17.0,28.0,27.0,39.0,71.0,69.0,17.0,49.0,46.0,24.0,0.0
30.0,34.0,39.0,29.0,55.0,52.0,13.0,51.0,44.0,34.0,0.0
49.0,32.0,22.0,18.0,37.0,44.0,7.0,35.0,43.0,53.0,0.0
51.0,25.0,1.0,2.0,12.0,26.0,-1.0,22.0,20.0,32.0,0.0
42.0,17.0,-14.0,-17.0,-2.0,9.0,-6.0,3.0,5.0,8.0,0.0
35.0,18.0,-19.0,-47.0,-19.0,-9.0,-14.0,-4.0,-6.0,-2.0,0.0
11.0,22.0,-31.0,-39.0,-41.0,-27.0,-34.0,-9.0,-25.0,-19.0,0.0
-9.0,15.0,-47.0,-21.0,-63.0,-42.0,-51.0,-28.0,-38.0,-27.0,0.0
-7.0,8.0,-50.0,-28.0,-77.0,-50.0,-53.0,-36.0,-42.0,-50.0,0.0
-8.0,7.0,-52.0,-29.0,-65.0,-52.0,-36.0,-36.0,-35.0,-54.0,0.0
-5.0,7.0,-45.0,-16.0,-55.0,-38.0,-31.0,-38.0,-30.0,-53.0,0.0
18.0,14.0,-26.0,-28.0,-49.0,-24.0,-36.0,-27.0,-30.0,-47.0,0.0
46.0,38.0,-7.0,-26.0,-35.0,-5.0,-41.0,-5.0,-18.0,-11.0,0.0
75.0,61.0,1.0,-20.0,-19.0,8.0,-26.0,0.0,-1.0,14.0,0.0
91.0,77.0,23.0,-17.0,3.0,35.0,-15.0,8.0,6.0,23.0,0.0
113.0,86.0,45.0,-5.0,11.0,43.0,-19.0,31.0,19.0,38.0,0.0
132.0,100.0,36.0,10.0,11.0,49.0,-26.0,49.0,32.0,53.0,0.0
133.0,108.0,34.0,19.0,16.0,54.0,-16.0,35.0,39.0,61.0,0.0
129.0,103.0,30.0,32.0,15.0,44.0,-6.0,24.0,35.0,54.0,0.0
113.0,84.0,26.0,27.0,10.0,29.0,-3.0,21.0,23.0,53.0,0.0
83.0,62.0,21.0,-6.0,-1.0,11.0,-23.0,7.0,9.0,37.0,0.0
64.0,50.0,1.0,-29.0,-22.0,-4.0,-38.0,-13.0,-15.0,16.0,0.0
41.0,31.0,-8.0,-44.0,-38.0,-17.0,-36.0,-28.0,-35.0,-6.0,0.0
3.0,12.0,-21.0,-46.0,-59.0,-37.0,-35.0,-36.0,-39.0,-23.0,0.0
-24.0,-1.0,-41.0,-49.0,-79.0,-49.0,-39.0,-53.0,-54.0,-35.0,0.0
-47.0,-21.0,-53.0,-60.0,-87.0,-57.0,-23.0,-48.0,-44.0,-40.0,0.0
-41.0,-21.0,-50.0,-64.0,-78.0,-48.0,-9.0,-34.0,-25.0,-31.0,0.0
-37.0,-9.0,-43.0,-57.0,-77.0,-43.0,-22.0,-18.0,-22.0,-16.0,0.0
-48.0,-5.0,-34.0,-39.0,-66.0,-22.0,-17.0,0.0,-7.0,9.0,0.0
-32.0,-2.0,-30.0,-25.0,-46.0,12.0,7.0,23.0,22.0,58.0,0.0
3.0,14.0,-16.0,-12.0,-38.0,31.0,30.0,33.0,52.0,102.0,0.0
58.0,45.0,0.0,-3.0,-28.0,49.0,42.0,44.0,79.0,120.0,0.0
117.0,72.0,15.0,2.0,-10.0,63.0,42.0,56.0,83.0,117.0,0.0
160.0,94.0,38.0,22.0,-3.0,66.0,34.0,50.0,77.0,114.0,0.0
192.0,125.0,58.0,39.0,13.0,48.0,17.0,35.0,46.0,98.0,0.0
213.0,133.0,37.0,48.0,72.0,38.0,-17.0,3.0,11.0,57.0,0.0
133.0,87.0,3.0,40.0,59.0,31.0,-33.0,-4.0,-17.0,-6.0,0.0
7.0,36.0,-21.0,8.0,-6.0,16.0,-23.0,-17.0,-42.0,-76.0,0.0
-47.0,-3.0,-14.0,-9.0,-29.0,12.0,-6.0,-8.0,-59.0,-103.0,0.0
-65.0,-34.0,-9.0,-16.0,-27.0,-5.0,-9.0,-31.0,-72.0,-123.0,0.0
-44.0,-58.0,-40.0,-61.0,-53.0,-30.0,-11.0,-53.0,-79.0,-116.0,0.0
-38.0,-85.0,-64.0,-83.0,-88.0,-53.0,-23.0,-57.0,-79.0,-101.0,0.0
-46.0,-74.0,-48.0,-82.0,-103.0,-63.0,-33.0,-59.0,-70.0,-94.0,0.0
-33.0,-32.0,2.0,-24.0,-54.0,-58.0,-47.0,-69.0,-74.0,-93.0,0.0
4.0,-8.0,16.0,38.0,5.0,-52.0,-48.0,-71.0,-74.0,-88.0,0.0
53.0,2.0,0.0,22.0,0.0,-31.0,-14.0,-36.0,-44.0,-63.0,0.0
75.0,17.0,-4.0,-1.0,-30.0,-5.0,12.0,-4.0,-1.0,-42.0,0.0
47.0,16.0,3.0,23.0,12.0,12.0,12.0,15.0,33.0,-6.0,0.0
-6.0,8.0,27.0,71.0,110.0,30.0,6.0,17.0,42.0,2.0,0.0
-10.0,40.0,65.0,87.0,108.0,47.0,16.0,8.0,33.0,-7.0,0.0
3.0,74.0,86.0,76.0,63.0,40.0,18.0,5.0,29.0,-10.0,0.0
32.0,61.0,83.0,58.0,28.0,31.0,25.0,15.0,39.0,14.0,0.0
46.0,55.0,50.0,28.0,-5.0,30.0,32.0,25.0,30.0,22.0,0.0
39.0,50.0,28.0,0.0,-11.0,18.0,17.0,8.0,22.0,15.0,0.0
30.0,35.0,11.0,-18.0,-12.0,11.0,3.0,7.0,16.0,14.0,0.0
6.0,10.0,7.0,-17.0,2.0,-10.0,-20.0,11.0,0.0,4.0,0.0
-19.0,-14.0,-2.0,-27.0,-10.0,-45.0,-25.0,-4.0,-24.0,-19.0,0.0
-26.0,-20.0,-6.0,-70.0,-64.0,-67.0,-18.0,-23.0,-28.0,-36.0,0.0
-53.0,-35.0,-23.0,-37.0,-24.0,-59.0,-36.0,-37.0,-39.0,-52.0,0.0
-91.0,-52.0,-51.0,35.0,68.0,-45.0,-39.0,-61.0,-65.0,-95.0,0.0
-89.0,-53.0,-47.0,14.0,36.0,-52.0,-18.0,-56.0,-57.0,-90.0,0.0
-60.0,-23.0,-36.0,-17.0,5.0,-40.0,-1.0,-38.0,-21.0,-46.0,0.0
-12.0,11.0,-34.0,1.0,8.0,-27.0,-1.0,-7.0,1.0,-3.0,0.0
28.0,34.0,-14.0,23.0,19.0,-5.0,6.0,4.0,5.0,21.0,0.0
48.0,57.0,5.0,34.0,43.0,16.0,25.0,3.0,22.0,29.0,0.0
69.0,80.0,28.0,49.0,52.0,38.0,30.0,21.0,31.0,37.0,0.0
78.0,86.0,39.0,49.0,61.0,50.0,31.0,37.0,34.0,44.0,0.0
73.0,87.0,45.0,42.0,54.0,47.0,27.0,46.0,37.0,52.0,0.0
61.0,70.0,36.0,24.0,50.0,28.0,17.0,37.0,53.0,48.0,0.0
36.0,51.0,26.0,-9.0,33.0,21.0,3.0,32.0,51.0,39.0,0.0
21.0,35.0,1.0,-24.0,17.0,11.0,-5.0,25.0,37.0,34.0,0.0
3.0,14.0,-31.0,-35.0,-4.0,-10.0,0.0,3.0,29.0,16.0,0.0
-20.0,0.0,-31.0,-43.0,-24.0,-37.0,-1.0,-20.0,7.0,0.0,0.0
-41.0,3.0,-31.0,-59.0,-45.0,-65.0,-13.0,-40.0,-14.0,-27.0,0.0
-47.0,-2.0,-42.0,-78.0,-66.0,-70.0,-26.0,-47.0,-34.0,-37.0,0.0
-18.0,4.0,-48.0,-85.0,-76.0,-72.0,-22.0,-53.0,-37.0,-30.0,0.0
46.0,32.0,-43.0,-97.0,-82.0,-72.0,-9.0,-55.0,-30.0,-10.0,0.0
158.0,66.0,-47.0,-104.0,-96.0,-79.0,-20.0,-37.0,-23.0,10.0,0.0
281.0,144.0,-49.0,-101.0,-99.0,-65.0,-22.0,-29.0,-28.0,11.0,0.0
327.0,206.0,-32.0,-55.0,-70.0,-31.0,3.0,-21.0,-35.0,0.0,0.0
302.0,192.0,-37.0,-32.0,-42.0,4.0,18.0,3.0,-9.0,35.0,0.0
263.0,189.0,-16.0,-35.0,-38.0,4.0,5.0,24.0,25.0,99.0,0.0
171.0,175.0,63.0,21.0,-13.0,1.0,-22.0,22.0,16.0,83.0,0.0
26.0,93.0,113.0,101.0,33.0,24.0,-22.0,7.0,0.0,6.0,0.0
4.0,36.0,79.0,106.0,48.0,52.0,2.0,25.0,7.0,-16.0,0.0
35.0,-16.0,26.0,62.0,21.0,62.0,28.0,51.0,47.0,48.0,0.0
25.0,-28.0,28.0,54.0,4.0,46.0,24.0,45.0,79.0,102.0,0.0
-72.0,-15.0,74.0,96.0,8.0,20.0,-1.0,14.0,28.0,10.0,0.0
-185.0,-76.0,30.0,85.0,1.0,12.0,20.0,33.0,40.0,7.0,0.0
-212.0,-99.0,-21.0,13.0,-71.0,-1.0,37.0,56.0,72.0,48.0,0.0
-203.0,-92.0,-24.0,-34.0,-110.0,-24.0,28.0,33.0,37.0,1.0,0.0
-229.0,-121.0,-14.0,-34.0,-67.0,-21.0,28.0,-3.0,-4.0,-86.0,0.0
-225.0,-186.0,-36.0,-36.0,-35.0,-18.0,33.0,-4.0,-7.0,-69.0,0.0
-244.0,-248.0,-61.0,-26.0,2.0,-13.0,25.0,0.0,-10.0,-50.0,0.0
-261.0,-215.0,-63.0,-4.0,36.0,-12.0,6.0,-17.0,-14.0,-49.0,0.0
-193.0,-82.0,-9.0,68.0,41.0,1.0,-7.0,-19.0,-30.0,-54.0,0.0
-147.0,-27.0,35.0,90.0,51.0,28.0,11.0,9.0,-6.0,-9.0,0.0
-121.0,-16.0,49.0,79.0,52.0,30.0,5.0,24.0,30.0,27.0,0.0
-97.0,-11.0,62.0,73.0,64.0,53.0,14.0,55.0,48.0,35.0,0.0
-43.0,-20.0,59.0,79.0,68.0,71.0,23.0,67.0,51.0,22.0,0.0
17.0,-10.0,52.0,71.0,45.0,59.0,22.0,61.0,40.0,30.0,0.0
1.0,-29.0,33.0,42.0,16.0,55.0,16.0,45.0,26.0,43.0,0.0
-99.0,-110.0,19.0,15.0,-6.0,36.0,16.0,31.0,25.0,34.0,0.0
-158.0,-127.0,8.0,3.0,-23.0,12.0,14.0,27.0,25.0,15.0,0.0
-123.0,-93.0,8.0,4.0,-36.0,-3.0,8.0,9.0,18.0,-11.0,0.0
-105.0,-96.0,0.0,24.0,15.0,-6.0,-12.0,-8.0,-18.0,-33.0,0.0
-109.0,-98.0,-16.0,13.0,32.0,-39.0,-37.0,-29.0,-35.0,-58.0,0.0
-117.0,-88.0,-45.0,-19.0,-13.0,-72.0,-47.0,-45.0,-32.0,-63.0,0.0
-114.0,-84.0,-54.0,-36.0,-34.0,-83.0,-48.0,-39.0,-35.0,-66.0,0.0
-93.0,-75.0,-49.0,-32.0,-41.0,-84.0,-48.0,-26.0,-49.0,-57.0,0.0
-60.0,-59.0,-41.0,-31.0,-42.0,-66.0,-26.0,-25.0,-47.0,-51.0,0.0
-8.0,-36.0,-23.0,-31.0,-29.0,-47.0,-3.0,-18.0,-27.0,-35.0,0.0
42.0,-3.0,-9.0,-33.0,-6.0,-33.0,3.0,-7.0,-9.0,-12.0,0.0
82.0,19.0,6.0,-25.0,13.0,-8.0,-1.0,9.0,10.0,5.0,0.0
91.0,37.0,11.0,-7.0,34.0,8.0,10.0,31.0,23.0,35.0,0.0
74.0,59.0,-2.0,12.0,43.0,28.0,30.0,42.0,35.0,49.0,0.0
72.0,45.0,-19.0,26.0,53.0,33.0,43.0,42.0,34.0,59.0,0.0
74.0,37.0,-11.0,26.0,53.0,38.0,41.0,35.0,38.0,60.0,0.0
74.0,44.0,-12.0,26.0,47.0,33.0,30.0,26.0,47.0,58.0,0.0
71.0,46.0,-12.0,18.0,33.0,26.0,23.0,22.0,36.0,58.0,0.0
53.0,34.0,-12.0,4.0,15.0,0.0,21.0,1.0,14.0,39.0,0.0
40.0,17.0,-3.0,-14.0,5.0,-25.0,17.0,-24.0,-3.0,14.0,0.0
23.0,-3.0,-30.0,-46.0,-12.0,-40.0,28.0,-26.0,-5.0,-9.0,0.0
-1.0,-29.0,-59.0,-79.0,-31.0,-55.0,28.0,-32.0,-19.0,-31.0,0.0
-21.0,-45.0,-84.0,-95.0,-51.0,-64.0,22.0,-43.0,-24.0,-37.0,0.0
-36.0,-46.0,-77.0,-98.0,-63.0,-66.0,15.0,-49.0,-31.0,-29.0,0.0
-8.0,-24.0,-58.0,-79.0,-57.0,-70.0,-6.0,-49.0,-46.0,-28.0,0.0
76.0,24.0,-56.0,-93.0,-83.0,-73.0,-40.0,-58.0,-67.0,-5.0,0.0
236.0,115.0,-51.0,-121.0,-110.0,-67.0,-64.0,-86.0,-62.0,41.0,0.0
410.0,244.0,-27.0,-133.0,-115.0,-69.0,-74.0,-105.0,-62.0,74.0,0.0
606.0,389.0,4.0,-120.0,-106.0,-81.0,-107.0,-106.0,-78.0,103.0,0.0
713.0,390.0,-10.0,-66.0,-63.0,-54.0,-99.0,-88.0,-67.0,113.0,0.0
627.0,201.0,-58.0,-17.0,24.0,7.0,-46.0,-24.0,-14.0,116.0,0.0
455.0,166.0,5.0,45.0,81.0,23.0,-39.0,-8.0,-11.0,47.0,0.0
178.0,227.0,176.0,133.0,70.0,18.0,-58.0,-41.0,-80.0,-75.0,0.0
-76.0,142.0,207.0,153.0,71.0,53.0,-8.0,7.0,-20.0,-6.0,0.0
-183.0,92.0,190.0,143.0,59.0,47.0,-1.0,17.0,-14.0,0.0,0.0
-314.0,-33.0,116.0,106.0,43.0,37.0,1.0,19.0,-25.0,-96.0,0.0
-355.0,-201.0,-32.0,47.0,23.0,52.0,43.0,67.0,39.0,-48.0,0.0
-237.0,-155.0,-46.0,13.0,9.0,37.0,43.0,60.0,56.0,20.0,0.0
-145.0,-82.0,-27.0,10.0,36.0,7.0,22.0,9.0,24.0,3.0,0.0
-155.0,-119.0,-35.0,7.0,57.0,-17.0,13.0,-9.0,4.0,-32.0,0.0
-139.0,-87.0,-26.0,2.0,11.0,-26.0,14.0,-14.0,-22.0,-64.0,0.0
-143.0,-58.0,-19.0,19.0,13.0,-19.0,28.0,6.0,-13.0,-53.0,0.0
-253.0,-92.0,-20.0,44.0,61.0,-28.0,6.0,-6.0,-32.0,-54.0,0.0
-264.0,-51.0,5.0,14.0,27.0,-36.0,-29.0,-34.0,-42.0,-63.0,0.0
-201.0,19.0,71.0,14.0,-12.0,-20.0,-11.0,-17.0,-20.0,-54.0,0.0
-181.0,-19.0,72.0,11.0,-20.0,22.0,35.0,33.0,25.0,5.0,0.0
-149.0,-84.0,20.0,0.0,-17.0,57.0,80.0,89.0,107.0,103.0,0.0
-202.0,-126.0,23.0,94.0,79.0,83.0,78.0,87.0,101.0,68.0,0.0
-225.0,-126.0,56.0,167.0,145.0,98.0,49.0,44.0,41.0,-5.0,0.0
-186.0,-110.0,56.0,107.0,105.0,86.0,46.0,43.0,28.0,-2.0,0.0
-158.0,-102.0,50.0,41.0,52.0,62.0,47.0,50.0,62.0,46.0,0.0
-147.0,-136.0,19.0,30.0,91.0,52.0,32.0,38.0,88.0,89.0,0.0
-150.0,-178.0,-13.0,33.0,149.0,22.0,8.0,-4.0,42.0,35.0,0.0
-82.0,-179.0,-29.0,-4.0,83.0,-17.0,-4.0,-46.0,1.0,-22.0,0.0
-4.0,-146.0,-34.0,-26.0,9.0,-33.0,3.0,-68.0,-10.0,-51.0,0.0
-8.0,-128.0,-50.0,-36.0,-20.0,-49.0,0.0,-68.0,-25.0,-77.0,0.0
-25.0,-112.0,-72.0,-56.0,-33.0,-68.0,-12.0,-74.0,-31.0,-76.0,0.0
-37.0,-94.0,-58.0,-73.0,-44.0,-78.0,-31.0,-61.0,-30.0,-69.0,0.0
-69.0,-69.0,-44.0,-62.0,-39.0,-77.0,-33.0,-58.0,-29.0,-53.0,0.0
-79.0,-46.0,-40.0,-46.0,-33.0,-54.0,-12.0,-38.0,-15.0,-38.0,0.0
-29.0,-17.0,-31.0,-33.0,-24.0,-33.0,-7.0,-25.0,-2.0,-11.0,0.0
25.0,16.0,-16.0,-21.0,-9.0,-19.0,-17.0,-17.0,2.0,-11.0,0.0
39.0,34.0,3.0,-3.0,7.0,9.0,-15.0,-3.0,13.0,-15.0,0.0
58.0,52.0,7.0,17.0,23.0,34.0,0.0,17.0,24.0,-3.0,0.0
89.0,71.0,-4.0,25.0,45.0,53.0,11.0,41.0,41.0,21.0,0.0
112.0,72.0,2.0,21.0,49.0,54.0,12.0,37.0,56.0,29.0,0.0
88.0,62.0,-4.0,2.0,42.0,41.0,3.0,17.0,46.0,18.0,0.0
79.0,53.0,-11.0,-5.0,37.0,39.0,3.0,15.0,46.0,8.0,0.0
77.0,48.0,-29.0,-16.0,19.0,26.0,-8.0,8.0,28.0,-1.0,0.0
55.0,36.0,-46.0,-35.0,-2.0,-1.0,-16.0,-2.0,10.0,-7.0,0.0
37.0,14.0,-56.0,-50.0,-17.0,-21.0,-14.0,-8.0,2.0,-19.0,0.0
17.0,-12.0,-75.0,-63.0,-39.0,-39.0,-13.0,-13.0,-19.0,-35.0,0.0
-10.0,-24.0,-70.0,-63.0,-57.0,-56.0,-23.0,-24.0,-41.0,-39.0,0.0
-25.0,-29.0,-55.0,-44.0,-61.0,-63.0,-31.0,-39.0,-61.0,-51.0,0.0
-29.0,-31.0,-51.0,-39.0,-62.0,-53.0,-21.0,-55.0,-64.0,-47.0,0.0
-24.0,-17.0,-34.0,-33.0,-61.0,-45.0,-8.0,-49.0,-47.0,-38.0,0.0
-5.0,1.0,-27.0,-21.0,-39.0,-29.0,5.0,-24.0,-28.0,-24.0,0.0
24.0,28.0,-12.0,-5.0,-11.0,-16.0,12.0,-2.0,-10.0,0.0,0.0
48.0,51.0,13.0,5.0,7.0,6.0,15.0,15.0,15.0,21.0,0.0
74.0,79.0,24.0,20.0,17.0,26.0,17.0,31.0,30.0,38.0,0.0
101.0,105.0,55.0,36.0,28.0,28.0,8.0,30.0,31.0,54.0,0.0
102.0,113.0,80.0,47.0,42.0,40.0,5.0,25.0,37.0,66.0,0.0
97.0,97.0,85.0,50.0,36.0,44.0,14.0,13.0,35.0,61.0,0.0
109.0,87.0,53.0,45.0,8.0,29.0,26.0,4.0,26.0,64.0,0.0
125.0,88.0,22.0,24.0,-13.0,8.0,23.0,-2.0,5.0,55.0,0.0
181.0,126.0,12.0,3.0,-34.0,-18.0,-8.0,-30.0,-32.0,38.0,0.0
280.0,203.0,10.0,-1.0,-49.0,-45.0,-54.0,-72.0,-86.0,-15.0,0.0
321.0,244.0,-1.0,-9.0,-70.0,-74.0,-52.0,-101.0,-109.0,-48.0,0.0
309.0,180.0,-49.0,-54.0,-92.0,-104.0,-64.0,-118.0,-125.0,-28.0,0.0
258.0,66.0,-92.0,-92.0,-103.0,-127.0,-66.0,-126.0,-115.0,13.0,0.0
101.0,-17.0,-82.0,-82.0,-77.0,-128.0,-44.0,-100.0,-56.0,24.0,0.0
-97.0,-32.0,-5.0,-47.0,-17.0,-85.0,-23.0,-69.0,-41.0,-62.0,0.0
-128.0,-8.0,22.0,-25.0,-23.0,-50.0,19.0,-12.0,-11.0,-65.0,0.0
-141.0,-48.0,10.0,-12.0,-8.0,-10.0,54.0,39.0,37.0,-9.0,0.0
-192.0,-144.0,-23.0,-28.0,16.0,36.0,63.0,56.0,52.0,-9.0,0.0
-149.0,-113.0,-13.0,-10.0,48.0,53.0,48.0,36.0,46.0,5.0,0.0
-99.0,-60.0,-2.0,38.0,79.0,70.0,45.0,47.0,65.0,51.0,0.0
-62.0,-33.0,14.0,64.0,106.0,94.0,54.0,71.0,64.0,70.0,0.0
-35.0,-44.0,11.0,39.0,90.0,90.0,54.0,77.0,75.0,82.0,0.0
-68.0,-50.0,25.0,19.0,63.0,71.0,38.0,56.0,41.0,35.0,0.0
-83.0,-39.0,42.0,8.0,19.0,44.0,31.0,52.0,36.0,19.0,0.0
-86.0,-22.0,24.0,14.0,-8.0,-2.0,25.0,42.0,27.0,20.0,0.0
-143.0,-19.0,25.0,69.0,3.0,-19.0,-2.0,14.0,-2.0,-20.0,0.0
-198.0,-57.0,1.0,51.0,-32.0,-24.0,9.0,14.0,-5.0,-37.0,0.0
-180.0,-106.0,-47.0,-2.0,-61.0,-25.0,12.0,23.0,0.0,-34.0,0.0
-163.0,-149.0,-70.0,7.0,12.0,-27.0,15.0,0.0,-11.0,-48.0,0.0
-149.0,-151.0,-71.0,17.0,29.0,-36.0,15.0,-24.0,-34.0,-80.0,0.0
-135.0,-127.0,-58.0,9.0,-10.0,-44.0,19.0,-23.0,-46.0,-95.0,0.0
-116.0,-103.0,-54.0,0.0,-32.0,-33.0,16.0,-17.0,-43.0,-89.0,0.0
-74.0,-74.0,-54.0,5.0,-25.0,-19.0,23.0,-11.0,-34.0,-63.0,0.0
-26.0,-46.0,-52.0,18.0,-4.0,-5.0,30.0,2.0,-18.0,-26.0,0.0
14.0,-12.0,-27.0,25.0,13.0,17.0,28.0,17.0,1.0,-7.0,0.0
42.0,13.0,-5.0,32.0,22.0,26.0,28.0,31.0,11.0,20.0,0.0
70.0,30.0,7.0,40.0,33.0,31.0,32.0,42.0,32.0,40.0,0.0
92.0,44.0,9.0,38.0,41.0,40.0,21.0,41.0,42.0,59.0,0.0
115.0,51.0,11.0,29.0,27.0,36.0,3.0,38.0,32.0,63.0,0.0
112.0,56.0,7.0,34.0,14.0,35.0,6.0,33.0,24.0,42.0,0.0
69.0,23.0,-3.0,30.0,1.0,39.0,18.0,47.0,13.0,9.0,0.0
33.0,-7.0,-26.0,9.0,-10.0,18.0,16.0,38.0,11.0,1.0,0.0
15.0,-20.0,-39.0,-3.0,-34.0,4.0,15.0,22.0,4.0,0.0,0.0
-13.0,-28.0,-45.0,-18.0,-50.0,-3.0,18.0,0.0,-3.0,-19.0,0.0
-32.0,-52.0,-54.0,-32.0,-62.0,-24.0,19.0,-12.0,-21.0,-34.0,0.0
-50.0,-70.0,-57.0,-51.0,-69.0,-46.0,14.0,-24.0,-43.0,-33.0,0.0
-47.0,-64.0,-67.0,-61.0,-68.0,-48.0,27.0,-20.0,-30.0,-21.0,0.0
-26.0,-52.0,-62.0,-63.0,-57.0,-36.0,20.0,-13.0,-14.0,-12.0,0.0
-20.0,-39.0,-37.0,-59.0,-50.0,-28.0,8.0,-19.0,-9.0,-17.0,0.0
-20.0,-30.0,-24.0,-40.0,-41.0,-17.0,3.0,-13.0,-3.0,-16.0,0.0
-4.0,-18.0,-23.0,-15.0,-15.0,1.0,1.0,9.0,11.0,7.0,0.0
27.0,15.0,9.0,0.0,4.0,17.0,-9.0,19.0,9.0,21.0,0.0
58.0,49.0,38.0,1.0,20.0,34.0,-11.0,14.0,17.0,40.0,0.0
76.0,49.0,45.0,-2.0,33.0,53.0,0.0,29.0,34.0,45.0,0.0
67.0,42.0,45.0,1.0,42.0,55.0,9.0,43.0,38.0,43.0,0.0
58.0,41.0,39.0,0.0,22.0,57.0,3.0,39.0,37.0,38.0,0.0
51.0,47.0,50.0,-12.0,-25.0,46.0,4.0,37.0,44.0,53.0,0.0
51.0,58.0,55.0,-18.0,-63.0,31.0,7.0,31.0,51.0,60.0,0.0
47.0,66.0,48.0,-27.0,-88.0,2.0,-2.0,18.0,17.0,50.0,0.0
27.0,59.0,44.0,-56.0,-130.0,-29.0,3.0,22.0,6.0,54.0,0.0
-2.0,38.0,31.0,-61.0,-115.0,-26.0,3.0,14.0,-13.0,37.0,0.0
11.0,33.0,18.0,-34.0,-46.0,-30.0,-13.0,-26.0,-66.0,-2.0,0.0
111.0,57.0,12.0,-10.0,-23.0,-63.0,-27.0,-67.0,-101.0,-30.0,0.0
307.0,160.0,-6.0,-31.0,-44.0,-105.0,-46.0,-90.0,-118.0,-26.0,0.0
446.0,241.0,-27.0,-55.0,-45.0,-119.0,-63.0,-80.0,-109.0,8.0,0.0
426.0,277.0,-34.0,-35.0,-13.0,-123.0,-92.0,-88.0,-90.0,51.0,0.0
437.0,355.0,-7.0,-11.0,-11.0,-128.0,-118.0,-115.0,-98.0,76.0,0.0
382.0,428.0,83.0,40.0,-24.0,-105.0,-125.0,-117.0,-99.0,61.0,0.0
115.0,338.0,168.0,103.0,-23.0,-54.0,-82.0,-90.0,-96.0,-41.0,0.0
-49.0,164.0,136.0,80.0,-28.0,-4.0,-25.0,-25.0,-40.0,-48.0,0.0
-183.0,-35.0,86.0,54.0,-21.0,33.0,7.0,32.0,16.0,-14.0,0.0
-273.0,-125.0,98.0,92.0,52.0,63.0,20.0,12.0,5.0,-59.0,0.0
-307.0,-210.0,113.0,155.0,178.0,106.0,40.0,26.0,-8.0,-90.0,0.0
-252.0,-322.0,45.0,163.0,296.0,151.0,68.0,51.0,6.0,-84.0,0.0
-173.0,-374.0,-58.0,95.0,243.0,120.0,57.0,32.0,-22.0,-109.0,0.0
-92.0,-319.0,-77.0,35.0,124.0,61.0,37.0,13.0,-36.0,-81.0,0.0
-24.0,-234.0,-80.0,-16.0,38.0,11.0,17.0,8.0,1.0,16.0,0.0
-66.0,-170.0,-63.0,-46.0,-24.0,-34.0,0.0,-13.0,6.0,-5.0,0.0
-207.0,-184.0,-46.0,-51.0,-39.0,-53.0,0.0,-38.0,-32.0,-90.0,0.0
-323.0,-298.0,-70.0,-66.0,-40.0,-57.0,1.0,-23.0,-22.0,-75.0,0.0
-403.0,-349.0,-77.0,-47.0,-10.0,-41.0,13.0,-2.0,-10.0,-42.0,0.0
-342.0,-292.0,-44.0,-26.0,-5.0,-23.0,18.0,-2.0,1.0,-52.0,0.0
-194.0,-188.0,-14.0,-16.0,-4.0,-15.0,8.0,-13.0,-3.0,-44.0,0.0
-117.0,-117.0,0.0,-1.0,6.0,0.0,5.0,-12.0,-18.0,-43.0,0.0
-76.0,-92.0,7.0,-1.0,20.0,18.0,18.0,16.0,12.0,0.0,0.0
-44.0,-77.0,7.0,3.0,34.0,28.0,27.0,46.0,53.0,51.0,0.0
-39.0,-51.0,18.0,10.0,42.0,45.0,23.0,55.0,63.0,61.0,0.0
-27.0,-26.0,20.0,19.0,55.0,82.0,17.0,57.0,52.0,43.0,0.0
8.0,-4.0,21.0,2.0,60.0,77.0,22.0,42.0,43.0,31.0,0.0
32.0,-9.0,15.0,5.0,50.0,63.0,19.0,28.0,44.0,35.0,0.0
38.0,-7.0,7.0,7.0,43.0,50.0,-1.0,20.0,36.0,29.0,0.0
30.0,-9.0,14.0,-2.0,24.0,17.0,-2.0,-10.0,0.0,5.0,0.0
19.0,-7.0,7.0,-27.0,4.0,-5.0,-5.0,-22.0,-26.0,-10.0,0.0
16.0,-10.0,-17.0,-52.0,-20.0,-22.0,-4.0,-18.0,-27.0,-9.0,0.0
2.0,-22.0,-37.0,-59.0,-48.0,-48.0,-20.0,-29.0,-37.0,-18.0,0.0
-20.0,-42.0,-48.0,-67.0,-69.0,-66.0,-36.0,-25.0,-35.0,-33.0,0.0
-15.0,-48.0,-46.0,-66.0,-75.0,-75.0,-32.0,-21.0,-39.0,-51.0,0.0
5.0,-31.0,-35.0,-55.0,-71.0,-70.0,-25.0,-34.0,-39.0,-38.0,0.0
23.0,-15.0,-13.0,-51.0,-63.0,-51.0,-5.0,-44.0,-38.0,-23.0,0.0
33.0,-1.0,-3.0,-36.0,-52.0,-27.0,28.0,-17.0,8.0,1.0,0.0
55.0,34.0,9.0,-26.0,-48.0,-21.0,32.0,3.0,45.0,20.0,0.0
87.0,67.0,21.0,-33.0,-35.0,0.0,21.0,26.0,34.0,48.0,0.0
124.0,92.0,26.0,-26.0,-12.0,22.0,28.0,35.0,41.0,74.0,0.0
156.0,123.0,37.0,-1.0,1.0,26.0,29.0,26.0,56.0,82.0,0.0
174.0,122.0,51.0,3.0,5.0,14.0,24.0,19.0,58.0,88.0,0.0
150.0,83.0,41.0,-1.0,-6.0,12.0,15.0,21.0,40.0,77.0,0.0
127.0,49.0,37.0,42.0,14.0,20.0,11.0,20.0,32.0,57.0,0.0
132.0,71.0,8.0,70.0,22.0,8.0,9.0,6.0,37.0,53.0,0.0
172.0,122.0,-17.0,17.0,-31.0,-20.0,-17.0,-28.0,3.0,49.0,0.0
222.0,197.0,-13.0,-37.0,-92.0,-54.0,-40.0,-53.0,-40.0,34.0,0.0
209.0,220.0,4.0,-61.0,-128.0,-76.0,-42.0,-56.0,-46.0,19.0,0.0
187.0,189.0,9.0,-48.0,-75.0,-77.0,-47.0,-69.0,-67.0,-8.0,0.0
144.0,88.0,-34.0,-57.0,-39.0,-71.0,-24.0,-44.0,-65.0,2.0,0.0
94.0,-11.0,-110.0,-115.0,-75.0,-54.0,14.0,3.0,-4.0,41.0,0.0
49.0,-10.0,-127.0,-80.0,-14.0,-17.0,19.0,0.0,-27.0,-22.0,0.0
-6.0,2.0,-96.0,-29.0,43.0,-4.0,1.0,-24.0,-88.0,-116.0,0.0
-58.0,-1.0,-40.0,-5.0,30.0,6.0,-9.0,-25.0,-76.0,-140.0,0.0
-125.0,-37.0,11.0,67.0,62.0,20.0,0.0,-6.0,-24.0,-86.0,0.0
-177.0,-57.0,33.0,89.0,71.0,25.0,13.0,18.0,-1.0,-64.0,0.0
-209.0,-82.0,27.0,67.0,74.0,59.0,30.0,51.0,23.0,-49.0,0.0
-177.0,-71.0,40.0,50.0,68.0,80.0,36.0,73.0,53.0,-4.0,0.0
-117.0,-20.0,54.0,70.0,47.0,62.0,12.0,53.0,58.0,13.0,0.0
-113.0,12.0,58.0,71.0,32.0,44.0,-4.0,38.0,54.0,24.0,0.0
-145.0,-11.0,37.0,67.0,22.0,45.0,8.0,40.0,68.0,22.0,0.0
-148.0,-32.0,15.0,60.0,12.0,40.0,27.0,37.0,59.0,0.0,0.0
-127.0,-20.0,15.0,40.0,-7.0,9.0,14.0,19.0,39.0,-13.0,0.0
-100.0,-13.0,9.0,10.0,-37.0,-8.0,2.0,3.0,12.0,-17.0,0.0
-93.0,-27.0,1.0,-14.0,-65.0,-32.0,0.0,-16.0,-6.0,-20.0,0.0
-108.0,-48.0,-16.0,-36.0,-77.0,-60.0,2.0,-32.0,-13.0,-34.0,0.0
-92.0,-53.0,-21.0,-43.0,-76.0,-65.0,1.0,-39.0,-27.0,-50.0,0.0
-73.0,-46.0,-22.0,-33.0,-65.0,-48.0,2.0,-39.0,-26.0,-55.0,0.0
-53.0,-32.0,-24.0,-28.0,-59.0,-36.0,3.0,-31.0,-13.0,-42.0,0.0
-17.0,-11.0,-21.0,-25.0,-47.0,-30.0,9.0,-27.0,-4.0,-35.0,0.0
5.0,14.0,-3.0,-6.0,-26.0,-8.0,9.0,-24.0,-3.0,-21.0,0.0
39.0,33.0,13.0,11.0,-10.0,10.0,0.0,-14.0,10.0,-4.0,0.0
73.0,52.0,32.0,21.0,12.0,29.0,5.0,-2.0,24.0,21.0,0.0
90.0,76.0,38.0,37.0,32.0,40.0,17.0,14.0,33.0,43.0,0.0
101.0,81.0,31.0,49.0,37.0,46.0,27.0,31.0,55.0,55.0,0.0
115.0,72.0,19.0,45.0,44.0,53.0,26.0,35.0,49.0,55.0,0.0
108.0,67.0,9.0,36.0,45.0,53.0,17.0,42.0,43.0,56.0,0.0
107.0,46.0,-6.0,15.0,29.0,44.0,9.0,34.0,40.0,37.0,0.0
77.0,17.0,-19.0,0.0,15.0,34.0,12.0,28.0,25.0,17.0,0.0
42.0,-2.0,-41.0,-8.0,2.0,9.0,14.0,1.0,12.0,0.0,0.0
14.0,-20.0,-46.0,-30.0,-8.0,-6.0,19.0,-13.0,-7.0,-18.0,0.0
-15.0,-39.0,-52.0,-59.0,-32.0,-19.0,10.0,-24.0,-13.0,-49.0,0.0
-29.0,-43.0,-51.0,-86.0,-49.0,-30.0,-7.0,-41.0,-35.0,-58.0,0.0
-32.0,-40.0,-40.0,-93.0,-55.0,-29.0,-1.0,-56.0,-40.0,-56.0,0.0
-26.0,-28.0,-22.0,-74.0,-66.0,-29.0,0.0,-41.0,-21.0,-50.0,0.0
-11.0,-2.0,5.0,-48.0,-68.0,-36.0,-6.0,-25.0,-21.0,-31.0,0.0
13.0,26.0,37.0,-18.0,-48.0,-20.0,-1.0,-21.0,-2.0,-13.0,0.0
45.0,48.0,61.0,4.0,-24.0,14.0,13.0,-9.0,25.0,4.0,0.0
93.0,75.0,67.0,22.0,-6.0,37.0,1.0,4.0,11.0,20.0,0.0
142.0,103.0,75.0,48.0,52.0,56.0,-4.0,0.0,14.0,31.0,0.0
179.0,106.0,67.0,44.0,86.0,60.0,3.0,1.0,34.0,52.0,0.0
218.0,137.0,74.0,-2.0,4.0,43.0,-1.0,19.0,28.0,71.0,0.0
238.0,159.0,62.0,-42.0,-97.0,39.0,1.0,41.0,15.0,94.0,0.0
212.0,152.0,59.0,-76.0,-185.0,35.0,27.0,55.0,44.0,93.0,0.0
188.0,173.0,70.0,-92.0,-235.0,13.0,50.0,51.0,62.0,71.0,0.0
127.0,147.0,74.0,-78.0,-238.0,-9.0,58.0,49.0,82.0,59.0,0.0
46.0,87.0,39.0,-47.0,-152.0,-25.0,15.0,34.0,46.0,30.0,0.0
-19.0,42.0,7.0,-18.0,-46.0,-27.0,-24.0,15.0,-5.0,-7.0,0.0
-56.0,-13.0,-52.0,-15.0,98.0,-9.0,-31.0,-3.0,-22.0,-6.0,0.0
-117.0,-84.0,-87.0,36.0,294.0,-12.0,-75.0,-66.0,-93.0,-73.0,0.0
-88.0,-56.0,-49.0,50.0,240.0,-26.0,-98.0,-95.0,-138.0,-108.0,0.0
-39.0,-57.0,-43.0,9.0,91.0,-21.0,-52.0,-55.0,-108.0,-87.0,0.0
-70.0,-142.0,-48.0,4.0,50.0,13.0,-1.0,5.0,-62.0,-79.0,0.0
-84.0,-215.0,-61.0,-9.0,27.0,43.0,33.0,67.0,31.0,23.0,0.0
-128.0,-174.0,-12.0,36.0,34.0,47.0,27.0,52.0,35.0,21.0,0.0
-194.0,-112.0,35.0,46.0,61.0,60.0,13.0,37.0,18.0,-41.0,0.0
-161.0,-69.0,45.0,40.0,114.0,87.0,11.0,56.0,42.0,-26.0,0.0
-101.0,-2.0,73.0,93.0,164.0,94.0,-6.0,42.0,30.0,-12.0,0.0
-71.0,16.0,71.0,124.0,109.0,80.0,-6.0,54.0,40.0,27.0,0.0
-26.0,20.0,23.0,56.0,46.0,78.0,35.0,84.0,85.0,65.0,0.0
25.0,8.0,1.0,42.0,47.0,79.0,40.0,81.0,89.0,66.0,0.0
0.0,-17.0,8.0,132.0,125.0,61.0,-12.0,24.0,19.0,-13.0,0.0
-13.0,-30.0,-7.0,124.0,113.0,27.0,-43.0,-7.0,-25.0,-41.0,0.0
3.0,-34.0,-13.0,56.0,62.0,-5.0,-42.0,-5.0,-26.0,-27.0,0.0
-29.0,-53.0,-34.0,23.0,57.0,-31.0,-42.0,-16.0,-51.0,-56.0,0.0
-127.0,-70.0,-41.0,-14.0,23.0,-41.0,-24.0,-28.0,-64.0,-81.0,0.0
-164.0,-80.0,-60.0,-37.0,-35.0,-39.0,-4.0,-26.0,-60.0,-83.0,0.0
-131.0,-88.0,-66.0,-54.0,-62.0,-31.0,-8.0,-21.0,-54.0,-63.0,0.0
-69.0,-79.0,-61.0,-79.0,-87.0,-36.0,4.0,0.0,-37.0,-28.0,0.0
3.0,-47.0,-56.0,-74.0,-84.0,-14.0,20.0,20.0,-21.0,-19.0,0.0
54.0,-19.0,-46.0,-34.0,-2.0,16.0,19.0,26.0,-31.0,-23.0,0.0
106.0,2.0,-66.0,-19.0,63.0,15.0,2.0,4.0,-40.0,-23.0,0.0
189.0,75.0,-62.0,-23.0,43.0,39.0,17.0,23.0,-20.0,10.0,0.0
258.0,172.0,-23.0,-15.0,31.0,62.0,14.0,29.0,-19.0,31.0,0.0
290.0,192.0,-12.0,-26.0,25.0,62.0,1.0,49.0,15.0,93.0,0.0
295.0,186.0,-21.0,-44.0,6.0,36.0,0.0,72.0,69.0,169.0,0.0
207.0,120.0,-16.0,-57.0,-10.0,25.0,10.0,79.0,100.0,197.0,0.0
7.0,-16.0,4.0,-31.0,-15.0,14.0,12.0,70.0,54.0,105.0,0.0
-135.0,-113.0,13.0,-17.0,-11.0,20.0,13.0,53.0,30.0,45.0,0.0
-143.0,-100.0,15.0,-10.0,-19.0,0.0,-4.0,39.0,31.0,44.0,0.0
-164.0,-73.0,28.0,3.0,-17.0,-28.0,-17.0,0.0,-5.0,-21.0,0.0
-195.0,-69.0,54.0,-3.0,-32.0,-34.0,-13.0,-18.0,-25.0,-75.0,0.0
-181.0,-48.0,65.0,-20.0,-44.0,-51.0,-6.0,-22.0,-42.0,-95.0,0.0
-133.0,-19.0,49.0,-37.0,-61.0,-55.0,-10.0,-44.0,-58.0,-100.0,0.0
-57.0,12.0,33.0,-43.0,-79.0,-66.0,-29.0,-64.0,-84.0,-128.0,0.0
7.0,59.0,35.0,-38.0,-93.0,-68.0,-34.0,-63.0,-101.0,-127.0,0.0
50.0,129.0,81.0,-26.0,-101.0,-62.0,-33.0,-40.0,-48.0,-37.0,0.0
55.0,144.0,101.0,-41.0,-119.0,-40.0,-18.0,4.0,52.0,79.0,0.0
22.0,116.0,111.0,-26.0,-88.0,-9.0,4.0,27.0,85.0,95.0,0.0
43.0,124.0,110.0,18.0,-7.0,31.0,-13.0,7.0,46.0,57.0,0.0
56.0,100.0,64.0,39.0,108.0,69.0,-21.0,5.0,35.0,38.0,0.0
67.0,100.0,52.0,42.0,142.0,67.0,-21.0,1.0,27.0,37.0,0.0
112.0,117.0,45.0,19.0,100.0,37.0,-34.0,-8.0,28.0,49.0,0.0
99.0,55.0,15.0,11.0,75.0,47.0,-27.0,9.0,36.0,44.0,0.0
-30.0,-58.0,4.0,37.0,63.0,62.0,23.0,24.0,60.0,21.0,0.0
-113.0,-68.0,24.0,31.0,37.0,37.0,46.0,27.0,79.0,15.0,0.0
-112.0,-52.0,-4.0,-20.0,-16.0,0.0,36.0,17.0,86.0,56.0,0.0
-64.0,-50.0,-46.0,-81.0,-72.0,-38.0,2.0,-4.0,56.0,48.0,0.0
-63.0,-84.0,-63.0,-98.0,-111.0,-66.0,-33.0,-39.0,-18.0,-24.0,0.0
-73.0,-137.0,-56.0,-86.0,-129.0,-58.0,2.0,-42.0,5.0,-11.0,0.0
-98.0,-172.0,-36.0,-50.0,-93.0,-19.0,40.0,-25.0,29.0,-2.0,0.0
-147.0,-180.0,-33.0,-4.0,-4.0,5.0,48.0,-18.0,11.0,-32.0,0.0
-95.0,-98.0,-23.0,0.0,42.0,-5.0,37.0,-26.0,-20.0,-62.0,0.0
-5.0,4.0,5.0,-18.0,39.0,-7.0,7.0,-38.0,-23.0,-56.0,0.0
78.0,43.0,20.0,-19.0,64.0,3.0,-28.0,-44.0,-15.0,-8.0,0.0
103.0,22.0,-4.0,-30.0,73.0,7.0,-56.0,-34.0,-19.0,20.0,0.0
25.0,-40.0,-17.0,-6.0,53.0,26.0,-25.0,5.0,16.0,42.0,0.0
-53.0,-49.0,38.0,44.0,57.0,51.0,2.0,23.0,26.0,28.0,0.0
-54.0,-4.0,83.0,72.0,58.0,41.0,-7.0,10.0,-7.0,-13.0,0.0
-42.0,15.0,71.0,69.0,46.0,33.0,-7.0,4.0,-4.0,5.0,0.0
0.0,11.0,51.0,57.0,40.0,24.0,1.0,18.0,7.0,30.0,0.0
30.0,6.0,24.0,34.0,33.0,20.0,2.0,5.0,-1.0,15.0,0.0
16.0,-17.0,-18.0,1.0,1.0,0.0,-6.0,-11.0,1.0,-2.0,0.0
-10.0,-40.0,-41.0,-7.0,-28.0,-21.0,-5.0,-8.0,-10.0,-9.0,0.0
-51.0,-42.0,-36.0,-14.0,-39.0,-39.0,-6.0,-30.0,-38.0,-33.0,0.0
-83.0,-48.0,-36.0,-32.0,-42.0,-44.0,-11.0,-43.0,-46.0,-38.0,0.0
-75.0,-21.0,-42.0,-54.0,-52.0,-58.0,-20.0,-61.0,-53.0,-45.0,0.0
-76.0,-5.0,-34.0,-68.0,-58.0,-71.0,-29.0,-60.0,-47.0,-51.0,0.0
-82.0,-31.0,-45.0,-72.0,-45.0,-52.0,-19.0,-28.0,-26.0,-27.0,0.0
-65.0,-33.0,-61.0,-65.0,-23.0,-29.0,0.0,-15.0,-15.0,-21.0,0.0
-15.0,-6.0,-51.0,-51.0,-3.0,-19.0,11.0,-16.0,-10.0,-12.0,0.0
47.0,36.0,-30.0,-35.0,-4.0,-14.0,3.0,-3.0,0.0,10.0,0.0
87.0,85.0,4.0,-27.0,-9.0,-3.0,11.0,20.0,30.0,60.0,0.0
111.0,106.0,21.0,-23.0,-3.0,18.0,23.0,38.0,56.0,90.0,0.0
103.0,99.0,20.0,-23.0,-6.0,36.0,26.0,49.0,50.0,81.0,0.0
128.0,76.0,12.0,-42.0,-51.0,21.0,20.0,47.0,49.0,92.0,0.0
156.0,80.0,2.0,-72.0,-103.0,4.0,17.0,34.0,53.0,81.0,0.0
147.0,83.0,-1.0,-63.0,-79.0,2.0,5.0,15.0,20.0,38.0,0.0
138.0,86.0,-12.0,-19.0,-10.0,10.0,10.0,-1.0,-18.0,19.0,0.0
122.0,57.0,-42.0,-21.0,-3.0,5.0,16.0,2.0,-3.0,50.0,0.0
12.0,25.0,-33.0,4.0,33.0,-15.0,-6.0,-20.0,-23.0,10.0,0.0
-123.0,-25.0,-27.0,18.0,37.0,-39.0,-14.0,-41.0,-59.0,-56.0,0.0
-177.0,-77.0,-27.0,22.0,-4.0,-55.0,6.0,-29.0,-44.0,-31.0,0.0
-198.0,-91.0,-13.0,8.0,-27.0,-57.0,11.0,-22.0,-36.0,-8.0,0.0
-180.0,-66.0,-27.0,-14.0,-52.0,-37.0,19.0,-14.0,-34.0,-11.0,0.0
-120.0,-42.0,-33.0,-11.0,-44.0,-14.0,20.0,-3.0,-25.0,2.0,0.0
-66.0,-17.0,-26.0,5.0,-29.0,-5.0,16.0,9.0,-1.0,29.0,0.0
-40.0,17.0,-4.0,42.0,-26.0,-6.0,4.0,17.0,20.0,58.0,0.0
-15.0,42.0,6.0,74.0,-29.0,-20.0,-3.0,27.0,40.0,81.0,0.0
41.0,72.0,10.0,71.0,-14.0,-12.0,-4.0,15.0,31.0,74.0,0.0
78.0,68.0,28.0,100.0,50.0,28.0,11.0,22.0,28.0,64.0,0.0
144.0,100.0,49.0,109.0,124.0,68.0,22.0,38.0,30.0,40.0,0.0
188.0,142.0,66.0,74.0,96.0,64.0,29.0,40.0,25.0,25.0,0.0
189.0,100.0,45.0,66.0,88.0,48.0,27.0,40.0,34.0,40.0,0.0
136.0,28.0,-8.0,75.0,100.0,38.0,16.0,14.0,20.0,11.0,0.0
13.0,-52.0,-42.0,61.0,65.0,20.0,22.0,-2.0,-11.0,-33.0,0.0
-59.0,-82.0,-45.0,33.0,35.0,-13.0,45.0,-13.0,-10.0,-50.0,0.0
-71.0,-81.0,-55.0,-14.0,-29.0,-52.0,32.0,-31.0,-31.0,-74.0,0.0
-69.0,-82.0,-51.0,-35.0,-75.0,-67.0,39.0,-32.0,-19.0,-75.0,0.0
-77.0,-121.0,-54.0,-20.0,-12.0,-65.0,8.0,-51.0,-50.0,-93.0,0.0
-93.0,-143.0,-58.0,-22.0,10.0,-62.0,-20.0,-74.0,-95.0,-103.0,0.0
-67.0,-109.0,-45.0,-31.0,0.0,-57.0,-16.0,-63.0,-76.0,-79.0,0.0
-26.0,-52.0,-40.0,-24.0,34.0,-68.0,-1.0,-42.0,-33.0,-31.0,0.0
6.0,11.0,-28.0,-17.0,42.0,-69.0,7.0,-14.0,17.0,6.0,0.0
70.0,69.0,0.0,2.0,21.0,-45.0,-15.0,-1.0,11.0,11.0,0.0
128.0,84.0,18.0,13.0,31.0,-2.0,-16.0,10.0,-16.0,15.0,0.0
141.0,76.0,20.0,27.0,51.0,32.0,-1.0,28.0,-4.0,40.0,0.0
149.0,77.0,37.0,35.0,53.0,32.0,2.0,48.0,16.0,79.0,0.0
106.0,78.0,51.0,54.0,55.0,26.0,0.0,43.0,3.0,54.0,0.0
65.0,65.0,49.0,75.0,59.0,28.0,-4.0,42.0,-15.0,4.0,0.0
79.0,65.0,28.0,61.0,60.0,30.0,-4.0,47.0,-20.0,-10.0,0.0
113.0,84.0,6.0,43.0,38.0,25.0,-6.0,20.0,-48.0,-62.0,0.0
102.0,86.0,0.0,27.0,12.0,4.0,-16.0,-12.0,-72.0,-98.0,0.0
64.0,44.0,-18.0,-15.0,-15.0,-31.0,-15.0,-16.0,-38.0,-45.0,0.0
-14.0,-55.0,-61.0,-49.0,-43.0,-62.0,-8.0,-6.0,-3.0,17.0,0.0
-108.0,-130.0,-87.0,-57.0,-50.0,-76.0,-3.0,0.0,-5.0,4.0,0.0
-200.0,-148.0,-70.0,-36.0,-47.0,-68.0,-5.0,-6.0,-34.0,-74.0,0.0
-199.0,-128.0,-69.0,-51.0,-60.0,-69.0,-9.0,7.0,-25.0,-68.0,0.0
-173.0,-93.0,-59.0,-54.0,-60.0,-67.0,-17.0,20.0,-17.0,-50.0,0.0
-145.0,-50.0,-35.0,-34.0,-39.0,-43.0,-16.0,11.0,-20.0,-51.0,0.0
-79.0,-5.0,-11.0,-13.0,-16.0,-22.0,-8.0,21.0,-4.0,-29.0,0.0
4.0,14.0,4.0,-1.0,0.0,-5.0,8.0,52.0,46.0,24.0,0.0
47.0,8.0,16.0,8.0,4.0,18.0,23.0,77.0,83.0,68.0,0.0
97.0,15.0,12.0,5.0,0.0,41.0,39.0,88.0,80.0,90.0,0.0
146.0,45.0,12.0,0.0,-8.0,32.0,28.0,76.0,71.0,100.0,0.0
197.0,94.0,42.0,-7.0,-38.0,8.0,1.0,46.0,38.0,71.0,0.0
228.0,123.0,43.0,-23.0,-50.0,-1.0,0.0,40.0,38.0,70.0,0.0
151.0,81.0,39.0,0.0,-17.0,9.0,-2.0,38.0,36.0,45.0,0.0
50.0,20.0,40.0,22.0,50.0,11.0,-33.0,10.0,-19.0,-32.0,0.0
3.0,-5.0,12.0,-28.0,-6.0,-18.0,-29.0,-5.0,-27.0,-21.0,0.0
-36.0,13.0,-12.0,-86.0,-122.0,-50.0,-22.0,4.0,6.0,26.0,0.0
-82.0,71.0,37.0,-44.0,-94.0,-64.0,-48.0,-41.0,-53.0,-63.0,0.0
-89.0,44.0,39.0,7.0,11.0,-66.0,-76.0,-82.0,-117.0,-134.0,0.0
-59.0,0.0,26.0,0.0,4.0,-79.0,-84.0,-95.0,-128.0,-134.0,0.0
-54.0,-72.0,-1.0,-33.0,-35.0,-63.0,-58.0,-63.0,-49.0,-64.0,0.0
-111.0,-166.0,-34.0,-39.0,-18.0,-15.0,-27.0,-9.0,30.0,-10.0,0.0
-148.0,-208.0,-29.0,-2.0,30.0,15.0,-6.0,18.0,48.0,9.0,0.0
-181.0,-175.0,31.0,26.0,63.0,18.0,-12.0,12.0,21.0,-34.0,0.0
-199.0,-161.0,60.0,43.0,63.0,32.0,-8.0,32.0,21.0,-46.0,0.0
-109.0,-98.0,58.0,45.0,54.0,26.0,0.0,39.0,40.0,-4.0,0.0
-25.0,-12.0,67.0,54.0,48.0,16.0,-8.0,32.0,24.0,22.0,0.0
-25.0,16.0,102.0,76.0,55.0,32.0,-3.0,34.0,19.0,32.0,0.0
-29.0,8.0,105.0,88.0,79.0,47.0,2.0,55.0,32.0,30.0,0.0
-19.0,-6.0,71.0,54.0,61.0,43.0,3.0,46.0,39.0,26.0,0.0
-15.0,-14.0,39.0,22.0,37.0,26.0,7.0,29.0,30.0,11.0,0.0
-9.0,-22.0,0.0,13.0,17.0,5.0,3.0,28.0,8.0,7.0,0.0
31.0,-16.0,-27.0,-3.0,-3.0,-15.0,-14.0,6.0,-8.0,-4.0,0.0
67.0,-15.0,-57.0,-33.0,-31.0,-29.0,-12.0,-20.0,-33.0,-39.0,0.0
31.0,-36.0,-70.0,-59.0,-57.0,-40.0,3.0,-30.0,-51.0,-76.0,0.0
-28.0,-77.0,-64.0,-56.0,-42.0,-43.0,9.0,-25.0,-58.0,-76.0,0.0
-83.0,-86.0,-50.0,-27.0,-14.0,-44.0,16.0,-26.0,-28.0,-64.0,0.0
-122.0,-80.0,-37.0,-7.0,-21.0,-38.0,15.0,-15.0,0.0,-57.0,0.0
-105.0,-56.0,-30.0,-11.0,-27.0,-33.0,3.0,-8.0,-4.0,-41.0,0.0
-42.0,-33.0,-18.0,-3.0,-7.0,-2.0,4.0,6.0,0.0,-24.0,0.0
16.0,-7.0,-12.0,7.0,9.0,25.0,23.0,19.0,24.0,8.0,0.0
53.0,22.0,11.0,27.0,30.0,38.0,40.0,24.0,45.0,30.0,0.0
92.0,51.0,47.0,43.0,40.0,50.0,14.0,18.0,21.0,38.0,0.0
118.0,63.0,48.0,39.0,37.0,53.0,-6.0,22.0,9.0,34.0,0.0
102.0,46.0,26.0,36.0,37.0,62.0,5.0,26.0,22.0,34.0,0.0
69.0,22.0,18.0,33.0,32.0,66.0,12.0,24.0,31.0,56.0,0.0
37.0,35.0,19.0,15.0,19.0,55.0,25.0,26.0,20.0,39.0,0.0
33.0,49.0,20.0,2.0,-11.0,32.0,14.0,12.0,-4.0,10.0,0.0
32.0,42.0,11.0,-20.0,-57.0,10.0,6.0,0.0,-25.0,1.0,0.0
29.0,15.0,-15.0,-72.0,-124.0,-15.0,14.0,2.0,-22.0,5.0,0.0
33.0,0.0,-52.0,-118.0,-177.0,-43.0,11.0,-4.0,-24.0,7.0,0.0
35.0,6.0,-62.0,-126.0,-149.0,-55.0,0.0,-26.0,-41.0,-8.0,0.0
14.0,-1.0,-61.0,-115.0,-112.0,-60.0,-1.0,-34.0,-45.0,-22.0,0.0
18.0,-14.0,-78.0,-121.0,-90.0,-63.0,-16.0,-36.0,-36.0,5.0,0.0
-20.0,-38.0,-75.0,-78.0,-35.0,-67.0,-64.0,-66.0,-69.0,-17.0,0.0
-61.0,-44.0,-32.0,24.0,61.0,-44.0,-75.0,-84.0,-86.0,-66.0,0.0
-16.0,-16.0,-6.0,47.0,71.0,-7.0,-31.0,-41.0,-60.0,-28.0,0.0
48.0,18.0,-9.0,24.0,38.0,7.0,-17.0,-18.0,-42.0,11.0,0.0
72.0,39.0,11.0,44.0,71.0,16.0,-47.0,-13.0,-46.0,10.0,0.0
92.0,101.0,47.0,49.0,101.0,29.0,-65.0,-13.0,-40.0,28.0,0.0
112.0,164.0,60.0,47.0,105.0,62.0,-25.0,6.0,2.0,63.0,0.0
118.0,139.0,37.0,41.0,79.0,81.0,-4.0,34.0,42.0,94.0,0.0
93.0,78.0,20.0,19.0,64.0,79.0,17.0,59.0,68.0,112.0,0.0
49.0,24.0,4.0,6.0,39.0,75.0,37.0,59.0,50.0,93.0,0.0
3.0,-29.0,-4.0,-2.0,16.0,67.0,33.0,34.0,18.0,46.0,0.0
-14.0,-51.0,-17.0,12.0,16.0,46.0,26.0,0.0,-16.0,-10.0,0.0
1.0,-33.0,-29.0,45.0,19.0,7.0,-9.0,-40.0,-37.0,-24.0,0.0
-18.0,12.0,-9.0,60.0,-6.0,-52.0,-69.0,-81.0,-91.0,-71.0,0.0
-70.0,13.0,-19.0,32.0,-38.0,-82.0,-67.0,-84.0,-106.0,-98.0,0.0
-97.0,-55.0,-67.0,-23.0,-51.0,-66.0,-45.0,-59.0,-77.0,-75.0,0.0
-117.0,-142.0,-99.0,-29.0,-23.0,-25.0,-12.0,-25.0,-41.0,-30.0,0.0
-127.0,-181.0,-59.0,0.0,-1.0,-4.0,0.0,-4.0,-8.0,2.0,0.0
-112.0,-112.0,14.0,14.0,-12.0,-8.0,-2.0,-12.0,-10.0,11.0,0.0
-102.0,-45.0,54.0,26.0,6.0,-9.0,-7.0,-4.0,-5.0,5.0,0.0
-90.0,-13.0,68.0,53.0,37.0,15.0,-13.0,-1.0,3.0,1.0,0.0
-32.0,20.0,68.0,76.0,48.0,43.0,-22.0,8.0,4.0,15.0,0.0
38.0,49.0,61.0,54.0,54.0,64.0,-17.0,23.0,22.0,58.0,0.0
48.0,40.0,62.0,60.0,84.0,65.0,3.0,31.0,35.0,51.0,0.0
34.0,33.0,63.0,54.0,81.0,56.0,-9.0,20.0,23.0,31.0,0.0
4.0,35.0,62.0,35.0,48.0,46.0,-22.0,5.0,14.0,26.0,0.0
-8.0,33.0,52.0,21.0,22.0,23.0,-12.0,6.0,4.0,28.0,0.0
-22.0,14.0,33.0,1.0,-3.0,-2.0,-7.0,11.0,0.0,13.0,0.0
-21.0,19.0,26.0,-9.0,-45.0,-22.0,-5.0,2.0,-11.0,-2.0,0.0
-4.0,45.0,17.0,-23.0,-80.0,-36.0,-8.0,-11.0,-15.0,-9.0,0.0
23.0,78.0,0.0,-45.0,-106.0,-51.0,-29.0,-20.0,-29.0,-19.0,0.0
44.0,104.0,-13.0,-65.0,-116.0,-61.0,-31.0,-33.0,-37.0,-22.0,0.0
73.0,102.0,-26.0,-52.0,-88.0,-65.0,-17.0,-51.0,-44.0,-26.0,0.0
83.0,64.0,-33.0,-27.0,-13.0,-58.0,-8.0,-60.0,-57.0,-44.0,0.0
38.0,14.0,-22.0,-39.0,-34.0,-44.0,-5.0,-49.0,-20.0,-52.0,0.0
40.0,32.0,5.0,-70.0,-137.0,-24.0,31.0,-1.0,39.0,28.0,0.0
128.0,108.0,34.0,-77.0,-185.0,-3.0,66.0,35.0,80.0,104.0,0.0
199.0,112.0,25.0,-72.0,-187.0,19.0,72.0,64.0,86.0,123.0,0.0
214.0,100.0,43.0,-6.0,-98.0,43.0,53.0,79.0,76.0,122.0,0.0
219.0,78.0,53.0,61.0,37.0,54.0,54.0,77.0,116.0,173.0,0.0
223.0,83.0,28.0,72.0,129.0,47.0,43.0,41.0,134.0,188.0,0.0
140.0,83.0,24.0,48.0,95.0,37.0,-5.0,-3.0,59.0,85.0,0.0
35.0,11.0,-11.0,67.0,101.0,60.0,-33.0,-11.0,4.0,18.0,0.0
-26.0,-57.0,-71.0,85.0,185.0,76.0,-23.0,-8.0,7.0,21.0,0.0
-107.0,-19.0,-28.0,56.0,115.0,43.0,-19.0,-15.0,9.0,-2.0,0.0
-145.0,45.0,53.0,50.0,37.0,7.0,-37.0,-49.0,-42.0,-81.0,0.0
-107.0,18.0,20.0,18.0,6.0,-6.0,-43.0,-41.0,-38.0,-83.0,0.0
-135.0,-79.0,-69.0,-42.0,6.0,-18.0,-19.0,-18.0,-28.0,-65.0,0.0
-271.0,-219.0,-134.0,-85.0,2.0,-24.0,5.0,-11.0,-24.0,-71.0,0.0
-293.0,-241.0,-100.0,-71.0,-31.0,-15.0,22.0,-2.0,-24.0,-76.0,0.0
-260.0,-206.0,-47.0,-36.0,-28.0,3.0,30.0,9.0,-31.0,-73.0,0.0
-200.0,-154.0,-21.0,-30.0,-16.0,16.0,21.0,6.0,-41.0,-72.0,0.0
-147.0,-118.0,-10.0,18.0,41.0,37.0,-7.0,0.0,-43.0,-79.0,0.0
-101.0,-89.0,-9.0,82.0,71.0,35.0,-24.0,-2.0,-48.0,-65.0,0.0
-18.0,-53.0,-2.0,63.0,33.0,42.0,-20.0,19.0,-17.0,-14.0,0.0
21.0,-10.0,20.0,45.0,22.0,48.0,5.0,36.0,18.0,27.0,0.0
25.0,40.0,57.0,53.0,24.0,45.0,9.0,24.0,20.0,12.0,0.0
10.0,51.0,72.0,70.0,49.0,57.0,14.0,21.0,7.0,-22.0,0.0
11.0,37.0,77.0,62.0,64.0,64.0,10.0,18.0,-7.0,-38.0,0.0
35.0,44.0,53.0,46.0,37.0,44.0,-10.0,15.0,-26.0,-40.0,0.0
32.0,33.0,15.0,19.0,7.0,25.0,-9.0,2.0,-35.0,-34.0,0.0
30.0,26.0,-12.0,-8.0,-12.0,9.0,-12.0,0.0,-21.0,-33.0,0.0
9.0,2.0,-41.0,-42.0,-37.0,-2.0,3.0,8.0,14.0,-6.0,0.0
-63.0,-58.0,-52.0,-59.0,-46.0,-13.0,18.0,-5.0,18.0,-34.0,0.0
-97.0,-92.0,-53.0,-60.0,-51.0,-28.0,17.0,-29.0,-7.0,-48.0,0.0
-92.0,-68.0,-40.0,-65.0,-66.0,-43.0,6.0,-48.0,-20.0,-48.0,0.0
-97.0,-33.0,-9.0,-53.0,-67.0,-36.0,-20.0,-58.0,-34.0,-59.0,0.0
-66.0,-22.0,-6.0,-38.0,-67.0,-23.0,-33.0,-42.0,-26.0,-50.0,0.0
-35.0,-21.0,7.0,-19.0,-51.0,-15.0,-20.0,-39.0,-15.0,-37.0,0.0
-18.0,0.0,48.0,0.0,-30.0,-1.0,-31.0,-30.0,-6.0,-12.0,0.0
22.0,19.0,67.0,9.0,-2.0,14.0,-34.0,-20.0,8.0,9.0,0.0
57.0,65.0,71.0,0.0,16.0,38.0,-11.0,4.0,37.0,36.0,0.0
86.0,98.0,77.0,4.0,26.0,52.0,4.0,29.0,50.0,54.0,0.0
107.0,92.0,67.0,8.0,35.0,62.0,5.0,27.0,43.0,60.0,0.0
130.0,79.0,50.0,-3.0,27.0,41.0,-2.0,25.0,31.0,54.0,0.0
128.0,76.0,30.0,-24.0,0.0,17.0,-22.0,4.0,22.0,45.0,0.0
117.0,98.0,17.0,-51.0,-17.0,-3.0,-28.0,-13.0,14.0,40.0,0.0
102.0,120.0,30.0,-48.0,-19.0,-13.0,-26.0,-24.0,-10.0,18.0,0.0
74.0,101.0,28.0,-34.0,-24.0,-22.0,-24.0,-22.0,-8.0,21.0,0.0
60.0,49.0,-3.0,-38.0,-42.0,-38.0,-24.0,-30.0,-1.0,24.0,0.0
-4.0,-49.0,-32.0,-55.0,-51.0,-37.0,0.0,-37.0,2.0,-15.0,0.0
-84.0,-144.0,-74.0,-66.0,-48.0,-23.0,14.0,-30.0,-7.0,-60.0,0.0
-58.0,-121.0,-94.0,-76.0,-67.0,-42.0,-6.0,-31.0,-21.0,-77.0,0.0
-53.0,-69.0,-74.0,-79.0,-66.0,-49.0,-29.0,-31.0,-24.0,-60.0,0.0
-68.0,-18.0,-31.0,-58.0,-51.0,-43.0,-23.0,-32.0,-15.0,-31.0,0.0
-56.0,13.0,-20.0,-38.0,-24.0,-22.0,-17.0,-20.0,32.0,18.0,0.0
-4.0,30.0,-6.0,-15.0,15.0,3.0,-10.0,-11.0,58.0,36.0,0.0
54.0,66.0,18.0,16.0,60.0,31.0,-1.0,-4.0,29.0,25.0,0.0
101.0,91.0,34.0,38.0,74.0,59.0,15.0,16.0,31.0,56.0,0.0
131.0,101.0,52.0,56.0,79.0,56.0,23.0,28.0,42.0,83.0,0.0
130.0,79.0,52.0,61.0,86.0,45.0,43.0,46.0,78.0,109.0,0.0
83.0,50.0,37.0,47.0,59.0,33.0,26.0,43.0,78.0,100.0,0.0
21.0,62.0,38.0,32.0,40.0,28.0,40.0,48.0,106.0,71.0,0.0
-37.0,64.0,35.0,6.0,11.0,30.0,57.0,59.0,99.0,49.0,0.0
-89.0,47.0,36.0,-27.0,-21.0,19.0,56.0,52.0,79.0,17.0,0.0
-122.0,36.0,29.0,-32.0,-34.0,-11.0,15.0,26.0,19.0,-31.0,0.0
-133.0,3.0,7.0,-20.0,-26.0,-49.0,-50.0,-19.0,-58.0,-61.0,0.0
-94.0,-11.0,-17.0,-47.0,-48.0,-76.0,-49.0,-35.0,-52.0,-50.0,0.0
-57.0,-27.0,-38.0,-82.0,-82.0,-89.0,-43.0,-27.0,-36.0,-26.0,0.0
-20.0,-74.0,-62.0,-80.0,-82.0,-81.0,-28.0,-16.0,-22.0,-16.0,0.0
-22.0,-148.0,-74.0,-9.0,-19.0,-38.0,8.0,0.0,-20.0,-33.0,0.0
-67.0,-174.0,-64.0,51.0,36.0,5.0,32.0,9.0,-27.0,-55.0,0.0
-33.0,-108.0,-40.0,32.0,-18.0,24.0,38.0,31.0,-5.0,-50.0,0.0
50.0,-39.0,-18.0,-7.0,-72.0,37.0,63.0,56.0,17.0,-35.0,0.0
94.0,-22.0,-15.0,11.0,-29.0,57.0,70.0,65.0,28.0,-23.0,0.0
76.0,-40.0,-34.0,79.0,133.0,94.0,44.0,68.0,21.0,-19.0,0.0
69.0,-42.0,-53.0,92.0,213.0,105.0,24.0,59.0,8.0,-10.0,0.0
82.0,-19.0,-47.0,71.0,178.0,90.0,15.0,33.0,8.0,6.0,0.0
56.0,-24.0,-49.0,55.0,134.0,53.0,0.0,14.0,2.0,-6.0,0.0
1.0,-31.0,-53.0,31.0,73.0,37.0,3.0,14.0,-5.0,-36.0,0.0
-49.0,-49.0,-36.0,34.0,27.0,20.0,-13.0,5.0,-10.0,-53.0,0.0
-38.0,-38.0,-21.0,37.0,-5.0,-6.0,-39.0,-15.0,-22.0,-69.0,0.0
-31.0,-24.0,-30.0,24.0,-21.0,-27.0,-32.0,-28.0,-43.0,-68.0,0.0
-36.0,-38.0,-38.0,14.0,-43.0,-43.0,-39.0,-39.0,-52.0,-58.0,0.0
-42.0,-60.0,-39.0,0.0,-59.0,-69.0,-50.0,-55.0,-60.0,-82.0,0.0
-37.0,-49.0,-37.0,5.0,-62.0,-71.0,-18.0,-73.0,-62.0,-97.0,0.0
15.0,-6.0,-14.0,13.0,-58.0,-59.0,-15.0,-75.0,-70.0,-96.0,0.0
156.0,93.0,14.0,8.0,-63.0,-68.0,-44.0,-82.0,-100.0,-87.0,0.0
270.0,181.0,38.0,17.0,-50.0,-65.0,-43.0,-94.0,-122.0,-84.0,0.0
293.0,194.0,45.0,36.0,-10.0,-39.0,-24.0,-77.0,-102.0,-54.0,0.0
237.0,149.0,33.0,29.0,7.0,-8.0,-2.0,-24.0,-29.0,39.0,0.0
114.0,70.0,49.0,22.0,11.0,7.0,14.0,28.0,58.0,130.0,0.0
-27.0,16.0,94.0,60.0,38.0,28.0,6.0,40.0,64.0,84.0,0.0
-72.0,-1.0,101.0,76.0,50.0,40.0,12.0,33.0,42.0,26.0,0.0
-9.0,18.0,84.0,55.0,44.0,37.0,14.0,8.0,22.0,14.0,0.0
89.0,90.0,62.0,30.0,32.0,18.0,0.0,0.0,10.0,24.0,0.0
184.0,146.0,23.0,6.0,12.0,7.0,-12.0,-2.0,7.0,30.0,0.0
273.0,173.0,-4.0,-23.0,-16.0,-7.0,-21.0,-23.0,-16.0,29.0,0.0
267.0,154.0,-9.0,-39.0,-44.0,-27.0,-19.0,-56.0,-37.0,22.0,0.0
156.0,42.0,-6.0,-28.0,-40.0,-35.0,-12.0,-42.0,-27.0,3.0,0.0
-12.0,-123.0,0.0,-15.0,-32.0,-26.0,0.0,-23.0,-25.0,-36.0,0.0
-79.0,-165.0,-6.0,-40.0,-63.0,-37.0,5.0,-17.0,-34.0,-62.0,0.0
-65.0,-113.0,-25.0,-97.0,-142.0,-72.0,13.0,0.0,11.0,-8.0,0.0
-141.0,-119.0,-38.0,-132.0,-183.0,-52.0,48.0,48.0,77.0,41.0,0.0
-148.0,-79.0,-44.0,-138.0,-201.0,-27.0,66.0,63.0,98.0,62.0,0.0
-121.0,30.0,-2.0,-115.0,-215.0,-30.0,43.0,52.0,81.0,26.0,0.0
-163.0,51.0,59.0,-36.0,-140.0,0.0,52.0,65.0,104.0,9.0,0.0
-166.0,31.0,88.0,77.0,19.0,55.0,40.0,62.0,85.0,6.0,0.0
-143.0,-10.0,67.0,166.0,267.0,88.0,-5.0,14.0,4.0,-13.0,0.0
-145.0,-59.0,18.0,145.0,334.0,72.0,-29.0,-20.0,-36.0,-52.0,0.0
-113.0,-55.0,19.0,95.0,178.0,51.0,-10.0,18.0,-4.0,-47.0,0.0
-83.0,-27.0,50.0,71.0,102.0,68.0,26.0,53.0,40.0,10.0,0.0
-91.0,-79.0,21.0,74.0,116.0,72.0,44.0,70.0,67.0,33.0,0.0
-94.0,-143.0,-53.0,78.0,144.0,39.0,49.0,41.0,58.0,26.0,0.0
-24.0,-131.0,-90.0,23.0,103.0,6.0,21.0,16.0,20.0,20.0,0.0
74.0,-33.0,-74.0,-23.0,31.0,-29.0,18.0,11.0,11.0,16.0,0.0
147.0,51.0,-76.0,-68.0,-47.0,-72.0,0.0,-10.0,5.0,40.0,0.0
177.0,41.0,-118.0,-115.0,-101.0,-93.0,-22.0,-6.0,-6.0,66.0,0.0
105.0,-44.0,-136.0,-124.0,-104.0,-82.0,-16.0,-3.0,-24.0,40.0,0.0
-12.0,-69.0,-87.0,-45.0,-37.0,-59.0,-12.0,-34.0,-66.0,-37.0,0.0
-129.0,-60.0,-36.0,27.0,16.0,-68.0,-39.0,-57.0,-98.0,-75.0,0.0
-185.0,-27.0,-5.0,25.0,-31.0,-81.0,-44.0,-43.0,-71.0,-58.0,0.0
-135.0,27.0,13.0,13.0,-59.0,-60.0,-16.0,-21.0,-10.0,-28.0,0.0
-119.0,9.0,16.0,22.0,-15.0,-16.0,16.0,8.0,23.0,-5.0,0.0
-145.0,-95.0,-9.0,63.0,108.0,48.0,45.0,60.0,43.0,2.0,0.0
-109.0,-97.0,9.0,82.0,152.0,82.0,60.0,79.0,51.0,14.0,0.0
-55.0,-63.0,28.0,59.0,99.0,93.0,57.0,76.0,44.0,16.0,0.0
-15.0,-17.0,28.0,28.0,36.0,66.0,40.0,66.0,49.0,32.0,0.0
4.0,24.0,30.0,21.0,9.0,39.0,25.0,46.0,42.0,26.0,0.0
-5.0,35.0,29.0,6.0,1.0,26.0,18.0,22.0,29.0,5.0,0.0
-24.0,10.0,18.0,-15.0,4.0,6.0,10.0,4.0,3.0,-7.0,0.0
-41.0,-12.0,8.0,-27.0,-1.0,-17.0,5.0,-8.0,-37.0,-34.0,0.0
-60.0,-14.0,-5.0,-13.0,-7.0,-36.0,-4.0,-33.0,-61.0,-61.0,0.0
-58.0,-17.0,-20.0,16.0,8.0,-68.0,-39.0,-63.0,-86.0,-81.0,0.0
-20.0,-12.0,-45.0,-2.0,-35.0,-97.0,-74.0,-78.0,-86.0,-85.0,0.0
1.0,0.0,-49.0,-32.0,-73.0,-102.0,-68.0,-74.0,-74.0,-71.0,0.0
20.0,51.0,-16.0,-31.0,-70.0,-84.0,-73.0,-57.0,-58.0,-45.0,0.0
29.0,68.0,16.0,-20.0,-53.0,-49.0,-50.0,-39.0,-40.0,-14.0,0.0
33.0,46.0,25.0,-2.0,-19.0,-13.0,-3.0,-24.0,-21.0,2.0,0.0
20.0,31.0,30.0,38.0,23.0,30.0,25.0,-2.0,-10.0,-9.0,0.0
29.0,38.0,34.0,49.0,37.0,54.0,32.0,5.0,2.0,-17.0,0.0
95.0,67.0,39.0,50.0,32.0,59.0,25.0,14.0,18.0,15.0,0.0
151.0,92.0,45.0,40.0,26.0,56.0,10.0,4.0,28.0,46.0,0.0
150.0,85.0,59.0,31.0,34.0,59.0,-13.0,13.0,33.0,59.0,0.0
96.0,62.0,62.0,28.0,44.0,64.0,-12.0,27.0,35.0,59.0,0.0
43.0,45.0,45.0,23.0,36.0,46.0,-3.0,13.0,27.0,63.0,0.0
-22.0,32.0,38.0,24.0,11.0,20.0,-10.0,-10.0,11.0,34.0,0.0
-60.0,0.0,32.0,12.0,-2.0,1.0,-9.0,-31.0,-2.0,0.0,0.0
-69.0,-19.0,5.0,-13.0,-24.0,-4.0,-9.0,-43.0,-9.0,-9.0,0.0
-66.0,-19.0,-8.0,-39.0,-60.0,-17.0,-13.0,-50.0,-1.0,-10.0,0.0
-55.0,-6.0,-25.0,-59.0,-99.0,-26.0,-3.0,-51.0,-15.0,-46.0,0.0
-44.0,-3.0,-24.0,-78.0,-126.0,-35.0,16.0,-45.0,-21.0,-56.0,0.0
-24.0,12.0,-26.0,-92.0,-164.0,-58.0,22.0,-27.0,-6.0,-34.0,0.0
25.0,37.0,-31.0,-118.0,-196.0,-62.0,24.0,-1.0,27.0,8.0,0.0
48.0,28.0,-26.0,-90.0,-139.0,-40.0,20.0,-14.0,29.0,17.0,0.0
5.0,3.0,-29.0,18.0,70.0,-1.0,11.0,-34.0,-3.0,-24.0,0.0
-42.0,-16.0,-35.0,69.0,208.0,13.0,-16.0,-36.0,-24.0,-50.0,0.0
-21.0,2.0,-32.0,19.0,154.0,18.0,-22.0,-17.0,4.0,-15.0,0.0
-2.0,28.0,-12.0,-15.0,87.0,34.0,20.0,24.0,68.0,52.0,0.0
-3.0,26.0,4.0,-6.0,72.0,54.0,17.0,45.0,69.0,72.0,0.0
6.0,27.0,10.0,-4.0,71.0,70.0,16.0,48.0,64.0,66.0,0.0
11.0,33.0,11.0,-14.0,57.0,78.0,26.0,54.0,59.0,73.0,0.0
20.0,48.0,21.0,-20.0,41.0,69.0,23.0,40.0,45.0,69.0,0.0
43.0,36.0,18.0,-27.0,7.0,24.0,19.0,22.0,42.0,56.0,0.0
69.0,34.0,17.0,-42.0,-22.0,-14.0,17.0,-3.0,55.0,48.0,0.0
73.0,35.0,6.0,-52.0,-27.0,-44.0,-6.0,-26.0,10.0,16.0,0.0
-4.0,-16.0,-23.0,-10.0,2.0,-60.0,-11.0,-49.0,-10.0,-34.0,0.0
-74.0,-61.0,-43.0,16.0,19.0,-59.0,-21.0,-63.0,-30.0,-60.0,0.0
-62.0,-56.0,-51.0,-27.0,-29.0,-58.0,-41.0,-62.0,-62.0,-70.0,0.0
-29.0,-35.0,-42.0,-55.0,-60.0,-59.0,-13.0,-59.0,-61.0,-69.0,0.0
-3.0,-17.0,-32.0,-54.0,-71.0,-46.0,1.0,-38.0,-48.0,-49.0,0.0
5.0,6.0,-11.0,-25.0,-53.0,-12.0,2.0,-19.0,-28.0,-51.0,0.0
24.0,20.0,3.0,-2.0,-33.0,18.0,17.0,11.0,0.0,-25.0,0.0
53.0,42.0,16.0,9.0,-33.0,28.0,25.0,35.0,10.0,8.0,0.0
79.0,64.0,42.0,35.0,8.0,48.0,31.0,43.0,20.0,21.0,0.0
94.0,74.0,50.0,59.0,56.0,65.0,27.0,48.0,21.0,42.0,0.0
84.0,64.0,53.0,79.0,111.0,61.0,8.0,32.0,18.0,44.0,0.0
66.0,48.0,38.0,65.0,85.0,38.0,-29.0,-3.0,0.0,22.0,0.0
60.0,45.0,35.0,64.0,46.0,35.0,-32.0,4.0,1.0,25.0,0.0
59.0,45.0,41.0,53.0,28.0,36.0,-4.0,17.0,9.0,21.0,0.0
33.0,30.0,31.0,36.0,11.0,25.0,2.0,-1.0,-6.0,-3.0,0.0
19.0,24.0,11.0,16.0,-1.0,15.0,-4.0,-16.0,-8.0,-1.0,0.0
43.0,31.0,-2.0,-2.0,-20.0,-11.0,-22.0,-22.0,-23.0,-19.0,0.0
55.0,60.0,-8.0,-14.0,-41.0,-39.0,-35.0,-36.0,-47.0,-37.0,0.0
94.0,70.0,-28.0,-32.0,-58.0,-55.0,-41.0,-52.0,-75.0,-56.0,0.0
138.0,67.0,-54.0,-54.0,-72.0,-67.0,-42.0,-58.0,-91.0,-37.0,0.0
167.0,79.0,-51.0,-61.0,-86.0,-75.0,-55.0,-60.0,-81.0,-7.0,0.0
217.0,92.0,-61.0,-59.0,-75.0,-63.0,-27.0,-40.0,-39.0,24.0,0.0
296.0,133.0,-47.0,-52.0,-58.0,-40.0,-22.0,-34.0,-37.0,16.0,0.0
410.0,217.0,-18.0,-41.0,-36.0,-30.0,-41.0,-45.0,-78.0,-20.0,0.0
465.0,272.0,-3.0,-25.0,-24.0,-9.0,-32.0,-43.0,-53.0,37.0,0.0
353.0,222.0,39.0,12.0,13.0,30.0,3.0,-4.0,2.0,81.0,0.0
137.0,101.0,72.0,57.0,57.0,67.0,27.0,45.0,54.0,98.0,0.0
-7.0,33.0,76.0,53.0,55.0,79.0,60.0,86.0,120.0,145.0,0.0
-153.0,-8.0,113.0,70.0,70.0,77.0,56.0,88.0,105.0,66.0,0.0
-272.0,-155.0,74.0,65.0,58.0,76.0,55.0,98.0,110.0,59.0,0.0
-338.0,-267.0,16.0,33.0,32.0,63.0,52.0,87.0,118.0,65.0,0.0
-355.0,-251.0,10.0,18.0,24.0,46.0,30.0,66.0,83.0,14.0,0.0
-302.0,-142.0,42.0,12.0,-4.0,22.0,20.0,44.0,54.0,-11.0,0.0
-259.0,-64.0,35.0,-14.0,-41.0,-4.0,11.0,22.0,49.0,-22.0,0.0
-199.0,-47.0,-7.0,-48.0,-86.0,-27.0,-3.0,-3.0,30.0,-33.0,0.0
-161.0,-100.0,-43.0,-82.0,-105.0,-52.0,0.0,-19.0,26.0,-23.0,0.0
-102.0,-128.0,-34.0,-50.0,-88.0,-59.0,-15.0,-33.0,6.0,-18.0,0.0
-77.0,-114.0,-22.0,-27.0,-80.0,-54.0,-18.0,-33.0,2.0,-3.0,0.0
-175.0,-115.0,-11.0,-14.0,-13.0,-19.0,-5.0,-24.0,-2.0,-31.0,0.0
-204.0,-151.0,-26.0,3.0,49.0,11.0,14.0,11.0,40.0,5.0,0.0
-146.0,-125.0,-23.0,0.0,24.0,18.0,26.0,40.0,86.0,56.0,0.0
-78.0,17.0,89.0,64.0,43.0,31.0,0.0,3.0,28.0,-12.0,0.0
-9.0,125.0,178.0,122.0,64.0,52.0,6.0,-10.0,-11.0,-40.0,0.0
73.0,127.0,135.0,79.0,19.0,60.0,13.0,27.0,13.0,20.0,0.0
121.0,104.0,87.0,-2.0,-63.0,37.0,21.0,39.0,57.0,75.0,0.0
73.0,65.0,53.0,-32.0,-100.0,14.0,20.0,30.0,75.0,71.0,0.0
-16.0,73.0,79.0,-30.0,-81.0,11.0,23.0,42.0,88.0,63.0,0.0
-81.0,29.0,49.0,-17.0,-73.0,9.0,40.0,48.0,100.0,40.0,0.0
-118.0,-76.0,-7.0,7.0,-37.0,8.0,22.0,30.0,42.0,-9.0,0.0
-123.0,-161.0,-58.0,7.0,52.0,2.0,29.0,4.0,38.0,-27.0,0.0
-161.0,-184.0,-75.0,-1.0,112.0,-2.0,2.0,-30.0,-13.0,-69.0,0.0
-171.0,-148.0,-61.0,-36.0,14.0,-19.0,-9.0,-34.0,-37.0,-75.0,0.0
-160.0,-123.0,-49.0,-18.0,53.0,-22.0,-17.0,-52.0,-40.0,-68.0,0.0
-133.0,-109.0,-40.0,-14.0,72.0,-21.0,-33.0,-59.0,-60.0,-65.0,0.0
-98.0,-89.0,-29.0,-21.0,46.0,-24.0,-20.0,-35.0,-48.0,-55.0,0.0
-47.0,-54.0,-35.0,-11.0,36.0,-24.0,-10.0,-11.0,-39.0,-32.0,0.0
17.0,-23.0,-27.0,-8.0,29.0,-1.0,-1.0,3.0,-27.0,-11.0,0.0
69.0,-2.0,-18.0,20.0,69.0,21.0,-19.0,-4.0,-28.0,0.0,0.0
119.0,22.0,0.0,40.0,101.0,41.0,-27.0,8.0,-19.0,11.0,0.0
144.0,43.0,13.0,33.0,72.0,68.0,-4.0,32.0,-4.0,16.0,0.0
126.0,47.0,11.0,18.0,51.0,90.0,17.0,52.0,17.0,15.0,0.0
124.0,51.0,13.0,-1.0,29.0,82.0,16.0,64.0,27.0,40.0,0.0
112.0,36.0,-2.0,-30.0,-5.0,67.0,17.0,74.0,40.0,88.0,0.0
70.0,36.0,-23.0,-55.0,-46.0,46.0,15.0,78.0,48.0,109.0,0.0
36.0,67.0,-22.0,-43.0,-30.0,15.0,-3.0,29.0,13.0,51.0,0.0
6.0,42.0,-30.0,-33.0,12.0,-11.0,-37.0,-29.0,-42.0,-1.0,0.0
31.0,14.0,-69.0,-78.0,-52.0,-30.0,-58.0,-45.0,-53.0,-14.0,0.0
88.0,-1.0,-109.0,-114.0,-125.0,-38.0,-34.0,-40.0,-42.0,-12.0,0.0
92.0,0.0,-119.0,-119.0,-161.0,-44.0,-12.0,-34.0,-48.0,-28.0,0.0
47.0,16.0,-58.0,-48.0,-123.0,-49.0,-16.0,-39.0,-58.0,-42.0,0.0
-9.0,16.0,-1.0,62.0,-27.0,-52.0,-38.0,-53.0,-64.0,-37.0,0.0
-17.0,3.0,4.0,80.0,27.0,-56.0,-37.0,-55.0,-57.0,-41.0,0.0
7.0,9.0,-15.0,42.0,27.0,-34.0,-24.0,-42.0,-31.0,-27.0,0.0
43.0,24.0,-32.0,22.0,10.0,-11.0,-32.0,-14.0,-33.0,-12.0,0.0
61.0,58.0,-3.0,38.0,58.0,4.0,-33.0,-16.0,-40.0,-20.0,0.0
62.0,79.0,63.0,53.0,90.0,20.0,-27.0,-13.0,-35.0,-16.0,0.0
119.0,87.0,86.0,51.0,56.0,40.0,-21.0,23.0,-4.0,32.0,0.0
198.0,110.0,76.0,40.0,17.0,40.0,-17.0,42.0,41.0,88.0,0.0
168.0,95.0,50.0,27.0,9.0,48.0,4.0,40.0,41.0,85.0,0.0
96.0,33.0,24.0,41.0,55.0,65.0,21.0,32.0,26.0,45.0,0.0
24.0,-24.0,4.0,49.0,52.0,37.0,30.0,31.0,49.0,59.0,0.0
-104.0,-98.0,-21.0,24.0,0.0,20.0,35.0,38.0,84.0,51.0,0.0
-162.0,-106.0,6.0,5.0,-44.0,20.0,38.0,43.0,62.0,-30.0,0.0
-165.0,-76.0,27.0,-36.0,-113.0,-24.0,20.0,26.0,27.0,-48.0,0.0
-172.0,-78.0,14.0,-46.0,-148.0,-50.0,11.0,9.0,8.0,-53.0,0.0
-154.0,-79.0,-11.0,0.0,-69.0,-40.0,-19.0,-23.0,-24.0,-77.0,0.0
-137.0,-69.0,-17.0,16.0,34.0,-29.0,-43.0,-37.0,-30.0,-66.0,0.0
-124.0,-76.0,-34.0,3.0,76.0,-26.0,-44.0,-37.0,-48.0,-64.0,0.0
-124.0,-85.0,-42.0,37.0,58.0,-24.0,-59.0,-43.0,-61.0,-83.0,0.0
-79.0,-66.0,-26.0,64.0,40.0,-12.0,-46.0,-33.0,-39.0,-67.0,0.0
-32.0,-15.0,-3.0,48.0,32.0,4.0,-15.0,-9.0,0.0,-44.0,0.0
2.0,26.0,10.0,53.0,53.0,19.0,-20.0,8.0,13.0,-14.0,0.0
37.0,50.0,17.0,58.0,61.0,36.0,-18.0,29.0,25.0,20.0,0.0
62.0,49.0,22.0,54.0,54.0,48.0,-1.0,33.0,43.0,43.0,0.0
64.0,43.0,16.0,42.0,36.0,59.0,13.0,41.0,52.0,61.0,0.0
39.0,41.0,26.0,34.0,28.0,60.0,15.0,33.0,45.0,48.0,0.0
5.0,42.0,21.0,16.0,22.0,45.0,12.0,21.0,55.0,41.0,0.0
6.0,35.0,-6.0,-4.0,11.0,23.0,28.0,27.0,83.0,60.0,0.0
11.0,17.0,-12.0,-25.0,-15.0,10.0,17.0,17.0,57.0,45.0,0.0
5.0,45.0,2.0,-29.0,-38.0,-6.0,0.0,-6.0,8.0,5.0,0.0
15.0,78.0,-9.0,-45.0,-56.0,-38.0,12.0,-17.0,4.0,-6.0,0.0
23.0,84.0,-37.0,-55.0,-62.0,-56.0,5.0,-22.0,-24.0,-20.0,0.0
23.0,74.0,-44.0,-52.0,-65.0,-61.0,-12.0,-40.0,-20.0,-25.0,0.0
23.0,49.0,-49.0,-46.0,-61.0,-53.0,-19.0,-32.0,-26.0,-32.0,0.0
45.0,17.0,-50.0,-37.0,-63.0,-51.0,-11.0,-26.0,-55.0,-35.0,0.0
