channel0,channel1,channel2,channel3,channel4,channel5,channel6,channel7,channel8,channel9,true_locs
-82.0,-23.0,36.0,28.0,27.0,6.0,29.0,30.0,-3.0,-106.0,0.0
-92.0,-25.0,12.0,33.0,34.0,22.0,19.0,37.0,-18.0,-196.0,0.0
-78.0,-25.0,24.0,37.0,35.0,37.0,17.0,38.0,-12.0,-175.0,0.0
-54.0,-26.0,22.0,28.0,32.0,37.0,21.0,37.0,-3.0,-134.0,0.0
-42.0,-14.0,4.0,18.0,28.0,29.0,14.0,23.0,-16.0,-84.0,0.0
-35.0,-12.0,13.0,7.0,25.0,23.0,11.0,19.0,-1.0,-38.0,0.0
-17.0,-8.0,4.0,8.0,21.0,17.0,4.0,15.0,12.0,-11.0,0.0
5.0,2.0,3.0,7.0,5.0,13.0,-1.0,13.0,16.0,-9.0,0.0
-11.0,-4.0,0.0,2.0,2.0,20.0,-4.0,14.0,33.0,-15.0,0.0
-43.0,-7.0,17.0,13.0,8.0,31.0,3.0,24.0,27.0,-17.0,0.0
-44.0,4.0,18.0,19.0,9.0,31.0,3.0,16.0,8.0,-26.0,0.0
-36.0,4.0,3.0,0.0,22.0,25.0,-6.0,9.0,0.0,-12.0,0.0
-21.0,6.0,14.0,-1.0,21.0,21.0,-14.0,6.0,2.0,17.0,0.0
-21.0,7.0,11.0,-1.0,17.0,10.0,-14.0,8.0,-12.0,38.0,0.0
-16.0,12.0,12.0,6.0,8.0,0.0,-20.0,14.0,-8.0,49.0,0.0
-4.0,15.0,23.0,13.0,8.0,-5.0,-14.0,9.0,0.0,39.0,0.0
11.0,8.0,25.0,16.0,1.0,-3.0,-3.0,3.0,2.0,33.0,0.0
16.0,-8.0,10.0,3.0,0.0,-3.0,-6.0,-1.0,0.0,32.0,0.0
14.0,-20.0,0.0,-2.0,1.0,-4.0,-8.0,-12.0,-2.0,42.0,0.0
17.0,-21.0,-6.0,-9.0,2.0,-10.0,-11.0,-12.0,0.0,47.0,0.0
24.0,-21.0,-8.0,-18.0,-10.0,-14.0,-8.0,6.0,10.0,46.0,0.0
47.0,-15.0,-11.0,-17.0,-15.0,-15.0,-22.0,7.0,19.0,58.0,0.0
73.0,-5.0,-2.0,-18.0,-14.0,-15.0,-29.0,3.0,33.0,76.0,0.0
69.0,9.0,-4.0,-14.0,-11.0,-20.0,-21.0,11.0,44.0,92.0,0.0
38.0,11.0,-14.0,-24.0,-7.0,-20.0,-18.0,11.0,51.0,124.0,0.0
24.0,4.0,-11.0,-23.0,-4.0,-19.0,-22.0,-1.0,14.0,154.0,0.0
21.0,20.0,17.0,-16.0,-5.0,-22.0,-39.0,-16.0,-49.0,127.0,0.0
16.0,41.0,25.0,-7.0,5.0,-4.0,-26.0,-17.0,-63.0,59.0,0.0
-12.0,38.0,9.0,14.0,14.0,19.0,-4.0,-5.0,-47.0,-6.0,0.0
-39.0,28.0,18.0,25.0,18.0,37.0,14.0,8.0,-28.0,-59.0,0.0
-25.0,30.0,23.0,22.0,18.0,40.0,36.0,34.0,28.0,-37.0,0.0
-6.0,18.0,0.0,7.0,10.0,22.0,23.0,35.0,76.0,45.0,0.0
-6.0,10.0,-16.0,-7.0,-7.0,-6.0,1.0,16.0,62.0,102.0,0.0
-18.0,5.0,-22.0,-13.0,-5.0,-23.0,-13.0,12.0,23.0,106.0,0.0
-36.0,-16.0,-24.0,-32.0,-12.0,-24.0,-34.0,4.0,13.0,65.0,0.0
-53.0,-21.0,-10.0,-24.0,6.0,-4.0,-32.0,9.0,0.0,-36.0,0.0
-74.0,-13.0,20.0,-3.0,26.0,10.0,7.0,14.0,-22.0,-134.0,0.0
-88.0,-1.0,42.0,12.0,38.0,16.0,26.0,6.0,-55.0,-178.0,0.0
-69.0,-3.0,39.0,12.0,34.0,15.0,19.0,-11.0,-54.0,-143.0,0.0
-28.0,3.0,37.0,9.0,22.0,0.0,6.0,-10.0,-22.0,-70.0,0.0
10.0,8.0,37.0,5.0,21.0,-12.0,0.0,-7.0,2.0,-10.0,0.0
2.0,2.0,34.0,5.0,19.0,-8.0,3.0,6.0,6.0,7.0,0.0
-27.0,-4.0,33.0,13.0,22.0,-1.0,8.0,21.0,5.0,-15.0,0.0
-41.0,-5.0,29.0,16.0,21.0,6.0,8.0,21.0,-6.0,-40.0,0.0
-24.0,-14.0,26.0,20.0,18.0,6.0,19.0,19.0,-7.0,-37.0,0.0
-13.0,-10.0,26.0,23.0,10.0,14.0,13.0,14.0,-7.0,-34.0,0.0
-11.0,-1.0,22.0,17.0,5.0,18.0,10.0,21.0,-3.0,-21.0,0.0
2.0,16.0,-3.0,19.0,-1.0,16.0,4.0,15.0,3.0,-6.0,0.0
-3.0,16.0,1.0,11.0,7.0,13.0,-7.0,9.0,8.0,6.0,0.0
-6.0,9.0,6.0,3.0,5.0,7.0,-8.0,7.0,4.0,21.0,0.0
-18.0,3.0,14.0,6.0,1.0,4.0,-7.0,-5.0,6.0,5.0,0.0
-17.0,4.0,19.0,1.0,-3.0,2.0,2.0,-3.0,10.0,5.0,0.0
0.0,2.0,24.0,-17.0,-9.0,4.0,1.0,-9.0,9.0,9.0,0.0
12.0,-2.0,23.0,-30.0,-7.0,-1.0,4.0,-11.0,7.0,2.0,0.0
5.0,-8.0,14.0,-35.0,-10.0,2.0,11.0,-14.0,3.0,1.0,0.0
5.0,-15.0,3.0,-30.0,-4.0,8.0,5.0,-9.0,6.0,6.0,0.0
10.0,-13.0,13.0,-1.0,8.0,5.0,10.0,-25.0,11.0,14.0,0.0
19.0,3.0,5.0,3.0,8.0,5.0,12.0,-39.0,6.0,55.0,0.0
31.0,1.0,-20.0,-3.0,-1.0,2.0,5.0,-39.0,11.0,106.0,0.0
37.0,5.0,-7.0,-4.0,-3.0,-1.0,-11.0,-36.0,18.0,150.0,0.0
42.0,14.0,-2.0,-9.0,-11.0,-3.0,-21.0,-34.0,10.0,179.0,0.0
37.0,16.0,0.0,-4.0,-25.0,0.0,-18.0,-29.0,-7.0,103.0,0.0
7.0,-2.0,-11.0,6.0,-16.0,10.0,-15.0,-27.0,-53.0,-89.0,0.0
-14.0,-7.0,1.0,-4.0,-3.0,7.0,-6.0,-8.0,-44.0,-152.0,0.0
5.0,0.0,6.0,-15.0,-4.0,0.0,0.0,10.0,-14.0,-81.0,0.0
36.0,18.0,10.0,-22.0,-10.0,-18.0,-17.0,9.0,29.0,8.0,0.0
57.0,35.0,3.0,-29.0,-18.0,-43.0,-29.0,11.0,82.0,84.0,0.0
67.0,46.0,14.0,-29.0,-16.0,-31.0,-34.0,10.0,75.0,118.0,0.0
70.0,41.0,16.0,-28.0,-10.0,-21.0,-32.0,-7.0,45.0,85.0,0.0
59.0,42.0,16.0,-31.0,-2.0,-18.0,-27.0,-5.0,6.0,41.0,0.0
49.0,35.0,14.0,-24.0,-2.0,-12.0,-22.0,-6.0,-3.0,13.0,0.0
30.0,26.0,13.0,-14.0,5.0,-10.0,-16.0,-2.0,-10.0,-20.0,0.0
13.0,22.0,13.0,0.0,15.0,3.0,1.0,5.0,-15.0,-47.0,0.0
5.0,21.0,11.0,20.0,20.0,12.0,23.0,4.0,-39.0,-75.0,0.0
-4.0,13.0,12.0,25.0,13.0,5.0,9.0,-4.0,-60.0,-87.0,0.0
-30.0,-2.0,10.0,2.0,21.0,17.0,7.0,-4.0,-35.0,-66.0,0.0
-33.0,-4.0,6.0,-11.0,23.0,33.0,14.0,-4.0,-12.0,-38.0,0.0
-29.0,-6.0,-15.0,-8.0,12.0,33.0,27.0,3.0,-5.0,-41.0,0.0
-20.0,-13.0,-18.0,-9.0,0.0,28.0,40.0,18.0,1.0,-55.0,0.0
-12.0,-7.0,-9.0,-16.0,0.0,22.0,33.0,19.0,2.0,-37.0,0.0
-19.0,-13.0,-4.0,-25.0,0.0,13.0,23.0,11.0,-5.0,-27.0,0.0
-35.0,-22.0,9.0,-16.0,-3.0,12.0,9.0,3.0,-23.0,-56.0,0.0
-49.0,-27.0,13.0,4.0,0.0,12.0,10.0,-1.0,-30.0,-74.0,0.0
-45.0,-30.0,11.0,14.0,8.0,17.0,8.0,0.0,-28.0,-72.0,0.0
-35.0,-33.0,9.0,28.0,16.0,10.0,13.0,1.0,-28.0,-61.0,0.0
-15.0,-30.0,9.0,14.0,18.0,8.0,13.0,-1.0,-15.0,-45.0,0.0
0.0,-27.0,9.0,-1.0,15.0,3.0,15.0,-6.0,-16.0,-25.0,0.0
10.0,-24.0,7.0,5.0,7.0,-7.0,0.0,0.0,-7.0,-8.0,0.0
22.0,-7.0,6.0,3.0,6.0,-8.0,1.0,-4.0,-1.0,11.0,0.0
20.0,-14.0,-17.0,-2.0,-1.0,-13.0,3.0,2.0,8.0,26.0,0.0
20.0,-17.0,-20.0,-12.0,-6.0,-5.0,-5.0,0.0,1.0,25.0,0.0
17.0,-23.0,-1.0,-9.0,2.0,-2.0,-10.0,-2.0,0.0,11.0,0.0
7.0,-19.0,6.0,9.0,4.0,4.0,0.0,10.0,20.0,12.0,0.0
2.0,-16.0,4.0,21.0,3.0,15.0,0.0,15.0,27.0,8.0,0.0
-8.0,-19.0,4.0,5.0,6.0,10.0,-6.0,8.0,10.0,-6.0,0.0
0.0,-27.0,8.0,1.0,4.0,2.0,-5.0,5.0,24.0,18.0,0.0
-1.0,-26.0,-11.0,6.0,1.0,-2.0,-5.0,6.0,11.0,43.0,0.0
1.0,-22.0,-32.0,4.0,-4.0,-13.0,-7.0,1.0,-31.0,35.0,0.0
-3.0,-12.0,-38.0,0.0,-14.0,-22.0,-13.0,-11.0,-52.0,-11.0,0.0
1.0,-15.0,-35.0,7.0,-9.0,-18.0,-9.0,-4.0,-48.0,-44.0,0.0
11.0,-9.0,-17.0,14.0,-3.0,1.0,4.0,0.0,-42.0,-40.0,1.0
20.0,7.0,-20.0,10.0,1.0,0.0,13.0,2.0,-36.0,-30.0,1.0
18.0,8.0,-18.0,8.0,2.0,-8.0,10.0,7.0,-30.0,-10.0,1.0
12.0,9.0,-10.0,10.0,6.0,-8.0,9.0,1.0,-27.0,5.0,1.0
5.0,13.0,-14.0,15.0,8.0,-2.0,3.0,-6.0,-30.0,14.0,1.0
13.0,0.0,-15.0,22.0,8.0,-1.0,4.0,6.0,-36.0,5.0,1.0
18.0,5.0,4.0,16.0,17.0,-8.0,4.0,12.0,-30.0,-3.0,1.0
20.0,9.0,0.0,0.0,10.0,-13.0,-8.0,6.0,-21.0,-15.0,1.0
38.0,7.0,-18.0,-10.0,0.0,-21.0,-25.0,4.0,-29.0,-15.0,1.0
54.0,-3.0,-21.0,-7.0,-1.0,-34.0,-35.0,-3.0,-35.0,20.0,1.0
70.0,9.0,-31.0,-12.0,-15.0,-35.0,-40.0,-10.0,-13.0,77.0,1.0
86.0,17.0,-10.0,-13.0,-22.0,-47.0,-47.0,-15.0,-22.0,121.0,1.0
86.0,23.0,-17.0,-4.0,-18.0,-41.0,-48.0,-18.0,-21.0,125.0,1.0
47.0,17.0,-12.0,0.0,-19.0,-33.0,-49.0,-42.0,-36.0,37.0,1.0
7.0,-4.0,-10.0,0.0,-13.0,-14.0,-45.0,-39.0,-51.0,-77.0,1.0
-24.0,-10.0,-11.0,13.0,9.0,3.0,-17.0,-5.0,-25.0,-145.0,1.0
-42.0,-13.0,4.0,13.0,16.0,7.0,-10.0,16.0,27.0,-147.0,1.0
-26.0,-19.0,1.0,8.0,6.0,3.0,-10.0,38.0,86.0,-62.0,1.0
-23.0,-27.0,-21.0,5.0,-2.0,1.0,-15.0,60.0,109.0,7.0,0.0
3.0,-32.0,-33.0,-18.0,-27.0,-15.0,-27.0,50.0,128.0,93.0,0.0
36.0,-36.0,-42.0,-38.0,-43.0,-29.0,-46.0,16.0,97.0,137.0,0.0
31.0,-20.0,-28.0,-31.0,-33.0,-32.0,-47.0,-19.0,13.0,45.0,0.0
1.0,-13.0,-11.0,1.0,-10.0,-7.0,-18.0,10.0,17.0,-52.0,0.0
-32.0,-17.0,-3.0,18.0,17.0,16.0,6.0,31.0,28.0,-34.0,0.0
-53.0,-19.0,20.0,30.0,27.0,26.0,23.0,23.0,-2.0,-43.0,0.0
-58.0,-17.0,33.0,41.0,30.0,45.0,21.0,4.0,-10.0,-37.0,0.0
-64.0,-18.0,24.0,26.0,17.0,41.0,10.0,-33.0,-19.0,-20.0,0.0
-64.0,-28.0,-1.0,-4.0,-1.0,14.0,-17.0,-59.0,-68.0,-108.0,0.0
-59.0,-13.0,5.0,7.0,8.0,22.0,-14.0,-33.0,-84.0,-213.0,0.0
-45.0,-1.0,31.0,37.0,28.0,44.0,20.0,10.0,-50.0,-227.0,0.0
-45.0,-7.0,28.0,50.0,31.0,54.0,42.0,49.0,-19.0,-217.0,0.0
-64.0,-9.0,24.0,44.0,34.0,53.0,43.0,57.0,-7.0,-211.0,0.0
-74.0,-5.0,28.0,40.0,29.0,50.0,39.0,35.0,-12.0,-189.0,0.0
-66.0,-9.0,23.0,48.0,26.0,32.0,31.0,10.0,-13.0,-146.0,0.0
-36.0,-9.0,21.0,35.0,23.0,25.0,24.0,0.0,6.0,-103.0,0.0
-13.0,-3.0,21.0,18.0,12.0,24.0,24.0,4.0,28.0,-63.0,0.0
-6.0,-1.0,16.0,10.0,3.0,22.0,11.0,-1.0,-5.0,-40.0,0.0
-9.0,-4.0,7.0,8.0,8.0,20.0,-6.0,-6.0,-19.0,-20.0,0.0
-4.0,0.0,2.0,4.0,15.0,16.0,-3.0,1.0,-9.0,-12.0,0.0
-4.0,0.0,15.0,-4.0,9.0,9.0,3.0,2.0,3.0,2.0,0.0
-4.0,-2.0,-10.0,-9.0,6.0,11.0,13.0,3.0,-4.0,8.0,0.0
2.0,-5.0,-13.0,-10.0,8.0,5.0,8.0,-4.0,-6.0,8.0,0.0
9.0,0.0,-6.0,-15.0,10.0,9.0,14.0,2.0,-12.0,11.0,0.0
13.0,-4.0,-14.0,-19.0,-2.0,4.0,22.0,4.0,-2.0,13.0,0.0
20.0,-5.0,-13.0,-13.0,-1.0,1.0,16.0,-1.0,-4.0,12.0,0.0
17.0,0.0,0.0,-13.0,7.0,-6.0,10.0,-4.0,-5.0,23.0,0.0
11.0,4.0,-8.0,-9.0,7.0,-9.0,11.0,-2.0,-11.0,24.0,0.0
16.0,-8.0,-11.0,-6.0,4.0,-4.0,16.0,6.0,-10.0,26.0,0.0
19.0,-14.0,4.0,-11.0,1.0,-5.0,15.0,8.0,-1.0,38.0,0.0
28.0,0.0,-9.0,-15.0,-1.0,-11.0,10.0,2.0,8.0,52.0,0.0
40.0,0.0,-16.0,-17.0,-8.0,-7.0,-1.0,0.0,0.0,61.0,0.0
49.0,-4.0,-5.0,-13.0,-9.0,-2.0,-14.0,1.0,2.0,72.0,0.0
55.0,-5.0,7.0,-31.0,-17.0,-4.0,-14.0,4.0,14.0,76.0,0.0
48.0,5.0,-10.0,-43.0,-21.0,2.0,-16.0,16.0,13.0,85.0,0.0
44.0,4.0,-23.0,-50.0,-19.0,0.0,-29.0,14.0,24.0,141.0,0.0
55.0,-10.0,-25.0,-55.0,-16.0,-9.0,-28.0,0.0,11.0,178.0,0.0
46.0,-6.0,-8.0,-48.0,-8.0,-9.0,-28.0,-11.0,-15.0,129.0,0.0
27.0,5.0,19.0,-30.0,7.0,-6.0,-17.0,-20.0,-25.0,40.0,0.0
12.0,14.0,27.0,-21.0,15.0,2.0,0.0,-15.0,-7.0,-11.0,0.0
-3.0,13.0,26.0,-13.0,22.0,18.0,13.0,3.0,18.0,17.0,0.0
-5.0,16.0,16.0,-4.0,19.0,19.0,17.0,-1.0,21.0,41.0,0.0
10.0,10.0,-9.0,-4.0,14.0,10.0,20.0,7.0,4.0,28.0,0.0
26.0,0.0,-10.0,-11.0,0.0,2.0,17.0,17.0,19.0,20.0,0.0
26.0,-5.0,-8.0,-5.0,-1.0,12.0,-1.0,5.0,13.0,-9.0,0.0
12.0,-11.0,-19.0,20.0,2.0,8.0,6.0,6.0,7.0,-11.0,0.0
1.0,-20.0,-35.0,25.0,-7.0,-10.0,7.0,-6.0,10.0,3.0,0.0
0.0,-30.0,-31.0,28.0,-8.0,-15.0,-2.0,-15.0,-36.0,-12.0,0.0
-3.0,0.0,-23.0,37.0,6.0,-1.0,3.0,-1.0,-51.0,-48.0,0.0
-1.0,20.0,0.0,30.0,17.0,1.0,20.0,20.0,-38.0,-27.0,0.0
12.0,23.0,12.0,38.0,20.0,-7.0,33.0,22.0,2.0,15.0,0.0
20.0,14.0,-2.0,40.0,20.0,-6.0,38.0,13.0,24.0,32.0,0.0
2.0,17.0,-3.0,30.0,31.0,3.0,32.0,14.0,18.0,3.0,0.0
1.0,21.0,14.0,25.0,38.0,13.0,37.0,17.0,19.0,-11.0,0.0
10.0,12.0,3.0,20.0,37.0,19.0,34.0,24.0,2.0,-4.0,0.0
18.0,9.0,-7.0,14.0,29.0,10.0,40.0,16.0,0.0,-9.0,0.0
26.0,20.0,13.0,16.0,34.0,5.0,31.0,7.0,2.0,-24.0,0.0
15.0,14.0,24.0,30.0,43.0,13.0,31.0,6.0,-11.0,-39.0,0.0
-2.0,15.0,16.0,31.0,37.0,11.0,41.0,14.0,-15.0,-24.0,0.0
17.0,24.0,14.0,23.0,25.0,-6.0,33.0,19.0,-2.0,21.0,0.0
49.0,30.0,11.0,29.0,12.0,-14.0,23.0,9.0,6.0,66.0,0.0
62.0,23.0,-8.0,35.0,-6.0,-17.0,10.0,1.0,0.0,95.0,0.0
73.0,12.0,-2.0,34.0,-13.0,-18.0,4.0,-4.0,22.0,143.0,0.0
81.0,19.0,-14.0,12.0,-25.0,-21.0,-2.0,-1.0,48.0,179.0,0.0
79.0,26.0,-2.0,3.0,-22.0,-21.0,-4.0,-2.0,43.0,186.0,0.0
53.0,16.0,13.0,15.0,-9.0,-17.0,18.0,14.0,56.0,198.0,0.0
24.0,-7.0,13.0,25.0,-3.0,-14.0,18.0,8.0,18.0,99.0,0.0
22.0,-9.0,13.0,23.0,6.0,-11.0,18.0,-9.0,-22.0,-23.0,0.0
28.0,10.0,25.0,25.0,9.0,-11.0,18.0,-8.0,-11.0,-34.0,0.0
29.0,28.0,32.0,22.0,0.0,-12.0,15.0,-1.0,-21.0,-56.0,0.0
18.0,24.0,31.0,30.0,13.0,-13.0,17.0,-4.0,-13.0,-50.0,0.0
-25.0,7.0,20.0,38.0,22.0,0.0,22.0,0.0,-26.0,-78.0,0.0
-83.0,-13.0,19.0,31.0,26.0,15.0,28.0,1.0,-37.0,-112.0,0.0
-83.0,-17.0,17.0,26.0,28.0,26.0,40.0,-5.0,-29.0,-83.0,0.0
-61.0,-13.0,12.0,25.0,22.0,24.0,35.0,-1.0,-14.0,-58.0,0.0
-62.0,-15.0,6.0,30.0,16.0,14.0,45.0,17.0,-9.0,-56.0,0.0
-48.0,-9.0,10.0,38.0,17.0,11.0,47.0,10.0,-25.0,-51.0,0.0
-2.0,1.0,14.0,32.0,3.0,-4.0,27.0,-2.0,-8.0,0.0,0.0
50.0,8.0,12.0,17.0,-18.0,-21.0,8.0,8.0,61.0,99.0,0.0
88.0,16.0,-6.0,-8.0,-34.0,-46.0,-9.0,25.0,143.0,209.0,0.0
111.0,16.0,-37.0,-28.0,-50.0,-66.0,-27.0,22.0,218.0,327.0,0.0
79.0,7.0,-50.0,-41.0,-56.0,-85.0,-42.0,3.0,177.0,374.0,0.0
14.0,-20.0,-47.0,-38.0,-55.0,-81.0,-40.0,-15.0,54.0,165.0,0.0
-34.0,-20.0,-36.0,-12.0,-33.0,-42.0,-22.0,-13.0,-32.0,-82.0,0.0
-54.0,-7.0,-12.0,6.0,3.0,-1.0,14.0,-7.0,-61.0,-164.0,0.0
-55.0,0.0,-17.0,32.0,17.0,12.0,32.0,-18.0,-81.0,-149.0,0.0
-52.0,5.0,1.0,37.0,3.0,9.0,23.0,-33.0,-84.0,-121.0,0.0
-46.0,-3.0,10.0,23.0,2.0,0.0,17.0,-27.0,-60.0,-95.0,0.0
-49.0,-5.0,-15.0,20.0,1.0,-2.0,18.0,4.0,1.0,-72.0,0.0
-71.0,-9.0,-14.0,16.0,2.0,2.0,17.0,24.0,25.0,-84.0,0.0
-80.0,-11.0,-1.0,22.0,3.0,9.0,35.0,29.0,11.0,-88.0,0.0
-88.0,-18.0,18.0,20.0,5.0,10.0,49.0,25.0,-3.0,-66.0,0.0
-86.0,-16.0,-5.0,9.0,-10.0,12.0,40.0,23.0,-16.0,-86.0,0.0
-73.0,-4.0,0.0,0.0,-6.0,20.0,24.0,12.0,-34.0,-111.0,0.0
-50.0,11.0,9.0,21.0,2.0,18.0,14.0,5.0,-23.0,-62.0,0.0
-17.0,16.0,12.0,20.0,-1.0,22.0,15.0,9.0,25.0,35.0,0.0
-9.0,16.0,-4.0,11.0,-8.0,14.0,13.0,14.0,25.0,88.0,0.0
-14.0,0.0,-13.0,5.0,-21.0,0.0,1.0,10.0,16.0,118.0,0.0
-25.0,-25.0,-34.0,-4.0,-33.0,-10.0,-15.0,-8.0,-27.0,73.0,0.0
-35.0,-36.0,-51.0,-34.0,-44.0,-15.0,-29.0,-19.0,-70.0,-81.0,0.0
-19.0,-12.0,-26.0,-15.0,-27.0,1.0,-11.0,5.0,-53.0,-163.0,0.0
-6.0,15.0,1.0,9.0,-13.0,15.0,5.0,32.0,-29.0,-161.0,0.0
-15.0,9.0,4.0,14.0,-5.0,22.0,11.0,31.0,-33.0,-154.0,0.0
-35.0,7.0,5.0,13.0,2.0,27.0,17.0,26.0,-27.0,-126.0,0.0
-33.0,9.0,16.0,3.0,0.0,15.0,-1.0,21.0,-17.0,-87.0,0.0
-24.0,9.0,1.0,-14.0,0.0,16.0,-20.0,4.0,-11.0,-58.0,0.0
-14.0,0.0,-19.0,-28.0,0.0,15.0,-31.0,0.0,-5.0,-45.0,0.0
-5.0,-5.0,-36.0,-12.0,0.0,7.0,-19.0,8.0,3.0,-42.0,0.0
0.0,-10.0,-37.0,3.0,5.0,15.0,-25.0,7.0,6.0,-36.0,0.0
1.0,-11.0,-26.0,2.0,7.0,4.0,-25.0,0.0,-3.0,-35.0,0.0
8.0,-9.0,-13.0,0.0,9.0,5.0,-27.0,-2.0,-10.0,-24.0,0.0
5.0,2.0,-17.0,-8.0,5.0,2.0,-34.0,3.0,7.0,10.0,0.0
21.0,11.0,-16.0,-12.0,-4.0,-12.0,-51.0,5.0,31.0,22.0,0.0
34.0,10.0,-13.0,-19.0,-7.0,-26.0,-56.0,4.0,45.0,46.0,0.0
25.0,0.0,-13.0,-15.0,-22.0,-29.0,-56.0,7.0,59.0,69.0,0.0
15.0,-9.0,-29.0,-21.0,-28.0,-37.0,-47.0,6.0,52.0,77.0,0.0
-4.0,-15.0,-34.0,-43.0,-19.0,-38.0,-37.0,-4.0,4.0,44.0,0.0
-20.0,-13.0,-26.0,-51.0,-5.0,-30.0,-19.0,-12.0,-31.0,-43.0,0.0
-15.0,-7.0,-6.0,-42.0,17.0,-21.0,-12.0,-16.0,-33.0,-80.0,0.0
-18.0,0.0,-5.0,-29.0,31.0,-6.0,-3.0,-6.0,-17.0,-82.0,0.0
-25.0,9.0,2.0,-15.0,23.0,0.0,9.0,1.0,-6.0,-57.0,0.0
-24.0,14.0,1.0,-21.0,12.0,-11.0,3.0,5.0,-13.0,-20.0,0.0
-16.0,10.0,0.0,-18.0,6.0,-15.0,0.0,-3.0,-17.0,-6.0,0.0
-7.0,9.0,-8.0,-4.0,2.0,-16.0,-4.0,-11.0,-3.0,8.0,0.0
14.0,7.0,-11.0,-4.0,10.0,-14.0,-6.0,-6.0,10.0,25.0,0.0
27.0,6.0,-9.0,-14.0,6.0,-13.0,-1.0,-2.0,18.0,32.0,0.0
28.0,15.0,-20.0,-23.0,-11.0,-18.0,-11.0,-10.0,24.0,40.0,0.0
24.0,16.0,-27.0,-22.0,-15.0,-27.0,-18.0,-16.0,12.0,37.0,0.0
2.0,5.0,-18.0,-21.0,-14.0,-23.0,-16.0,-16.0,11.0,16.0,0.0
-4.0,3.0,-5.0,-21.0,-17.0,-15.0,-19.0,-15.0,11.0,9.0,0.0
0.0,9.0,-5.0,-24.0,-11.0,-22.0,-19.0,-7.0,10.0,3.0,0.0
-3.0,10.0,-2.0,-12.0,8.0,-14.0,-1.0,-6.0,-4.0,-3.0,0.0
-15.0,4.0,-10.0,-4.0,3.0,-3.0,-3.0,-16.0,6.0,-12.0,0.0
-16.0,6.0,-10.0,-2.0,-10.0,-10.0,-6.0,-13.0,26.0,8.0,0.0
0.0,5.0,-18.0,-7.0,-7.0,-14.0,0.0,-4.0,42.0,68.0,0.0
30.0,13.0,-21.0,-21.0,-9.0,-24.0,-4.0,-15.0,34.0,148.0,0.0
44.0,11.0,-23.0,-31.0,-5.0,-23.0,-7.0,-17.0,42.0,201.0,0.0
51.0,12.0,-20.0,-28.0,-8.0,-33.0,5.0,-11.0,61.0,227.0,0.0
46.0,20.0,-8.0,-22.0,-8.0,-21.0,2.0,-8.0,60.0,214.0,0.0
42.0,20.0,-1.0,-28.0,-8.0,-11.0,5.0,4.0,52.0,189.0,0.0
-1.0,-5.0,-3.0,-26.0,-1.0,-13.0,10.0,0.0,14.0,65.0,0.0
-42.0,-14.0,-8.0,-8.0,0.0,-3.0,3.0,-13.0,-49.0,-144.0,0.0
-22.0,7.0,0.0,-6.0,3.0,7.0,21.0,-15.0,-46.0,-191.0,0.0
2.0,25.0,20.0,-8.0,6.0,19.0,13.0,4.0,-39.0,-159.0,0.0
-3.0,25.0,30.0,2.0,0.0,12.0,8.0,4.0,-37.0,-124.0,0.0
5.0,14.0,9.0,7.0,0.0,-2.0,19.0,-7.0,-16.0,-60.0,0.0
-2.0,0.0,14.0,9.0,3.0,0.0,21.0,-3.0,-12.0,-40.0,0.0
-5.0,-4.0,2.0,-3.0,-7.0,8.0,28.0,9.0,-12.0,-47.0,0.0
6.0,-11.0,-2.0,-4.0,-13.0,7.0,8.0,-7.0,-8.0,-37.0,0.0
11.0,-9.0,5.0,3.0,-17.0,1.0,-3.0,-9.0,-2.0,5.0,0.0
20.0,1.0,25.0,5.0,-24.0,-14.0,-10.0,-33.0,0.0,68.0,0.0
28.0,2.0,15.0,1.0,-36.0,-34.0,-26.0,-50.0,-8.0,90.0,0.0
28.0,3.0,16.0,0.0,-42.0,-38.0,-28.0,-55.0,-4.0,90.0,0.0
20.0,0.0,30.0,11.0,-32.0,-28.0,-27.0,-51.0,5.0,59.0,0.0
4.0,1.0,25.0,17.0,-22.0,-18.0,-9.0,-38.0,-6.0,-18.0,0.0
4.0,-7.0,13.0,20.0,-9.0,-4.0,4.0,-13.0,22.0,-26.0,0.0
7.0,1.0,25.0,21.0,-8.0,1.0,9.0,3.0,26.0,-10.0,0.0
-5.0,0.0,19.0,19.0,-13.0,-5.0,9.0,-7.0,-5.0,-36.0,0.0
-39.0,-18.0,4.0,3.0,-10.0,-8.0,0.0,-18.0,-40.0,-103.0,0.0
-60.0,-23.0,23.0,-4.0,-9.0,0.0,1.0,-16.0,-30.0,-144.0,0.0
-42.0,-19.0,42.0,-4.0,1.0,15.0,15.0,4.0,-2.0,-120.0,0.0
-5.0,-4.0,38.0,-15.0,1.0,5.0,15.0,-4.0,0.0,-73.0,0.0
12.0,-6.0,35.0,-26.0,0.0,7.0,1.0,-12.0,9.0,-34.0,0.0
10.0,-12.0,15.0,-36.0,-14.0,6.0,-3.0,-13.0,0.0,-20.0,0.0
0.0,-15.0,0.0,-39.0,-26.0,1.0,10.0,-15.0,-7.0,-15.0,0.0
-8.0,-7.0,8.0,-20.0,-11.0,9.0,12.0,-14.0,-18.0,-7.0,0.0
-8.0,11.0,11.0,-3.0,-16.0,10.0,15.0,-25.0,-40.0,-24.0,0.0
6.0,8.0,0.0,0.0,-15.0,8.0,13.0,-41.0,-41.0,-24.0,0.0
17.0,-1.0,-3.0,-9.0,-7.0,-2.0,13.0,-34.0,-45.0,-12.0,0.0
26.0,-5.0,-8.0,-7.0,-8.0,-3.0,0.0,-18.0,-39.0,13.0,0.0
30.0,3.0,0.0,-5.0,-12.0,0.0,-7.0,5.0,9.0,53.0,0.0
31.0,1.0,3.0,-4.0,-20.0,-5.0,-3.0,22.0,60.0,85.0,0.0
40.0,1.0,-5.0,-12.0,-23.0,-11.0,-8.0,-2.0,61.0,112.0,0.0
59.0,13.0,7.0,-18.0,-27.0,-21.0,-8.0,-5.0,78.0,167.0,0.0
64.0,22.0,17.0,-4.0,-24.0,-16.0,-7.0,-10.0,89.0,163.0,0.0
48.0,35.0,29.0,2.0,-21.0,-3.0,-9.0,-24.0,63.0,145.0,0.0
42.0,34.0,6.0,0.0,-32.0,-2.0,-18.0,-48.0,27.0,148.0,0.0
32.0,10.0,-22.0,-14.0,-50.0,-18.0,-38.0,-48.0,3.0,139.0,0.0
34.0,-12.0,-25.0,-29.0,-51.0,-28.0,-43.0,-30.0,-19.0,95.0,0.0
41.0,1.0,2.0,-25.0,-42.0,-21.0,-16.0,-1.0,10.0,74.0,0.0
57.0,20.0,5.0,-13.0,-24.0,-22.0,-4.0,10.0,39.0,106.0,0.0
45.0,17.0,-9.0,-10.0,-12.0,-12.0,0.0,26.0,79.0,112.0,0.0
-24.0,-6.0,-20.0,-5.0,0.0,17.0,19.0,45.0,114.0,69.0,0.0
-65.0,-36.0,-29.0,-8.0,6.0,22.0,37.0,54.0,133.0,82.0,0.0
-91.0,-69.0,-43.0,-8.0,4.0,12.0,34.0,41.0,88.0,80.0,0.0
-122.0,-92.0,-51.0,-8.0,-3.0,23.0,23.0,10.0,-13.0,-33.0,0.0
-134.0,-71.0,-26.0,13.0,30.0,44.0,32.0,5.0,-87.0,-197.0,0.0
-126.0,-39.0,15.0,54.0,64.0,65.0,50.0,13.0,-97.0,-269.0,0.0
-100.0,-19.0,42.0,61.0,75.0,75.0,49.0,-2.0,-102.0,-255.0,0.0
-64.0,-12.0,39.0,47.0,66.0,67.0,30.0,-2.0,-79.0,-167.0,0.0
-41.0,-8.0,26.0,31.0,52.0,48.0,23.0,-1.0,-59.0,-108.0,0.0
-18.0,-4.0,35.0,24.0,29.0,36.0,34.0,-11.0,-44.0,-82.0,0.0
-14.0,-5.0,39.0,13.0,25.0,30.0,32.0,-8.0,-38.0,-83.0,0.0
-26.0,-8.0,27.0,12.0,26.0,32.0,41.0,14.0,-31.0,-79.0,0.0
-25.0,-11.0,0.0,7.0,13.0,34.0,31.0,20.0,-14.0,-57.0,0.0
-14.0,-9.0,-9.0,8.0,2.0,29.0,23.0,18.0,10.0,-27.0,0.0
-21.0,-5.0,-13.0,5.0,3.0,24.0,9.0,19.0,13.0,-8.0,0.0
-34.0,-7.0,-7.0,1.0,1.0,15.0,-2.0,-6.0,-12.0,-13.0,0.0
-26.0,-12.0,-4.0,-19.0,-14.0,2.0,-13.0,-31.0,-53.0,-40.0,0.0
-2.0,-7.0,-5.0,-36.0,-14.0,-4.0,-18.0,-36.0,-51.0,-37.0,0.0
21.0,9.0,12.0,-36.0,3.0,0.0,-4.0,-38.0,-35.0,-24.0,0.0
40.0,25.0,6.0,-28.0,5.0,-1.0,-3.0,-31.0,-48.0,-27.0,0.0
56.0,13.0,-1.0,-17.0,-1.0,-2.0,-16.0,-22.0,-40.0,-19.0,0.0
47.0,5.0,12.0,-26.0,-3.0,1.0,-8.0,-8.0,-2.0,4.0,0.0
37.0,8.0,21.0,-31.0,11.0,18.0,8.0,16.0,26.0,21.0,0.0
31.0,5.0,20.0,-24.0,22.0,17.0,4.0,23.0,5.0,34.0,0.0
25.0,17.0,-9.0,-13.0,12.0,15.0,-10.0,10.0,-7.0,35.0,0.0
18.0,23.0,-3.0,-14.0,0.0,16.0,-5.0,0.0,0.0,40.0,0.0
12.0,6.0,8.0,-16.0,-4.0,11.0,1.0,7.0,2.0,36.0,0.0
-1.0,10.0,0.0,-14.0,-15.0,7.0,-4.0,11.0,9.0,20.0,0.0
9.0,8.0,-4.0,-13.0,-31.0,-6.0,-9.0,12.0,15.0,22.0,0.0
21.0,-3.0,9.0,-8.0,-28.0,-8.0,-9.0,22.0,18.0,29.0,0.0
19.0,-5.0,-2.0,12.0,-18.0,-8.0,-14.0,18.0,-6.0,26.0,0.0
13.0,0.0,-7.0,18.0,-11.0,-6.0,-21.0,10.0,-18.0,20.0,0.0
34.0,2.0,-12.0,9.0,-9.0,-19.0,-32.0,-1.0,-12.0,92.0,0.0
52.0,4.0,-16.0,-9.0,-5.0,-30.0,-31.0,-2.0,30.0,167.0,0.0
60.0,-3.0,-2.0,-31.0,-7.0,-22.0,-35.0,0.0,33.0,193.0,0.0
58.0,-19.0,2.0,-26.0,-16.0,-26.0,-34.0,-10.0,16.0,199.0,0.0
44.0,-19.0,-2.0,-12.0,-32.0,-25.0,-43.0,-18.0,-17.0,114.0,0.0
32.0,-6.0,10.0,2.0,-22.0,-20.0,-41.0,-23.0,-63.0,-59.0,0.0
20.0,15.0,21.0,10.0,2.0,-6.0,-31.0,0.0,-54.0,-117.0,0.0
10.0,17.0,27.0,8.0,4.0,2.0,-10.0,29.0,-7.0,-72.0,0.0
-20.0,8.0,-4.0,13.0,2.0,20.0,1.0,36.0,9.0,-75.0,0.0
-36.0,-9.0,-29.0,0.0,-2.0,11.0,-4.0,23.0,15.0,-56.0,0.0
-25.0,-5.0,-30.0,-8.0,-5.0,8.0,-12.0,13.0,22.0,0.0,0.0
2.0,2.0,-32.0,0.0,-13.0,-5.0,-13.0,0.0,15.0,44.0,0.0
17.0,13.0,-24.0,1.0,-16.0,-1.0,-12.0,-5.0,13.0,75.0,0.0
32.0,21.0,-22.0,0.0,-19.0,-6.0,-8.0,-2.0,5.0,81.0,0.0
38.0,19.0,-12.0,1.0,-6.0,-5.0,-13.0,-2.0,13.0,75.0,0.0
28.0,10.0,-23.0,-5.0,-3.0,3.0,-15.0,-2.0,5.0,61.0,0.0
18.0,-4.0,-27.0,-14.0,5.0,-3.0,-12.0,2.0,21.0,48.0,0.0
18.0,0.0,-17.0,-13.0,3.0,-4.0,-2.0,9.0,18.0,40.0,0.0
47.0,16.0,0.0,-6.0,12.0,4.0,-1.0,5.0,1.0,67.0,0.0
82.0,32.0,21.0,3.0,5.0,1.0,-7.0,3.0,19.0,146.0,0.0
91.0,29.0,21.0,13.0,3.0,0.0,-11.0,-3.0,36.0,192.0,0.0
86.0,22.0,-11.0,-2.0,-4.0,-26.0,-33.0,-21.0,17.0,218.0,0.0
82.0,29.0,-18.0,-24.0,-16.0,-33.0,-41.0,-48.0,-38.0,113.0,0.0
40.0,23.0,-23.0,-22.0,-8.0,-14.0,-33.0,-50.0,-77.0,-107.0,0.0
-7.0,17.0,-19.0,-2.0,20.0,21.0,0.0,-1.0,-51.0,-193.0,0.0
-36.0,14.0,-8.0,23.0,36.0,46.0,19.0,28.0,-47.0,-207.0,0.0
-58.0,4.0,-13.0,13.0,35.0,54.0,28.0,29.0,-53.0,-201.0,0.0
-58.0,1.0,5.0,1.0,24.0,45.0,29.0,36.0,8.0,-156.0,0.0
-54.0,-2.0,2.0,-11.0,21.0,44.0,24.0,43.0,75.0,-107.0,0.0
-40.0,-1.0,0.0,-17.0,30.0,38.0,20.0,37.0,56.0,-72.0,0.0
-26.0,3.0,-6.0,-25.0,12.0,34.0,18.0,30.0,18.0,-65.0,0.0
-19.0,2.0,-7.0,-26.0,-1.0,25.0,13.0,23.0,7.0,-59.0,0.0
-11.0,0.0,-6.0,-27.0,-7.0,16.0,5.0,9.0,-7.0,-42.0,0.0
-7.0,4.0,20.0,-29.0,-8.0,12.0,0.0,0.0,-14.0,-29.0,0.0
7.0,3.0,11.0,-44.0,-3.0,8.0,-7.0,-2.0,4.0,-1.0,0.0
9.0,2.0,4.0,-35.0,-7.0,-5.0,-9.0,-6.0,4.0,21.0,0.0
-5.0,-2.0,7.0,-17.0,-6.0,-11.0,-15.0,-7.0,3.0,20.0,0.0
-17.0,2.0,-1.0,-17.0,0.0,-8.0,-5.0,-20.0,-5.0,-3.0,0.0
-16.0,9.0,15.0,-21.0,2.0,-7.0,2.0,-17.0,-22.0,-8.0,0.0
-8.0,1.0,8.0,-23.0,-4.0,-9.0,1.0,-11.0,-22.0,18.0,0.0
-2.0,-5.0,5.0,-8.0,-2.0,-4.0,-7.0,-1.0,-11.0,26.0,0.0
-4.0,-11.0,26.0,5.0,-4.0,-15.0,-3.0,10.0,-5.0,29.0,0.0
-2.0,-4.0,25.0,5.0,-6.0,-26.0,-1.0,6.0,-9.0,43.0,0.0
15.0,-12.0,10.0,4.0,-10.0,-30.0,8.0,6.0,-5.0,57.0,0.0
26.0,-17.0,-1.0,7.0,-9.0,-16.0,11.0,2.0,1.0,55.0,0.0
26.0,-1.0,9.0,8.0,0.0,-10.0,13.0,-3.0,-4.0,37.0,0.0
17.0,4.0,-6.0,14.0,5.0,0.0,7.0,-4.0,-15.0,34.0,0.0
-5.0,10.0,3.0,21.0,18.0,0.0,13.0,0.0,-5.0,29.0,0.0
-18.0,8.0,8.0,28.0,29.0,5.0,21.0,14.0,2.0,11.0,0.0
-17.0,4.0,-2.0,32.0,21.0,6.0,12.0,9.0,-10.0,0.0,0.0
-7.0,3.0,7.0,37.0,14.0,2.0,5.0,0.0,-9.0,-7.0,0.0
5.0,15.0,8.0,29.0,11.0,-5.0,2.0,3.0,0.0,13.0,0.0
27.0,30.0,0.0,10.0,12.0,-12.0,-5.0,9.0,5.0,17.0,0.0
34.0,42.0,11.0,11.0,21.0,-5.0,-10.0,14.0,0.0,30.0,0.0
52.0,34.0,19.0,25.0,7.0,-12.0,-9.0,8.0,12.0,40.0,0.0
48.0,32.0,-1.0,17.0,-3.0,-21.0,-18.0,-1.0,35.0,57.0,0.0
41.0,22.0,-10.0,11.0,-1.0,-23.0,-33.0,0.0,36.0,80.0,0.0
59.0,26.0,-10.0,-5.0,-14.0,-21.0,-27.0,13.0,67.0,141.0,0.0
89.0,25.0,-5.0,-37.0,-17.0,-23.0,-20.0,37.0,111.0,208.0,0.0
87.0,15.0,-18.0,-43.0,-20.0,-42.0,-31.0,42.0,114.0,248.0,0.0
63.0,-2.0,-19.0,-22.0,-42.0,-46.0,-50.0,15.0,57.0,231.0,0.0
30.0,-1.0,-28.0,-15.0,-42.0,-38.0,-61.0,-18.0,-33.0,65.0,0.0
-8.0,15.0,0.0,-2.0,-7.0,-27.0,-45.0,-1.0,-74.0,-138.0,0.0
-49.0,16.0,38.0,22.0,30.0,20.0,-1.0,44.0,-26.0,-171.0,0.0
-51.0,-2.0,15.0,38.0,25.0,39.0,11.0,50.0,0.0,-121.0,0.0
-21.0,-12.0,-4.0,27.0,4.0,17.0,-2.0,30.0,14.0,-15.0,0.0
-20.0,-10.0,0.0,14.0,4.0,8.0,-19.0,13.0,5.0,17.0,0.0
-26.0,-13.0,-8.0,18.0,6.0,13.0,-17.0,9.0,-6.0,13.0,0.0
-21.0,-8.0,9.0,27.0,12.0,15.0,-8.0,10.0,-38.0,19.0,0.0
-31.0,-10.0,30.0,27.0,20.0,16.0,-4.0,5.0,-81.0,-72.0,0.0
-63.0,-16.0,39.0,40.0,34.0,39.0,9.0,5.0,-90.0,-201.0,0.0
-82.0,-2.0,56.0,49.0,47.0,59.0,33.0,27.0,-70.0,-241.0,0.0
-75.0,16.0,46.0,52.0,41.0,47.0,31.0,33.0,-39.0,-181.0,0.0
-56.0,12.0,30.0,40.0,26.0,40.0,37.0,28.0,-18.0,-126.0,0.0
-53.0,1.0,21.0,31.0,29.0,35.0,41.0,28.0,-9.0,-76.0,0.0
-45.0,-11.0,20.0,21.0,23.0,21.0,31.0,33.0,15.0,-37.0,0.0
-24.0,0.0,20.0,3.0,19.0,13.0,21.0,19.0,11.0,-11.0,0.0
0.0,10.0,26.0,-3.0,6.0,0.0,25.0,19.0,-14.0,-4.0,0.0
7.0,18.0,26.0,-7.0,-7.0,-11.0,10.0,15.0,-7.0,9.0,0.0
22.0,18.0,19.0,-26.0,-8.0,-17.0,-1.0,12.0,5.0,27.0,0.0
28.0,17.0,10.0,-27.0,-12.0,-5.0,6.0,9.0,-4.0,29.0,0.0
20.0,19.0,12.0,-23.0,-11.0,3.0,17.0,2.0,-16.0,6.0,0.0
19.0,11.0,8.0,-20.0,-8.0,8.0,11.0,7.0,-4.0,10.0,0.0
34.0,2.0,-4.0,-26.0,-15.0,3.0,0.0,6.0,20.0,55.0,0.0
40.0,12.0,-12.0,-29.0,-23.0,-9.0,-4.0,-5.0,0.0,74.0,0.0
21.0,20.0,6.0,-17.0,-8.0,-7.0,2.0,-17.0,-34.0,40.0,0.0
-2.0,19.0,5.0,7.0,-6.0,-4.0,17.0,-12.0,-44.0,19.0,0.0
4.0,13.0,3.0,13.0,-12.0,-15.0,15.0,-4.0,-4.0,71.0,0.0
9.0,1.0,6.0,11.0,-13.0,-20.0,11.0,14.0,27.0,94.0,0.0
7.0,1.0,-5.0,-9.0,-13.0,-29.0,20.0,24.0,31.0,97.0,0.0
7.0,-1.0,-20.0,-8.0,-13.0,-15.0,26.0,10.0,29.0,88.0,0.0
5.0,-1.0,-5.0,-1.0,-6.0,-2.0,21.0,6.0,0.0,65.0,0.0
-11.0,-8.0,10.0,1.0,-1.0,3.0,20.0,-2.0,-27.0,38.0,0.0
-26.0,2.0,18.0,5.0,10.0,1.0,23.0,-10.0,-51.0,-6.0,0.0
-27.0,6.0,19.0,12.0,17.0,7.0,16.0,0.0,-46.0,-27.0,0.0
-16.0,0.0,13.0,12.0,10.0,12.0,4.0,2.0,-24.0,-7.0,0.0
-12.0,4.0,8.0,16.0,5.0,1.0,-1.0,8.0,5.0,2.0,0.0
0.0,2.0,-5.0,25.0,-1.0,-10.0,-5.0,17.0,13.0,20.0,0.0
0.0,-13.0,-14.0,18.0,-15.0,-16.0,-9.0,3.0,26.0,62.0,0.0
0.0,-24.0,-17.0,9.0,-22.0,-33.0,-28.0,-16.0,13.0,99.0,0.0
-2.0,-31.0,-10.0,-13.0,-21.0,-32.0,-26.0,-18.0,-12.0,94.0,0.0
3.0,-8.0,-23.0,-26.0,-18.0,-36.0,-15.0,-14.0,-19.0,70.0,0.0
20.0,9.0,-14.0,-17.0,-15.0,-35.0,-22.0,-15.0,-30.0,70.0,0.0
18.0,14.0,-2.0,-19.0,-8.0,-32.0,-31.0,-19.0,-44.0,71.0,0.0
-6.0,-8.0,-31.0,-29.0,-16.0,-37.0,-38.0,-31.0,-53.0,1.0,0.0
-37.0,-24.0,-28.0,-32.0,-6.0,-36.0,-44.0,-43.0,-70.0,-102.0,0.0
-33.0,-8.0,-10.0,-4.0,17.0,-15.0,-36.0,-50.0,-62.0,-112.0,0.0
-29.0,-2.0,-17.0,38.0,31.0,5.0,-21.0,-42.0,-64.0,-99.0,0.0
-28.0,-12.0,-18.0,37.0,42.0,27.0,-4.0,-20.0,-57.0,-74.0,0.0
32.0,-5.0,-27.0,25.0,21.0,12.0,-10.0,-9.0,-16.0,38.0,0.0
75.0,15.0,-15.0,7.0,3.0,-10.0,-19.0,-8.0,28.0,119.0,0.0
78.0,21.0,-24.0,-12.0,1.0,-15.0,-24.0,-17.0,45.0,168.0,0.0
65.0,13.0,-29.0,-25.0,-7.0,-17.0,-26.0,-28.0,41.0,202.0,0.0
30.0,-24.0,-27.0,-31.0,-7.0,-16.0,-19.0,-30.0,23.0,160.0,0.0
4.0,-31.0,-3.0,-12.0,12.0,-1.0,3.0,-21.0,-6.0,30.0,0.0
-26.0,-4.0,1.0,6.0,23.0,18.0,15.0,-2.0,-13.0,-10.0,0.0
-44.0,-12.0,17.0,8.0,25.0,28.0,22.0,15.0,20.0,77.0,0.0
-65.0,-37.0,-1.0,0.0,12.0,10.0,21.0,5.0,12.0,120.0,0.0
-72.0,-52.0,-33.0,-24.0,-6.0,-17.0,-1.0,-26.0,-32.0,24.0,0.0
-71.0,-40.0,-18.0,-23.0,0.0,0.0,1.0,-20.0,-62.0,-145.0,0.0
-81.0,-16.0,-5.0,3.0,11.0,17.0,13.0,9.0,-23.0,-265.0,0.0
-61.0,4.0,19.0,34.0,33.0,28.0,30.0,42.0,31.0,-240.0,0.0
-39.0,8.0,27.0,39.0,43.0,13.0,38.0,42.0,28.0,-172.0,0.0
-28.0,-1.0,-2.0,25.0,36.0,5.0,25.0,32.0,19.0,-122.0,0.0
-5.0,0.0,-12.0,19.0,25.0,5.0,1.0,10.0,7.0,-73.0,0.0
0.0,11.0,1.0,24.0,22.0,8.0,8.0,5.0,27.0,-26.0,0.0
-6.0,9.0,-8.0,16.0,20.0,7.0,29.0,25.0,76.0,-7.0,0.0
-32.0,-8.0,-4.0,14.0,17.0,17.0,33.0,32.0,87.0,-18.0,0.0
-38.0,-21.0,-1.0,11.0,21.0,14.0,25.0,16.0,52.0,-5.0,0.0
-25.0,-14.0,-16.0,6.0,16.0,11.0,10.0,6.0,11.0,-3.0,0.0
-19.0,-14.0,-15.0,3.0,26.0,14.0,6.0,-1.0,-16.0,-40.0,0.0
-20.0,-22.0,-7.0,18.0,30.0,7.0,6.0,0.0,-27.0,-65.0,0.0
-17.0,-14.0,5.0,7.0,30.0,-2.0,14.0,6.0,-24.0,-68.0,0.0
0.0,-2.0,-6.0,-8.0,17.0,4.0,18.0,10.0,-21.0,-42.0,0.0
7.0,-1.0,3.0,-17.0,7.0,0.0,13.0,10.0,-12.0,-12.0,0.0
1.0,-11.0,-4.0,-17.0,-6.0,-9.0,4.0,6.0,0.0,7.0,0.0
2.0,-18.0,-11.0,-12.0,-11.0,-13.0,2.0,-7.0,15.0,22.0,0.0
9.0,-13.0,-6.0,-4.0,-9.0,-7.0,-2.0,-7.0,24.0,45.0,0.0
13.0,-1.0,-24.0,0.0,-4.0,-9.0,0.0,-16.0,13.0,56.0,0.0
21.0,5.0,-22.0,-3.0,-1.0,-14.0,-5.0,-28.0,23.0,62.0,0.0
25.0,11.0,5.0,1.0,-9.0,-1.0,-10.0,-17.0,21.0,60.0,0.0
27.0,16.0,19.0,0.0,-13.0,2.0,-13.0,-12.0,10.0,36.0,0.0
12.0,6.0,5.0,4.0,-5.0,-1.0,-5.0,-10.0,0.0,16.0,0.0
11.0,11.0,-8.0,9.0,-3.0,3.0,-8.0,-15.0,-17.0,30.0,0.0
41.0,22.0,-10.0,5.0,-17.0,-2.0,-17.0,-27.0,-12.0,56.0,0.0
64.0,24.0,-24.0,0.0,-20.0,-8.0,-23.0,-33.0,2.0,81.0,0.0
58.0,27.0,-14.0,0.0,-16.0,-5.0,-27.0,-25.0,-4.0,76.0,0.0
20.0,24.0,5.0,-5.0,-12.0,12.0,-19.0,-22.0,-2.0,45.0,0.0
-12.0,20.0,-4.0,4.0,4.0,19.0,-13.0,-9.0,-17.0,-6.0,0.0
-22.0,11.0,3.0,-9.0,9.0,12.0,-2.0,4.0,-25.0,-19.0,0.0
-31.0,-2.0,7.0,-18.0,5.0,20.0,-2.0,6.0,-9.0,-13.0,0.0
-38.0,-10.0,-3.0,0.0,-2.0,29.0,-1.0,-3.0,15.0,-2.0,0.0
-19.0,-12.0,12.0,11.0,-5.0,18.0,0.0,-11.0,17.0,14.0,0.0
-9.0,-5.0,-3.0,8.0,-4.0,10.0,-7.0,-6.0,17.0,21.0,0.0
4.0,1.0,-17.0,1.0,-8.0,15.0,-3.0,-10.0,31.0,27.0,0.0
14.0,6.0,-18.0,6.0,-25.0,14.0,0.0,0.0,53.0,38.0,0.0
12.0,2.0,-17.0,3.0,-23.0,6.0,0.0,37.0,101.0,49.0,0.0
12.0,-7.0,-10.0,-2.0,-21.0,6.0,1.0,45.0,131.0,87.0,0.0
10.0,-6.0,-6.0,-17.0,-25.0,10.0,0.0,37.0,111.0,130.0,0.0
-3.0,-27.0,-24.0,-30.0,-25.0,-4.0,-6.0,7.0,43.0,132.0,0.0
-8.0,-31.0,-24.0,-28.0,-23.0,-16.0,-11.0,-13.0,-38.0,18.0,0.0
1.0,-14.0,-9.0,-4.0,-1.0,-7.0,-8.0,-7.0,-58.0,-100.0,0.0
1.0,-1.0,19.0,17.0,19.0,15.0,11.0,-11.0,-48.0,-107.0,0.0
4.0,3.0,34.0,31.0,33.0,23.0,19.0,-20.0,-61.0,-108.0,0.0
15.0,4.0,30.0,45.0,30.0,22.0,6.0,-17.0,-68.0,-90.0,0.0
26.0,18.0,30.0,44.0,25.0,11.0,-5.0,-12.0,-58.0,-56.0,0.0
24.0,12.0,5.0,31.0,9.0,5.0,-13.0,-16.0,-44.0,-30.0,0.0
14.0,7.0,-14.0,15.0,5.0,-3.0,-21.0,-19.0,-33.0,-16.0,0.0
13.0,0.0,-16.0,12.0,3.0,-12.0,-17.0,-10.0,-23.0,2.0,0.0
22.0,2.0,6.0,14.0,-3.0,-8.0,-3.0,2.0,-6.0,1.0,0.0
19.0,11.0,-6.0,11.0,-1.0,0.0,5.0,4.0,3.0,14.0,0.0
12.0,11.0,-7.0,14.0,1.0,1.0,0.0,4.0,7.0,21.0,0.0
25.0,2.0,-16.0,4.0,-1.0,2.0,-12.0,13.0,43.0,55.0,0.0
20.0,-11.0,-11.0,-5.0,-14.0,3.0,-2.0,13.0,43.0,43.0,0.0
7.0,-18.0,-25.0,-1.0,-15.0,-6.0,3.0,-2.0,-2.0,-44.0,0.0
12.0,-8.0,-21.0,-11.0,-11.0,-19.0,-15.0,-8.0,-19.0,-64.0,0.0
27.0,3.0,-13.0,-18.0,-14.0,-16.0,-22.0,-7.0,-10.0,-46.0,0.0
28.0,10.0,0.0,-19.0,-11.0,0.0,-10.0,-8.0,-20.0,-57.0,0.0
23.0,17.0,6.0,-7.0,6.0,6.0,7.0,-17.0,-34.0,-52.0,0.0
2.0,7.0,-3.0,2.0,7.0,0.0,9.0,-32.0,-31.0,-49.0,0.0
-8.0,-10.0,-12.0,5.0,7.0,0.0,0.0,-31.0,-32.0,-42.0,0.0
-17.0,-12.0,-4.0,0.0,11.0,-2.0,-5.0,-30.0,-63.0,-67.0,0.0
-21.0,-7.0,-8.0,-1.0,16.0,-2.0,-7.0,-34.0,-70.0,-95.0,0.0
-16.0,-15.0,-6.0,0.0,14.0,4.0,-13.0,-28.0,-58.0,-95.0,0.0
-7.0,-6.0,7.0,2.0,6.0,-12.0,-8.0,-31.0,-45.0,-70.0,0.0
1.0,6.0,2.0,0.0,2.0,-19.0,-1.0,-17.0,9.0,-12.0,0.0
-9.0,3.0,-7.0,-8.0,-6.0,-19.0,-3.0,20.0,107.0,53.0,0.0
-23.0,-5.0,-8.0,-28.0,-5.0,-5.0,-5.0,36.0,134.0,48.0,0.0
-30.0,-2.0,2.0,-43.0,-7.0,-19.0,-10.0,-2.0,55.0,-48.0,0.0
-36.0,-9.0,0.0,-48.0,0.0,-22.0,-10.0,-11.0,16.0,-106.0,0.0
-30.0,-10.0,11.0,-33.0,0.0,-19.0,4.0,-5.0,-3.0,-105.0,0.0
-29.0,-13.0,21.0,-22.0,-2.0,-14.0,9.0,2.0,-7.0,-101.0,0.0
-31.0,-9.0,8.0,-23.0,10.0,-14.0,9.0,7.0,16.0,-74.0,0.0
-16.0,-8.0,11.0,-18.0,1.0,-10.0,15.0,8.0,22.0,-50.0,0.0
10.0,-16.0,15.0,-12.0,2.0,4.0,16.0,23.0,42.0,-25.0,0.0
5.0,-6.0,0.0,-28.0,-2.0,2.0,-1.0,25.0,55.0,15.0,0.0
12.0,-7.0,0.0,-37.0,-16.0,-4.0,-14.0,12.0,62.0,52.0,0.0
2.0,-10.0,-22.0,-35.0,-15.0,-6.0,-14.0,-6.0,27.0,70.0,0.0
-28.0,-15.0,-22.0,-25.0,-3.0,1.0,0.0,-12.0,-7.0,19.0,0.0
-39.0,-12.0,-11.0,13.0,-4.0,17.0,9.0,-4.0,-15.0,-39.0,0.0
-31.0,0.0,-4.0,26.0,2.0,31.0,5.0,3.0,-26.0,-61.0,0.0
-4.0,11.0,7.0,21.0,16.0,20.0,3.0,4.0,-13.0,-51.0,0.0
16.0,17.0,15.0,16.0,5.0,19.0,-10.0,-8.0,-16.0,-27.0,0.0
24.0,13.0,18.0,14.0,-4.0,5.0,-15.0,-4.0,-8.0,4.0,0.0
32.0,5.0,-4.0,3.0,-19.0,-8.0,-14.0,2.0,16.0,25.0,0.0
32.0,0.0,-8.0,-12.0,-36.0,-23.0,-24.0,-7.0,32.0,53.0,0.0
24.0,-8.0,-11.0,-13.0,-37.0,-16.0,-24.0,0.0,50.0,94.0,0.0
12.0,-21.0,-12.0,-25.0,-37.0,-13.0,-10.0,6.0,39.0,116.0,0.0
11.0,-32.0,-13.0,-24.0,-27.0,-13.0,-17.0,-6.0,8.0,104.0,0.0
5.0,-33.0,-13.0,-5.0,-17.0,-3.0,-18.0,-7.0,-23.0,24.0,0.0
-5.0,-18.0,-7.0,1.0,-8.0,3.0,-9.0,-24.0,-50.0,-29.0,0.0
5.0,7.0,9.0,11.0,0.0,3.0,-1.0,-22.0,-59.0,-57.0,0.0
27.0,17.0,10.0,9.0,0.0,3.0,8.0,-13.0,-39.0,-56.0,0.0
22.0,5.0,3.0,-1.0,0.0,11.0,14.0,9.0,-6.0,-64.0,0.0
1.0,0.0,11.0,-5.0,4.0,31.0,14.0,14.0,-9.0,-69.0,0.0
0.0,17.0,12.0,3.0,8.0,33.0,18.0,13.0,-7.0,-74.0,0.0
-5.0,18.0,37.0,13.0,8.0,39.0,21.0,6.0,-13.0,-72.0,0.0
-14.0,9.0,44.0,16.0,11.0,30.0,12.0,-4.0,-30.0,-77.0,0.0
-24.0,2.0,39.0,9.0,7.0,32.0,5.0,-12.0,-30.0,-49.0,0.0
-17.0,-6.0,35.0,7.0,0.0,20.0,9.0,-7.0,-17.0,3.0,0.0
9.0,3.0,34.0,0.0,9.0,7.0,6.0,-6.0,-5.0,70.0,0.0
20.0,2.0,31.0,-7.0,11.0,14.0,-7.0,4.0,18.0,126.0,0.0
34.0,6.0,23.0,-5.0,-15.0,10.0,-11.0,3.0,19.0,160.0,0.0
39.0,9.0,11.0,0.0,-36.0,-3.0,-34.0,-16.0,0.0,142.0,0.0
30.0,-5.0,0.0,-11.0,-29.0,-4.0,-32.0,-27.0,-36.0,9.0,0.0
31.0,-11.0,12.0,4.0,-10.0,8.0,-11.0,-5.0,-39.0,-46.0,0.0
23.0,-4.0,-4.0,21.0,1.0,22.0,10.0,-1.0,-28.0,-29.0,0.0
20.0,11.0,2.0,27.0,3.0,27.0,18.0,-10.0,-26.0,-7.0,0.0
24.0,26.0,9.0,14.0,0.0,20.0,3.0,-7.0,-32.0,11.0,0.0
9.0,17.0,11.0,11.0,2.0,14.0,-1.0,-14.0,-35.0,-28.0,0.0
-16.0,6.0,9.0,21.0,23.0,21.0,0.0,-6.0,-4.0,-77.0,0.0
-28.0,5.0,-2.0,23.0,29.0,29.0,12.0,21.0,43.0,-80.0,0.0
-51.0,1.0,8.0,26.0,33.0,26.0,22.0,37.0,67.0,-65.0,0.0
-55.0,-10.0,17.0,14.0,34.0,24.0,18.0,31.0,55.0,-52.0,0.0
-18.0,-18.0,15.0,14.0,19.0,4.0,2.0,1.0,49.0,14.0,0.0
16.0,-23.0,-11.0,-2.0,3.0,-14.0,-24.0,-5.0,62.0,109.0,0.0
7.0,-25.0,-5.0,-18.0,10.0,-14.0,-41.0,-14.0,46.0,125.0,0.0
-14.0,-30.0,-26.0,-9.0,10.0,0.0,-33.0,-21.0,35.0,92.0,0.0
-25.0,-26.0,-26.0,-12.0,14.0,9.0,-14.0,-2.0,10.0,5.0,0.0
-40.0,-20.0,-16.0,-1.0,40.0,30.0,10.0,13.0,-8.0,-83.0,0.0
-67.0,-20.0,-21.0,-2.0,39.0,54.0,39.0,27.0,-17.0,-106.0,0.0
-69.0,-18.0,-6.0,-18.0,37.0,53.0,37.0,26.0,-18.0,-81.0,0.0
-30.0,-17.0,15.0,-26.0,21.0,32.0,25.0,19.0,-2.0,16.0,0.0
24.0,-13.0,22.0,-24.0,13.0,12.0,11.0,6.0,52.0,167.0,0.0
52.0,-12.0,26.0,-27.0,-1.0,5.0,-4.0,1.0,65.0,222.0,0.0
66.0,-25.0,-3.0,-37.0,-23.0,-19.0,-22.0,-11.0,33.0,217.0,0.0
58.0,-35.0,-9.0,-46.0,-39.0,-40.0,-50.0,-26.0,-15.0,134.0,0.0
25.0,-35.0,-5.0,-46.0,-41.0,-37.0,-58.0,-22.0,-60.0,-32.0,0.0
-5.0,-22.0,7.0,-26.0,-14.0,-6.0,-34.0,1.0,-52.0,-156.0,0.0
-20.0,-5.0,22.0,-4.0,12.0,25.0,1.0,27.0,-25.0,-175.0,0.0
-28.0,3.0,22.0,2.0,19.0,39.0,13.0,38.0,-28.0,-160.0,0.0
-20.0,-3.0,20.0,-8.0,9.0,34.0,13.0,35.0,-27.0,-86.0,0.0
-19.0,-20.0,3.0,-15.0,-1.0,19.0,8.0,22.0,-14.0,-7.0,0.0
-5.0,-32.0,-13.0,-22.0,-8.0,8.0,-6.0,7.0,-15.0,28.0,0.0
7.0,-21.0,0.0,-28.0,-14.0,4.0,-17.0,-5.0,-15.0,27.0,0.0
15.0,-11.0,2.0,-29.0,-14.0,2.0,-24.0,-15.0,-10.0,18.0,0.0
16.0,-5.0,-8.0,-21.0,-13.0,-5.0,-22.0,3.0,33.0,18.0,0.0
11.0,-3.0,-2.0,-9.0,-20.0,-3.0,-13.0,14.0,84.0,37.0,0.0
34.0,0.0,-26.0,-13.0,-33.0,-19.0,-24.0,9.0,102.0,114.0,0.0
50.0,-5.0,-28.0,-20.0,-45.0,-27.0,-32.0,-3.0,86.0,175.0,0.0
7.0,-18.0,-27.0,-32.0,-43.0,-25.0,-40.0,-15.0,4.0,98.0,0.0
-41.0,-24.0,0.0,-21.0,-21.0,-7.0,-21.0,-10.0,-55.0,-70.0,0.0
-56.0,-11.0,-4.0,10.0,-2.0,13.0,5.0,9.0,-44.0,-112.0,0.0
-65.0,1.0,8.0,35.0,19.0,27.0,12.0,19.0,-44.0,-108.0,0.0
-62.0,2.0,16.0,28.0,28.0,11.0,18.0,7.0,-34.0,-84.0,0.0
-46.0,-7.0,4.0,17.0,29.0,13.0,21.0,-1.0,-24.0,-71.0,0.0
-43.0,-13.0,-5.0,3.0,20.0,17.0,1.0,-9.0,-28.0,-97.0,0.0
-32.0,-7.0,10.0,3.0,25.0,12.0,-6.0,-11.0,-30.0,-115.0,0.0
-34.0,5.0,25.0,8.0,22.0,20.0,3.0,-9.0,-27.0,-103.0,0.0
-30.0,7.0,10.0,24.0,22.0,18.0,11.0,-4.0,-21.0,-90.0,0.0
-16.0,8.0,-3.0,26.0,19.0,13.0,4.0,3.0,-8.0,-61.0,0.0
2.0,1.0,10.0,17.0,7.0,15.0,8.0,0.0,1.0,-21.0,0.0
9.0,4.0,13.0,3.0,-7.0,15.0,-2.0,0.0,13.0,1.0,0.0
5.0,5.0,17.0,0.0,-6.0,20.0,-9.0,-5.0,11.0,34.0,0.0
1.0,-4.0,-1.0,-5.0,-6.0,17.0,1.0,-7.0,-11.0,46.0,0.0
-14.0,-6.0,13.0,-6.0,-9.0,8.0,8.0,-23.0,-48.0,8.0,0.0
-20.0,3.0,23.0,0.0,7.0,8.0,0.0,-23.0,-54.0,-32.0,0.0
-15.0,10.0,26.0,12.0,12.0,18.0,-3.0,-20.0,-66.0,-48.0,0.0
-23.0,21.0,22.0,26.0,13.0,20.0,-9.0,-36.0,-81.0,-64.0,0.0
-32.0,13.0,7.0,16.0,9.0,12.0,-11.0,-36.0,-72.0,-57.0,0.0
-25.0,0.0,8.0,5.0,-7.0,4.0,-11.0,-24.0,-36.0,-19.0,0.0
1.0,1.0,-9.0,0.0,-17.0,-4.0,-2.0,2.0,51.0,45.0,0.0
25.0,4.0,-8.0,-18.0,-20.0,-15.0,6.0,7.0,112.0,116.0,0.0
23.0,2.0,-5.0,-23.0,-24.0,-19.0,-5.0,-18.0,92.0,148.0,0.0
16.0,0.0,-17.0,-19.0,-21.0,-27.0,-28.0,-38.0,40.0,94.0,0.0
-7.0,-8.0,-13.0,-13.0,-20.0,-16.0,-36.0,-41.0,-17.0,9.0,0.0
-22.0,-13.0,-32.0,-16.0,-20.0,-19.0,-15.0,-21.0,-23.0,-52.0,0.0
-8.0,-4.0,-17.0,-13.0,-20.0,-17.0,7.0,-2.0,-3.0,-44.0,0.0
-2.0,13.0,-11.0,4.0,-4.0,4.0,15.0,8.0,-17.0,-54.0,0.0
-3.0,7.0,-4.0,5.0,-7.0,-7.0,7.0,11.0,-23.0,-51.0,0.0
16.0,-1.0,-12.0,-6.0,-17.0,-23.0,-4.0,8.0,-13.0,-6.0,0.0
36.0,-4.0,-18.0,-14.0,-20.0,-22.0,-12.0,2.0,-2.0,9.0,0.0
40.0,2.0,-16.0,-6.0,-10.0,-16.0,-7.0,10.0,8.0,10.0,0.0
12.0,3.0,-13.0,5.0,-2.0,-1.0,-1.0,20.0,34.0,0.0,0.0
-29.0,-5.0,-1.0,17.0,15.0,4.0,6.0,19.0,10.0,-42.0,0.0
-41.0,-6.0,-16.0,15.0,13.0,-1.0,10.0,17.0,2.0,-65.0,0.0
-17.0,-2.0,-6.0,6.0,9.0,-10.0,12.0,6.0,5.0,-57.0,0.0
11.0,5.0,-6.0,6.0,9.0,-12.0,21.0,18.0,2.0,-36.0,0.0
24.0,6.0,10.0,19.0,0.0,-25.0,12.0,7.0,25.0,4.0,0.0
30.0,7.0,17.0,22.0,-7.0,-40.0,-5.0,-6.0,36.0,28.0,0.0
39.0,15.0,17.0,24.0,-7.0,-47.0,-4.0,-7.0,33.0,28.0,0.0
38.0,8.0,-4.0,24.0,0.0,-39.0,7.0,-4.0,35.0,33.0,0.0
23.0,-1.0,-27.0,26.0,-1.0,-27.0,11.0,5.0,52.0,65.0,0.0
24.0,-7.0,-21.0,19.0,1.0,-25.0,9.0,17.0,67.0,106.0,0.0
21.0,-9.0,-15.0,11.0,3.0,-22.0,23.0,26.0,63.0,118.0,0.0
1.0,-17.0,-31.0,10.0,11.0,-19.0,26.0,11.0,32.0,113.0,0.0
-8.0,-8.0,-44.0,12.0,20.0,-15.0,18.0,-10.0,-18.0,14.0,0.0
-19.0,-5.0,-40.0,10.0,32.0,-3.0,26.0,-9.0,-40.0,-130.0,0.0
8.0,2.0,-20.0,3.0,14.0,-2.0,27.0,27.0,26.0,-17.0,0.0
11.0,2.0,-29.0,-3.0,-6.0,-9.0,11.0,22.0,47.0,5.0,0.0
17.0,1.0,-37.0,-10.0,-7.0,-5.0,1.0,3.0,51.0,42.0,0.0
13.0,-5.0,-38.0,-8.0,-8.0,-16.0,-5.0,-16.0,17.0,64.0,0.0
9.0,-4.0,-27.0,-17.0,-6.0,-22.0,11.0,-29.0,-22.0,31.0,0.0
16.0,10.0,-11.0,-22.0,0.0,-5.0,18.0,-34.0,-24.0,-12.0,0.0
13.0,14.0,-11.0,-7.0,7.0,5.0,23.0,-36.0,-36.0,-46.0,0.0
14.0,13.0,-9.0,9.0,5.0,15.0,22.0,-28.0,-45.0,-47.0,0.0
17.0,17.0,-7.0,24.0,4.0,14.0,17.0,-11.0,-19.0,-23.0,0.0
21.0,12.0,-8.0,12.0,-1.0,1.0,20.0,6.0,14.0,-9.0,0.0
15.0,12.0,0.0,13.0,-7.0,-2.0,22.0,24.0,31.0,6.0,0.0
5.0,12.0,12.0,22.0,-5.0,18.0,23.0,32.0,39.0,22.0,0.0
15.0,3.0,9.0,26.0,-2.0,18.0,10.0,22.0,3.0,6.0,0.0
17.0,1.0,21.0,19.0,-2.0,4.0,10.0,9.0,-22.0,-4.0,0.0
17.0,21.0,10.0,25.0,-7.0,2.0,23.0,-3.0,-20.0,-6.0,0.0
20.0,27.0,18.0,25.0,4.0,0.0,12.0,-17.0,-27.0,-4.0,0.0
20.0,34.0,40.0,25.0,11.0,15.0,0.0,-19.0,-23.0,1.0,0.0
27.0,33.0,43.0,23.0,12.0,31.0,-7.0,-27.0,-6.0,21.0,0.0
24.0,13.0,40.0,16.0,8.0,28.0,-4.0,-20.0,-1.0,15.0,0.0
13.0,9.0,27.0,10.0,2.0,19.0,7.0,-7.0,14.0,13.0,0.0
6.0,0.0,11.0,11.0,-1.0,20.0,26.0,1.0,14.0,2.0,0.0
6.0,-6.0,9.0,10.0,-12.0,20.0,32.0,-1.0,-1.0,2.0,0.0
25.0,2.0,6.0,3.0,-26.0,10.0,28.0,-4.0,9.0,13.0,0.0
30.0,0.0,-8.0,-4.0,-32.0,0.0,27.0,0.0,17.0,33.0,0.0
22.0,-12.0,-2.0,-8.0,-39.0,-20.0,17.0,-9.0,11.0,38.0,0.0
22.0,-20.0,-11.0,-2.0,-36.0,-15.0,13.0,-20.0,-7.0,52.0,0.0
30.0,-10.0,-9.0,1.0,-27.0,-6.0,13.0,-4.0,-3.0,71.0,0.0
27.0,-2.0,-3.0,-1.0,-18.0,-12.0,19.0,6.0,-8.0,76.0,0.0
30.0,-3.0,20.0,0.0,-11.0,-9.0,27.0,13.0,-17.0,54.0,0.0
24.0,-5.0,28.0,6.0,-9.0,-9.0,19.0,13.0,-9.0,22.0,0.0
9.0,-8.0,31.0,0.0,-7.0,-12.0,22.0,21.0,16.0,3.0,0.0
12.0,-11.0,0.0,3.0,-11.0,-9.0,21.0,34.0,32.0,15.0,0.0
6.0,-10.0,3.0,11.0,-3.0,-7.0,13.0,28.0,35.0,1.0,0.0
0.0,-12.0,-11.0,20.0,12.0,-14.0,28.0,17.0,27.0,-2.0,0.0
4.0,-5.0,3.0,16.0,10.0,-10.0,29.0,16.0,17.0,-14.0,0.0
-7.0,-4.0,11.0,17.0,4.0,-8.0,30.0,17.0,18.0,-9.0,0.0
2.0,-4.0,-10.0,2.0,2.0,-20.0,25.0,3.0,40.0,24.0,0.0
37.0,3.0,-6.0,-3.0,-2.0,-31.0,9.0,-9.0,39.0,83.0,0.0
33.0,14.0,-11.0,-3.0,2.0,-40.0,-6.0,-35.0,1.0,70.0,0.0
18.0,7.0,-1.0,-6.0,10.0,-42.0,-13.0,-32.0,-33.0,-6.0,0.0
26.0,7.0,-6.0,-14.0,4.0,-39.0,-11.0,-23.0,-35.0,-4.0,0.0
29.0,-4.0,-1.0,-16.0,-8.0,-35.0,-5.0,-35.0,-34.0,33.0,0.0
40.0,-5.0,-3.0,-13.0,-7.0,-29.0,8.0,-47.0,-35.0,43.0,0.0
51.0,15.0,6.0,-17.0,7.0,-35.0,0.0,-48.0,-39.0,31.0,0.0
27.0,30.0,16.0,-6.0,26.0,-25.0,5.0,-36.0,-36.0,-16.0,0.0
-25.0,24.0,0.0,13.0,41.0,-2.0,18.0,-5.0,-27.0,-71.0,0.0
-61.0,6.0,12.0,20.0,45.0,13.0,41.0,30.0,8.0,-95.0,0.0
-78.0,0.0,24.0,17.0,48.0,23.0,57.0,39.0,31.0,-81.0,0.0
-92.0,-9.0,24.0,10.0,43.0,22.0,43.0,35.0,31.0,-80.0,0.0
-94.0,-21.0,4.0,5.0,36.0,16.0,39.0,19.0,12.0,-90.0,0.0
-70.0,-23.0,-4.0,0.0,20.0,-1.0,35.0,4.0,-2.0,-62.0,0.0
-20.0,-10.0,0.0,-18.0,9.0,-11.0,7.0,-11.0,-20.0,8.0,0.0
14.0,-1.0,-12.0,-22.0,-1.0,-12.0,-9.0,-20.0,-23.0,85.0,0.0
17.0,8.0,-4.0,-25.0,-13.0,-19.0,-8.0,-18.0,-17.0,106.0,0.0
15.0,0.0,-13.0,-18.0,-16.0,-29.0,-2.0,-5.0,-26.0,110.0,0.0
13.0,-12.0,-13.0,-22.0,-19.0,-37.0,0.0,-2.0,-40.0,77.0,0.0
-26.0,-13.0,-16.0,-2.0,-2.0,-24.0,10.0,6.0,-64.0,-51.0,0.0
-47.0,-8.0,8.0,17.0,26.0,5.0,37.0,36.0,-44.0,-116.0,0.0
-15.0,6.0,17.0,25.0,38.0,4.0,33.0,52.0,47.0,-21.0,0.0
30.0,11.0,7.0,15.0,13.0,-12.0,33.0,76.0,187.0,154.0,0.0
71.0,14.0,-8.0,-9.0,-21.0,-28.0,6.0,71.0,233.0,357.0,0.0
84.0,12.0,-25.0,-43.0,-40.0,-46.0,-33.0,20.0,164.0,483.0,0.0
45.0,-21.0,-41.0,-83.0,-55.0,-75.0,-55.0,-48.0,36.0,391.0,0.0
8.0,-33.0,-39.0,-86.0,-52.0,-71.0,-57.0,-65.0,-83.0,45.0,0.0
-13.0,-8.0,-7.0,-34.0,-15.0,-29.0,-22.0,-28.0,-111.0,-242.0,0.0
-35.0,11.0,23.0,11.0,31.0,20.0,32.0,25.0,-86.0,-327.0,0.0
-46.0,28.0,14.0,31.0,56.0,51.0,67.0,56.0,-61.0,-306.0,0.0
-36.0,23.0,13.0,40.0,47.0,51.0,60.0,52.0,-60.0,-226.0,0.0
-20.0,8.0,18.0,40.0,33.0,21.0,41.0,24.0,-48.0,-120.0,0.0
-15.0,-8.0,4.0,13.0,22.0,3.0,32.0,-4.0,-48.0,-91.0,0.0
-11.0,0.0,-1.0,10.0,20.0,9.0,12.0,-8.0,-53.0,-108.0,0.0
-27.0,14.0,24.0,22.0,36.0,25.0,19.0,-9.0,-52.0,-142.0,0.0
-38.0,0.0,25.0,19.0,39.0,29.0,29.0,4.0,-31.0,-141.0,0.0
-32.0,-15.0,0.0,14.0,15.0,27.0,22.0,28.0,24.0,-90.0,0.0
-23.0,-22.0,-26.0,10.0,2.0,9.0,12.0,34.0,55.0,-33.0,0.0
-30.0,-13.0,-24.0,17.0,10.0,8.0,13.0,20.0,15.0,-17.0,0.0
-21.0,7.0,7.0,16.0,23.0,14.0,18.0,17.0,-7.0,-36.0,0.0
-9.0,10.0,16.0,11.0,22.0,8.0,17.0,25.0,19.0,-24.0,0.0
1.0,3.0,8.0,11.0,25.0,2.0,28.0,29.0,29.0,9.0,0.0
3.0,14.0,11.0,12.0,29.0,-3.0,35.0,21.0,25.0,8.0,0.0
10.0,23.0,4.0,18.0,27.0,-8.0,28.0,2.0,18.0,5.0,0.0
10.0,31.0,-9.0,12.0,25.0,-15.0,17.0,-12.0,14.0,30.0,0.0
0.0,18.0,7.0,-5.0,10.0,-14.0,28.0,6.0,51.0,101.0,0.0
-10.0,10.0,21.0,-11.0,2.0,-2.0,33.0,12.0,70.0,131.0,0.0
-7.0,5.0,15.0,-19.0,3.0,-3.0,18.0,5.0,46.0,157.0,0.0
12.0,7.0,-7.0,-25.0,-5.0,-16.0,6.0,-15.0,20.0,126.0,0.0
9.0,-2.0,-12.0,-16.0,1.0,-22.0,0.0,-23.0,-14.0,-38.0,0.0
10.0,-2.0,-6.0,-12.0,-1.0,-12.0,0.0,-7.0,-1.0,-93.0,0.0
15.0,0.0,11.0,-23.0,3.0,-3.0,3.0,7.0,23.0,-33.0,0.0
22.0,7.0,19.0,-21.0,0.0,-3.0,10.0,6.0,16.0,2.0,0.0
20.0,4.0,16.0,-19.0,3.0,8.0,-3.0,-6.0,29.0,13.0,0.0
4.0,0.0,7.0,-30.0,9.0,12.0,2.0,12.0,63.0,17.0,0.0
-4.0,8.0,20.0,-18.0,13.0,5.0,2.0,17.0,51.0,0.0,0.0
-20.0,0.0,23.0,-3.0,22.0,0.0,2.0,12.0,22.0,-8.0,0.0
-18.0,3.0,26.0,6.0,16.0,8.0,-5.0,0.0,-8.0,24.0,0.0
0.0,20.0,23.0,7.0,6.0,4.0,-12.0,-6.0,-30.0,37.0,0.0
30.0,18.0,24.0,-2.0,8.0,6.0,-7.0,6.0,3.0,57.0,0.0
33.0,6.0,29.0,-17.0,0.0,3.0,5.0,15.0,40.0,93.0,0.0
15.0,3.0,28.0,-22.0,-3.0,3.0,-4.0,5.0,28.0,93.0,0.0
-4.0,0.0,20.0,-27.0,-3.0,6.0,-6.0,-11.0,-6.0,72.0,0.0
-15.0,3.0,22.0,-29.0,0.0,11.0,-6.0,-16.0,-33.0,13.0,0.0
-20.0,2.0,26.0,-10.0,6.0,10.0,-9.0,-6.0,-33.0,-3.0,0.0
-20.0,-2.0,25.0,-5.0,4.0,13.0,-6.0,-2.0,-30.0,5.0,0.0
-16.0,1.0,17.0,5.0,5.0,19.0,5.0,8.0,-14.0,2.0,0.0
-17.0,1.0,10.0,0.0,12.0,15.0,20.0,11.0,-4.0,-7.0,0.0
-24.0,5.0,4.0,-8.0,12.0,18.0,12.0,13.0,-13.0,-8.0,0.0
-16.0,7.0,15.0,-14.0,7.0,17.0,15.0,20.0,-17.0,-3.0,0.0
-16.0,6.0,20.0,9.0,6.0,8.0,8.0,15.0,-15.0,0.0,0.0
-21.0,3.0,19.0,5.0,-9.0,2.0,0.0,9.0,-7.0,1.0,0.0
-11.0,6.0,19.0,-1.0,-15.0,-2.0,-1.0,8.0,-8.0,0.0,0.0
3.0,9.0,22.0,-2.0,-18.0,-1.0,-1.0,10.0,11.0,18.0,0.0
5.0,11.0,19.0,3.0,-12.0,-3.0,0.0,5.0,14.0,26.0,0.0
-1.0,4.0,14.0,0.0,-10.0,-5.0,-7.0,-9.0,9.0,12.0,0.0
-6.0,3.0,1.0,-9.0,-14.0,-5.0,-9.0,-7.0,11.0,7.0,0.0
7.0,2.0,-2.0,0.0,-6.0,-5.0,-6.0,-11.0,-3.0,0.0,0.0
17.0,16.0,-2.0,21.0,3.0,2.0,-4.0,-8.0,-19.0,7.0,0.0
12.0,23.0,-5.0,17.0,8.0,3.0,-13.0,-17.0,-8.0,9.0,0.0
8.0,20.0,-2.0,0.0,3.0,-15.0,-36.0,-25.0,-12.0,9.0,0.0
10.0,18.0,-2.0,0.0,-3.0,-15.0,-38.0,-10.0,-30.0,10.0,0.0
13.0,17.0,7.0,1.0,-9.0,-16.0,-30.0,-9.0,-39.0,16.0,0.0
17.0,8.0,9.0,-4.0,-6.0,-22.0,-28.0,-16.0,-30.0,18.0,0.0
5.0,14.0,7.0,-12.0,1.0,-28.0,-17.0,-11.0,-14.0,8.0,0.0
3.0,22.0,6.0,-3.0,-2.0,-22.0,-15.0,-8.0,-17.0,11.0,0.0
1.0,17.0,6.0,0.0,0.0,-17.0,-16.0,3.0,-11.0,19.0,0.0
6.0,13.0,5.0,-14.0,2.0,-12.0,-22.0,10.0,10.0,25.0,0.0
4.0,10.0,-10.0,-34.0,8.0,-12.0,-29.0,4.0,22.0,43.0,0.0
-9.0,-5.0,-26.0,-32.0,14.0,-8.0,-28.0,-3.0,22.0,41.0,0.0
-15.0,-11.0,-12.0,-24.0,20.0,-13.0,-7.0,1.0,4.0,19.0,0.0
0.0,-9.0,0.0,-24.0,17.0,-7.0,-5.0,-5.0,-16.0,20.0,0.0
22.0,1.0,7.0,-24.0,0.0,-16.0,-13.0,2.0,-19.0,29.0,0.0
28.0,6.0,2.0,-29.0,-6.0,-34.0,-22.0,-6.0,-21.0,35.0,0.0
43.0,6.0,0.0,-44.0,-14.0,-34.0,-24.0,-11.0,-28.0,53.0,0.0
48.0,7.0,-4.0,-30.0,-20.0,-31.0,-29.0,-16.0,-30.0,74.0,0.0
36.0,4.0,-21.0,-9.0,-21.0,-19.0,-21.0,-12.0,-42.0,60.0,0.0
18.0,-3.0,-6.0,-1.0,-4.0,-23.0,-13.0,-22.0,-46.0,18.0,0.0
12.0,5.0,7.0,7.0,7.0,-18.0,-9.0,-28.0,-38.0,-9.0,0.0
12.0,7.0,5.0,7.0,12.0,-14.0,4.0,0.0,-11.0,-9.0,0.0
-3.0,3.0,-9.0,3.0,13.0,-6.0,25.0,24.0,27.0,19.0,0.0
-26.0,-10.0,-19.0,18.0,16.0,3.0,35.0,25.0,34.0,15.0,0.0
-20.0,-16.0,-18.0,12.0,5.0,-5.0,16.0,18.0,19.0,10.0,0.0
-12.0,-11.0,-3.0,6.0,-12.0,-23.0,-8.0,-3.0,-6.0,18.0,0.0
-20.0,-12.0,5.0,1.0,-9.0,-32.0,-8.0,-2.0,2.0,46.0,0.0
-38.0,-16.0,11.0,2.0,-5.0,-24.0,5.0,1.0,9.0,64.0,0.0
-53.0,-23.0,12.0,17.0,2.0,-20.0,6.0,0.0,-15.0,51.0,0.0
-50.0,-15.0,9.0,9.0,1.0,-22.0,-20.0,-17.0,-46.0,28.0,0.0
-24.0,-2.0,5.0,-8.0,1.0,-20.0,-15.0,-4.0,-33.0,19.0,0.0
-22.0,-5.0,4.0,-18.0,3.0,-18.0,6.0,11.0,5.0,25.0,0.0
-9.0,10.0,10.0,-21.0,0.0,-23.0,-8.0,12.0,-11.0,25.0,0.0
7.0,18.0,9.0,-31.0,-9.0,-28.0,-19.0,10.0,-26.0,28.0,0.0
19.0,14.0,8.0,-28.0,-16.0,-28.0,-17.0,6.0,-16.0,75.0,0.0
42.0,41.0,10.0,-8.0,-22.0,-30.0,-17.0,-2.0,26.0,102.0,0.0
38.0,49.0,12.0,-20.0,-11.0,-28.0,-18.0,10.0,47.0,131.0,0.0
2.0,16.0,5.0,-35.0,-20.0,-39.0,-29.0,3.0,57.0,196.0,0.0
-32.0,-28.0,-4.0,-13.0,-24.0,-47.0,-22.0,-2.0,31.0,191.0,0.0
-50.0,-39.0,-5.0,-6.0,-29.0,-36.0,-5.0,2.0,-50.0,52.0,0.0
-48.0,-31.0,6.0,4.0,-12.0,-8.0,9.0,2.0,-68.0,-78.0,0.0
-33.0,-10.0,6.0,21.0,-4.0,2.0,8.0,-4.0,-71.0,-135.0,0.0
-19.0,-1.0,5.0,39.0,8.0,9.0,5.0,-23.0,-98.0,-144.0,0.0
2.0,-2.0,0.0,40.0,13.0,16.0,1.0,-23.0,-98.0,-88.0,0.0
-9.0,-21.0,-27.0,16.0,8.0,16.0,-17.0,-36.0,-94.0,-101.0,0.0
-26.0,-22.0,-19.0,4.0,-4.0,6.0,-16.0,-51.0,-114.0,-229.0,0.0
-8.0,3.0,6.0,24.0,8.0,2.0,2.0,-31.0,-108.0,-270.0,0.0
-5.0,8.0,13.0,37.0,7.0,24.0,22.0,-5.0,-49.0,-200.0,0.0
-23.0,3.0,15.0,44.0,12.0,48.0,35.0,31.0,2.0,-159.0,0.0
-31.0,5.0,12.0,36.0,14.0,46.0,25.0,37.0,-1.0,-128.0,0.0
-20.0,14.0,0.0,33.0,10.0,27.0,10.0,25.0,-15.0,-97.0,0.0
-18.0,16.0,-1.0,11.0,0.0,15.0,-6.0,2.0,-37.0,-73.0,0.0
-19.0,18.0,4.0,6.0,-13.0,19.0,0.0,-8.0,-59.0,-84.0,0.0
-8.0,27.0,7.0,14.0,-13.0,22.0,12.0,16.0,-41.0,-76.0,0.0
-1.0,31.0,5.0,9.0,-17.0,26.0,19.0,23.0,-13.0,-53.0,0.0
-23.0,23.0,3.0,22.0,-15.0,27.0,2.0,2.0,-9.0,-67.0,0.0
-45.0,4.0,1.0,24.0,-8.0,30.0,-1.0,-9.0,-23.0,-90.0,0.0
-54.0,-4.0,-4.0,14.0,-3.0,30.0,8.0,0.0,-10.0,-71.0,0.0
-40.0,-11.0,-2.0,4.0,-20.0,12.0,-5.0,9.0,5.0,-31.0,0.0
-9.0,-2.0,-15.0,-7.0,-25.0,9.0,-17.0,17.0,19.0,-7.0,0.0
10.0,5.0,-30.0,-17.0,-27.0,10.0,-12.0,7.0,29.0,26.0,0.0
24.0,-4.0,-14.0,-17.0,-30.0,-9.0,-16.0,-19.0,27.0,55.0,0.0
21.0,-5.0,-2.0,-10.0,-24.0,6.0,-28.0,-24.0,-2.0,30.0,0.0
6.0,-1.0,-20.0,-11.0,-10.0,9.0,-23.0,-16.0,-40.0,-34.0,0.0
-1.0,0.0,-28.0,-2.0,-9.0,12.0,-13.0,0.0,-21.0,-39.0,0.0
11.0,4.0,-6.0,1.0,-9.0,8.0,-9.0,6.0,4.0,-12.0,0.0
13.0,15.0,1.0,-2.0,-11.0,6.0,-9.0,8.0,12.0,17.0,0.0
13.0,22.0,6.0,-4.0,-23.0,6.0,-7.0,10.0,23.0,37.0,0.0
18.0,17.0,8.0,-1.0,-19.0,4.0,-6.0,6.0,22.0,30.0,0.0
17.0,7.0,-2.0,1.0,-7.0,0.0,-11.0,3.0,29.0,21.0,0.0
4.0,10.0,3.0,-8.0,9.0,7.0,-6.0,10.0,21.0,24.0,0.0
-1.0,-3.0,14.0,-17.0,0.0,1.0,-1.0,1.0,16.0,15.0,0.0
-11.0,-12.0,8.0,-10.0,-3.0,1.0,9.0,5.0,7.0,8.0,0.0
-8.0,1.0,16.0,-4.0,0.0,-3.0,11.0,1.0,-4.0,-3.0,0.0
-2.0,4.0,20.0,-8.0,0.0,0.0,0.0,-4.0,6.0,33.0,0.0
25.0,3.0,5.0,-19.0,-3.0,-1.0,-12.0,6.0,45.0,137.0,0.0
57.0,1.0,-11.0,-25.0,-2.0,-21.0,-30.0,6.0,84.0,228.0,0.0
60.0,0.0,-28.0,-30.0,-14.0,-28.0,-50.0,-9.0,123.0,299.0,0.0
44.0,-8.0,-32.0,-45.0,-31.0,-36.0,-63.0,-16.0,143.0,259.0,0.0
11.0,-21.0,-40.0,-38.0,-20.0,-27.0,-62.0,-21.0,85.0,67.0,0.0
-7.0,-10.0,-15.0,-26.0,1.0,-4.0,-33.0,-10.0,22.0,-73.0,0.0
-8.0,-3.0,0.0,-12.0,13.0,6.0,-6.0,-9.0,21.0,-119.0,0.0
-16.0,0.0,16.0,11.0,24.0,7.0,-3.0,-6.0,0.0,-125.0,0.0
-18.0,2.0,17.0,15.0,20.0,-9.0,-6.0,-9.0,-34.0,-79.0,0.0
-4.0,-4.0,9.0,5.0,13.0,-6.0,-4.0,-25.0,-55.0,-66.0,0.0
22.0,5.0,15.0,-13.0,9.0,-6.0,-22.0,-24.0,-53.0,-69.0,0.0
44.0,14.0,11.0,-14.0,12.0,-4.0,-26.0,-23.0,-37.0,-39.0,0.0
49.0,17.0,7.0,-8.0,8.0,0.0,-17.0,-10.0,-28.0,-32.0,0.0
39.0,10.0,6.0,6.0,5.0,0.0,-10.0,4.0,-39.0,-35.0,0.0
17.0,0.0,0.0,27.0,7.0,6.0,-7.0,6.0,-43.0,-54.0,0.0
13.0,5.0,0.0,27.0,8.0,9.0,-8.0,-11.0,-48.0,-69.0,0.0
23.0,28.0,8.0,30.0,13.0,3.0,-7.0,-23.0,-43.0,-51.0,0.0
7.0,31.0,8.0,31.0,12.0,-8.0,-4.0,-3.0,-15.0,-40.0,0.0
-28.0,14.0,-15.0,34.0,19.0,0.0,10.0,24.0,10.0,-30.0,0.0
-56.0,-10.0,-25.0,43.0,19.0,8.0,17.0,30.0,16.0,-25.0,0.0
-55.0,-12.0,-29.0,45.0,14.0,7.0,10.0,42.0,28.0,3.0,0.0
-61.0,-30.0,-33.0,29.0,12.0,15.0,21.0,59.0,41.0,26.0,0.0
-49.0,-39.0,-14.0,11.0,20.0,22.0,15.0,55.0,48.0,29.0,0.0
-8.0,-26.0,-13.0,-5.0,15.0,10.0,-2.0,39.0,52.0,50.0,0.0
14.0,-15.0,-21.0,-14.0,6.0,5.0,-6.0,20.0,22.0,67.0,0.0
6.0,-9.0,-9.0,-8.0,14.0,2.0,-4.0,12.0,-5.0,38.0,0.0
1.0,-6.0,-1.0,-2.0,22.0,14.0,0.0,1.0,-6.0,8.0,0.0
5.0,2.0,-11.0,8.0,27.0,22.0,1.0,-6.0,-19.0,-8.0,0.0
9.0,15.0,-14.0,17.0,29.0,30.0,5.0,-6.0,-28.0,-50.0,0.0
9.0,20.0,11.0,30.0,29.0,31.0,5.0,-3.0,-16.0,-84.0,0.0
12.0,27.0,19.0,46.0,24.0,25.0,2.0,-4.0,0.0,-73.0,0.0
21.0,22.0,-4.0,33.0,14.0,19.0,-6.0,-13.0,12.0,-26.0,0.0
15.0,8.0,-29.0,-1.0,14.0,17.0,-8.0,-8.0,39.0,24.0,0.0
22.0,3.0,-34.0,-14.0,13.0,6.0,-13.0,4.0,56.0,59.0,0.0
31.0,-3.0,-31.0,-15.0,2.0,-1.0,-17.0,6.0,52.0,75.0,0.0
14.0,3.0,0.0,-3.0,-1.0,-9.0,-17.0,-7.0,25.0,41.0,0.0
8.0,14.0,8.0,0.0,-1.0,0.0,-13.0,-14.0,26.0,23.0,0.0
28.0,14.0,16.0,-17.0,-4.0,-1.0,-5.0,1.0,20.0,38.0,0.0
27.0,1.0,21.0,-17.0,2.0,-2.0,-1.0,10.0,23.0,38.0,0.0
6.0,-4.0,23.0,-7.0,12.0,0.0,3.0,11.0,22.0,46.0,0.0
-9.0,-2.0,18.0,-8.0,9.0,-5.0,17.0,7.0,29.0,70.0,0.0
-7.0,5.0,19.0,-7.0,-2.0,0.0,21.0,14.0,39.0,77.0,0.0
6.0,12.0,15.0,-8.0,-17.0,-2.0,8.0,13.0,25.0,77.0,0.0
9.0,11.0,1.0,-18.0,-17.0,-21.0,-3.0,-4.0,11.0,47.0,0.0
20.0,7.0,-16.0,-20.0,-16.0,-24.0,0.0,-10.0,40.0,46.0,0.0
35.0,21.0,-4.0,-12.0,-4.0,-20.0,2.0,6.0,78.0,117.0,0.0
28.0,10.0,-31.0,-14.0,-11.0,-24.0,-7.0,3.0,90.0,206.0,0.0
15.0,-4.0,-50.0,-12.0,-29.0,-24.0,-11.0,-14.0,55.0,239.0,0.0
16.0,-15.0,-52.0,-16.0,-39.0,-22.0,-25.0,-20.0,-3.0,163.0,0.0
8.0,-3.0,-41.0,8.0,-32.0,-15.0,-17.0,-30.0,-52.0,-19.0,0.0
-2.0,11.0,0.0,37.0,-4.0,9.0,15.0,-22.0,-62.0,-156.0,0.0
-28.0,1.0,21.0,70.0,26.0,40.0,43.0,-5.0,-70.0,-197.0,0.0
-57.0,-10.0,16.0,60.0,36.0,39.0,52.0,-1.0,-70.0,-212.0,0.0
-41.0,-6.0,14.0,57.0,16.0,18.0,43.0,0.0,-47.0,-178.0,0.0
-18.0,0.0,21.0,49.0,7.0,6.0,30.0,4.0,-28.0,-112.0,0.0
2.0,14.0,-5.0,34.0,9.0,-3.0,19.0,-4.0,-34.0,-65.0,0.0
-6.0,15.0,-10.0,28.0,10.0,-3.0,13.0,-1.0,-49.0,-33.0,0.0
-17.0,9.0,1.0,25.0,6.0,10.0,10.0,-11.0,-51.0,-19.0,0.0
-12.0,4.0,-5.0,23.0,8.0,6.0,0.0,-19.0,-49.0,-35.0,0.0
-3.0,3.0,-10.0,14.0,13.0,6.0,-9.0,-15.0,-44.0,-73.0,0.0
12.0,6.0,3.0,9.0,4.0,5.0,-7.0,-12.0,-30.0,-99.0,0.0
19.0,7.0,-6.0,7.0,2.0,4.0,-11.0,-4.0,-11.0,-79.0,0.0
35.0,0.0,-16.0,7.0,-5.0,1.0,-19.0,0.0,-9.0,-52.0,0.0
37.0,-17.0,-1.0,-1.0,-12.0,-10.0,-23.0,-11.0,6.0,-26.0,0.0
28.0,-24.0,0.0,-11.0,-5.0,-14.0,-24.0,-26.0,10.0,8.0,0.0
31.0,-19.0,-17.0,-19.0,3.0,-11.0,-19.0,-14.0,21.0,48.0,0.0
30.0,-18.0,-15.0,-34.0,3.0,-7.0,-18.0,-15.0,17.0,68.0,0.0
22.0,-2.0,-18.0,-20.0,15.0,-4.0,-15.0,-8.0,13.0,39.0,0.0
6.0,1.0,3.0,-14.0,21.0,7.0,-14.0,7.0,27.0,-6.0,0.0
8.0,-8.0,-3.0,-21.0,3.0,13.0,-9.0,8.0,30.0,-5.0,0.0
15.0,-11.0,-11.0,-29.0,-9.0,5.0,-1.0,13.0,44.0,9.0,0.0
1.0,-19.0,10.0,-28.0,-5.0,0.0,4.0,7.0,38.0,8.0,0.0
5.0,-30.0,11.0,-28.0,-7.0,5.0,12.0,8.0,35.0,-4.0,0.0
29.0,-16.0,-8.0,-23.0,-17.0,0.0,19.0,20.0,33.0,-11.0,0.0
29.0,-8.0,4.0,-20.0,-16.0,4.0,6.0,5.0,16.0,-24.0,0.0
22.0,-13.0,18.0,-21.0,-13.0,7.0,-10.0,0.0,21.0,-30.0,0.0
35.0,-11.0,17.0,-26.0,-13.0,-2.0,-3.0,13.0,33.0,4.0,0.0
39.0,-2.0,14.0,-20.0,-20.0,0.0,-2.0,0.0,28.0,12.0,0.0
24.0,14.0,16.0,-29.0,-16.0,5.0,-4.0,-7.0,28.0,6.0,0.0
24.0,6.0,-10.0,-40.0,-30.0,-6.0,-4.0,-9.0,38.0,28.0,0.0
14.0,-11.0,-15.0,-28.0,-27.0,-2.0,1.0,2.0,49.0,28.0,0.0
-4.0,-32.0,-27.0,-14.0,-33.0,15.0,18.0,11.0,38.0,-9.0,0.0
-23.0,-33.0,-7.0,-7.0,-16.0,17.0,26.0,14.0,5.0,-51.0,0.0
-35.0,-27.0,5.0,5.0,7.0,22.0,28.0,9.0,-6.0,-65.0,0.0
-23.0,-21.0,-9.0,11.0,7.0,21.0,26.0,3.0,2.0,-44.0,0.0
-9.0,-13.0,-2.0,11.0,6.0,24.0,16.0,9.0,25.0,-11.0,0.0
-1.0,-15.0,10.0,6.0,9.0,26.0,10.0,12.0,20.0,6.0,0.0
3.0,-10.0,4.0,3.0,-1.0,24.0,3.0,10.0,20.0,6.0,0.0
2.0,1.0,-5.0,-4.0,-12.0,24.0,-10.0,-2.0,23.0,13.0,0.0
14.0,13.0,6.0,-18.0,-13.0,20.0,-8.0,6.0,11.0,20.0,0.0
11.0,7.0,12.0,-5.0,-2.0,7.0,-2.0,0.0,3.0,5.0,0.0
7.0,0.0,25.0,7.0,6.0,7.0,1.0,8.0,-16.0,-6.0,0.0
3.0,6.0,20.0,0.0,12.0,4.0,-8.0,7.0,-9.0,1.0,0.0
-2.0,13.0,-2.0,0.0,10.0,-4.0,-22.0,4.0,-3.0,1.0,0.0
3.0,20.0,0.0,8.0,6.0,0.0,-14.0,-3.0,-5.0,-7.0,0.0
5.0,12.0,-1.0,-2.0,0.0,2.0,-8.0,4.0,-8.0,-3.0,0.0
0.0,11.0,-15.0,6.0,-4.0,0.0,0.0,18.0,-14.0,-6.0,0.0
-12.0,7.0,-15.0,17.0,-7.0,-10.0,6.0,20.0,-20.0,-1.0,0.0
-12.0,0.0,-33.0,20.0,-9.0,-13.0,0.0,25.0,-8.0,5.0,0.0
-6.0,0.0,-37.0,17.0,-8.0,-14.0,-3.0,20.0,-1.0,5.0,0.0
7.0,-1.0,-34.0,7.0,-23.0,-14.0,-14.0,24.0,31.0,27.0,0.0
13.0,-2.0,-22.0,14.0,-29.0,-19.0,-12.0,32.0,64.0,44.0,0.0
12.0,3.0,-24.0,28.0,-13.0,-11.0,-4.0,25.0,20.0,9.0,0.0
-2.0,5.0,-27.0,30.0,-10.0,-3.0,1.0,20.0,-6.0,-18.0,0.0
-2.0,0.0,-33.0,14.0,-8.0,-4.0,-1.0,13.0,2.0,-7.0,0.0
16.0,11.0,-11.0,24.0,-3.0,0.0,-5.0,5.0,13.0,-7.0,0.0
32.0,17.0,-12.0,23.0,-9.0,-6.0,-14.0,8.0,27.0,16.0,0.0
37.0,7.0,-25.0,11.0,-15.0,-20.0,-13.0,8.0,65.0,60.0,0.0
36.0,-4.0,-36.0,2.0,-14.0,-24.0,-11.0,10.0,66.0,107.0,0.0
27.0,-23.0,-48.0,-11.0,-16.0,-24.0,-8.0,9.0,45.0,111.0,0.0
15.0,-20.0,-48.0,-14.0,-18.0,-20.0,-7.0,19.0,51.0,77.0,0.0
6.0,-5.0,-23.0,0.0,-3.0,-5.0,1.0,19.0,29.0,30.0,0.0
-2.0,3.0,-9.0,13.0,7.0,-12.0,8.0,19.0,-1.0,21.0,0.0
7.0,5.0,-11.0,-4.0,5.0,-15.0,-6.0,2.0,-6.0,75.0,0.0
17.0,11.0,-9.0,-16.0,1.0,-12.0,-10.0,-14.0,-23.0,83.0,0.0
16.0,22.0,13.0,-18.0,-11.0,-17.0,-5.0,-11.0,-20.0,70.0,0.0
22.0,17.0,10.0,-30.0,-20.0,-27.0,-1.0,-11.0,-20.0,69.0,0.0
-1.0,3.0,-1.0,-36.0,-25.0,-26.0,-8.0,-24.0,-48.0,-34.0,0.0
-32.0,1.0,0.0,-12.0,-15.0,-2.0,7.0,-28.0,-65.0,-166.0,0.0
-41.0,14.0,21.0,-2.0,5.0,15.0,23.0,-9.0,-56.0,-158.0,0.0
-40.0,6.0,15.0,16.0,14.0,24.0,20.0,5.0,-54.0,-136.0,0.0
-37.0,16.0,7.0,33.0,12.0,19.0,21.0,3.0,-49.0,-119.0,0.0
-27.0,21.0,11.0,23.0,5.0,11.0,5.0,-4.0,-30.0,-69.0,0.0
-25.0,13.0,-3.0,12.0,8.0,2.0,7.0,1.0,5.0,-24.0,0.0
-21.0,1.0,21.0,16.0,16.0,7.0,4.0,-6.0,19.0,0.0,0.0
9.0,5.0,11.0,17.0,13.0,6.0,-9.0,-30.0,10.0,44.0,0.0
38.0,24.0,5.0,10.0,-8.0,-12.0,-26.0,-39.0,14.0,122.0,0.0
64.0,31.0,5.0,3.0,-21.0,-28.0,-34.0,-35.0,28.0,158.0,0.0
51.0,21.0,-3.0,0.0,-21.0,-20.0,-30.0,-19.0,23.0,113.0,0.0
30.0,23.0,2.0,-6.0,-23.0,-6.0,-21.0,5.0,28.0,140.0,0.0
-2.0,7.0,-11.0,-14.0,-24.0,-16.0,-19.0,3.0,10.0,107.0,0.0
-49.0,-17.0,-20.0,-19.0,-18.0,-25.0,-26.0,-25.0,-46.0,-69.0,0.0
-73.0,-22.0,-18.0,-3.0,-1.0,2.0,-5.0,-17.0,-65.0,-178.0,0.0
-78.0,-12.0,-8.0,14.0,21.0,23.0,22.0,15.0,-12.0,-158.0,0.0
-72.0,-6.0,3.0,20.0,26.0,24.0,32.0,39.0,23.0,-126.0,0.0
-41.0,-8.0,-14.0,10.0,10.0,17.0,34.0,37.0,15.0,-62.0,0.0
-29.0,-18.0,-27.0,6.0,-20.0,-1.0,14.0,18.0,15.0,-12.0,0.0
-32.0,-15.0,-37.0,-4.0,-27.0,-6.0,3.0,4.0,-13.0,-21.0,0.0
-25.0,-7.0,-19.0,-29.0,-9.0,3.0,12.0,3.0,-16.0,-43.0,0.0
-21.0,-5.0,-8.0,-28.0,6.0,1.0,4.0,4.0,-23.0,-43.0,0.0
-23.0,1.0,-10.0,-12.0,7.0,13.0,14.0,2.0,-45.0,-79.0,0.0
-15.0,20.0,-6.0,-6.0,17.0,19.0,33.0,9.0,-35.0,-80.0,0.0
-13.0,23.0,7.0,9.0,15.0,22.0,34.0,13.0,-24.0,-57.0,0.0
-26.0,13.0,4.0,32.0,23.0,27.0,32.0,17.0,-18.0,-46.0,0.0
-27.0,7.0,0.0,37.0,16.0,19.0,24.0,18.0,-11.0,-31.0,0.0
-8.0,9.0,4.0,38.0,11.0,8.0,21.0,13.0,-3.0,-11.0,0.0
14.0,5.0,20.0,33.0,11.0,-1.0,16.0,2.0,-1.0,7.0,0.0
14.0,6.0,10.0,21.0,0.0,-3.0,0.0,1.0,1.0,10.0,0.0
19.0,6.0,20.0,17.0,-3.0,5.0,3.0,-3.0,-1.0,24.0,0.0
27.0,15.0,29.0,7.0,1.0,1.0,4.0,-6.0,1.0,40.0,0.0
31.0,11.0,17.0,-2.0,-13.0,-12.0,7.0,-9.0,31.0,102.0,0.0
37.0,0.0,-1.0,-18.0,-24.0,-21.0,-1.0,-8.0,44.0,169.0,0.0
47.0,-5.0,-16.0,-26.0,-40.0,-23.0,-7.0,-10.0,40.0,203.0,0.0
67.0,-5.0,-23.0,-44.0,-49.0,-36.0,-26.0,-17.0,54.0,238.0,0.0
65.0,-8.0,-22.0,-42.0,-47.0,-41.0,-34.0,-6.0,92.0,257.0,0.0
39.0,-20.0,-27.0,-38.0,-54.0,-35.0,-20.0,-14.0,92.0,246.0,0.0
2.0,-30.0,-31.0,-25.0,-51.0,-24.0,-9.0,-18.0,64.0,202.0,0.0
-44.0,-43.0,-22.0,-10.0,-33.0,-4.0,-12.0,-27.0,-7.0,78.0,0.0
-77.0,-44.0,-4.0,9.0,-8.0,8.0,7.0,-17.0,-63.0,-156.0,0.0
-82.0,-33.0,17.0,31.0,23.0,37.0,33.0,9.0,-59.0,-266.0,0.0
-65.0,-18.0,50.0,48.0,39.0,46.0,44.0,16.0,-34.0,-222.0,0.0
-52.0,-13.0,55.0,43.0,30.0,35.0,29.0,-8.0,-34.0,-163.0,0.0
-32.0,-21.0,34.0,12.0,9.0,27.0,15.0,-11.0,-36.0,-105.0,0.0
-19.0,-19.0,12.0,-26.0,1.0,22.0,7.0,-25.0,-44.0,-63.0,0.0
11.0,-15.0,10.0,-34.0,-21.0,4.0,-9.0,-29.0,-39.0,-24.0,0.0
44.0,-11.0,11.0,-30.0,-21.0,-9.0,-15.0,-38.0,-36.0,1.0,0.0
56.0,17.0,18.0,-26.0,-20.0,-3.0,-28.0,-59.0,-56.0,-15.0,0.0
57.0,30.0,27.0,-22.0,-24.0,-6.0,-36.0,-62.0,-39.0,8.0,0.0
29.0,12.0,16.0,-25.0,-29.0,-7.0,-36.0,-30.0,2.0,32.0,0.0
-22.0,-19.0,-12.0,-43.0,-31.0,-13.0,-28.0,-24.0,15.0,0.0,0.0
-49.0,-40.0,-30.0,-49.0,-28.0,-14.0,-15.0,-18.0,33.0,-13.0,0.0
-43.0,-43.0,-17.0,-54.0,-30.0,-15.0,-5.0,2.0,63.0,37.0,0.0
-25.0,-27.0,-10.0,-34.0,-22.0,-3.0,2.0,5.0,62.0,61.0,0.0
-13.0,-13.0,-10.0,-25.0,-14.0,5.0,12.0,0.0,43.0,23.0,0.0
-16.0,-2.0,-11.0,-19.0,-20.0,7.0,15.0,7.0,22.0,-10.0,0.0
-27.0,-15.0,-11.0,-18.0,-18.0,7.0,22.0,21.0,20.0,-37.0,0.0
-32.0,-12.0,-6.0,-10.0,-6.0,15.0,23.0,22.0,12.0,-56.0,0.0
-42.0,1.0,-12.0,-4.0,3.0,29.0,15.0,10.0,-7.0,-76.0,0.0
-39.0,-9.0,-6.0,-7.0,7.0,35.0,10.0,1.0,-21.0,-75.0,0.0
-21.0,-6.0,20.0,3.0,7.0,39.0,5.0,1.0,-11.0,-63.0,0.0
-4.0,6.0,20.0,34.0,7.0,29.0,-2.0,-1.0,-10.0,-60.0,0.0
-3.0,11.0,0.0,45.0,10.0,17.0,-1.0,0.0,-17.0,-40.0,0.0
-6.0,10.0,9.0,42.0,9.0,14.0,-6.0,-1.0,-5.0,-18.0,0.0
-12.0,6.0,-2.0,36.0,-4.0,10.0,-9.0,-13.0,-6.0,-13.0,0.0
-10.0,-1.0,-12.0,28.0,-11.0,8.0,-7.0,-11.0,-10.0,-18.0,0.0
-12.0,6.0,-11.0,30.0,-3.0,5.0,-3.0,-4.0,-1.0,-12.0,0.0
-24.0,-3.0,-5.0,25.0,-2.0,-1.0,-6.0,-3.0,1.0,-5.0,0.0
-28.0,-9.0,-2.0,23.0,-3.0,1.0,-5.0,6.0,7.0,0.0,0.0
-16.0,-4.0,-9.0,12.0,3.0,0.0,-7.0,1.0,-9.0,-8.0,0.0
7.0,-9.0,-15.0,12.0,-3.0,-9.0,-2.0,-15.0,-8.0,-2.0,0.0
17.0,-1.0,-16.0,14.0,-12.0,-7.0,-10.0,-18.0,-13.0,19.0,0.0
24.0,8.0,-8.0,-3.0,-19.0,-6.0,-12.0,-19.0,-15.0,51.0,0.0
30.0,13.0,0.0,-21.0,-5.0,0.0,1.0,-2.0,-8.0,56.0,0.0
26.0,14.0,-11.0,-31.0,6.0,8.0,0.0,0.0,-5.0,35.0,0.0
22.0,14.0,-22.0,-28.0,-5.0,10.0,5.0,2.0,-7.0,31.0,0.0
17.0,14.0,-18.0,-26.0,-6.0,9.0,7.0,4.0,8.0,17.0,0.0
7.0,6.0,-19.0,-24.0,-2.0,16.0,8.0,-9.0,20.0,19.0,0.0
0.0,13.0,-6.0,-19.0,0.0,19.0,17.0,-11.0,21.0,46.0,0.0
-9.0,19.0,-1.0,2.0,2.0,14.0,23.0,-6.0,22.0,50.0,0.0
-3.0,23.0,-8.0,20.0,8.0,5.0,14.0,-11.0,-2.0,31.0,0.0
-4.0,10.0,-14.0,15.0,0.0,-8.0,-1.0,-24.0,-7.0,-12.0,0.0
-8.0,6.0,-16.0,13.0,-5.0,-16.0,2.0,-27.0,-8.0,-36.0,0.0
-15.0,3.0,-7.0,22.0,0.0,-13.0,2.0,-13.0,-10.0,-49.0,0.0
-8.0,3.0,16.0,22.0,6.0,2.0,8.0,10.0,-9.0,-70.0,0.0
-3.0,9.0,11.0,17.0,3.0,14.0,18.0,17.0,-20.0,-64.0,0.0
0.0,13.0,10.0,12.0,2.0,13.0,14.0,5.0,-21.0,-56.0,0.0
14.0,5.0,5.0,7.0,10.0,3.0,16.0,-4.0,0.0,-44.0,0.0
17.0,-12.0,-8.0,17.0,-4.0,5.0,14.0,-9.0,3.0,-20.0,0.0
9.0,-25.0,-15.0,20.0,-7.0,15.0,9.0,2.0,19.0,-15.0,0.0
4.0,-29.0,-14.0,19.0,-3.0,10.0,12.0,12.0,46.0,-8.0,0.0
9.0,-21.0,-6.0,9.0,0.0,0.0,0.0,2.0,77.0,20.0,0.0
31.0,-11.0,-3.0,-13.0,-3.0,-23.0,-7.0,-5.0,124.0,104.0,0.0
52.0,-25.0,-23.0,-24.0,-19.0,-39.0,-24.0,5.0,137.0,206.0,0.0
45.0,-42.0,-44.0,-27.0,-30.0,-40.0,-38.0,-18.0,98.0,219.0,0.0
27.0,-47.0,-45.0,-19.0,-21.0,-40.0,-31.0,-39.0,38.0,154.0,0.0
24.0,-30.0,-25.0,-2.0,-13.0,-28.0,-24.0,-47.0,-23.0,58.0,0.0
6.0,-7.0,0.0,12.0,10.0,-7.0,-15.0,-59.0,-85.0,-87.0,0.0
0.0,24.0,11.0,31.0,29.0,7.0,-3.0,-44.0,-84.0,-144.0,0.0
5.0,30.0,30.0,50.0,41.0,22.0,14.0,-30.0,-47.0,-104.0,0.0
24.0,21.0,23.0,41.0,49.0,22.0,17.0,-14.0,-32.0,-36.0,0.0
18.0,-2.0,22.0,35.0,43.0,18.0,11.0,1.0,-9.0,20.0,0.0
3.0,-21.0,15.0,25.0,27.0,8.0,8.0,-6.0,19.0,69.0,0.0
0.0,-22.0,0.0,6.0,12.0,-2.0,-7.0,-24.0,34.0,101.0,0.0
-14.0,-27.0,-5.0,-3.0,12.0,-4.0,-2.0,-17.0,13.0,18.0,0.0
-37.0,-14.0,0.0,-21.0,23.0,10.0,17.0,7.0,-7.0,-143.0,0.0
-41.0,5.0,18.0,-13.0,32.0,21.0,43.0,27.0,-22.0,-176.0,0.0
-39.0,5.0,8.0,8.0,38.0,28.0,47.0,15.0,-44.0,-164.0,0.0
-20.0,13.0,14.0,17.0,44.0,32.0,41.0,-10.0,-55.0,-123.0,0.0
2.0,10.0,8.0,14.0,42.0,14.0,23.0,-23.0,-37.0,-70.0,0.0
6.0,0.0,2.0,6.0,23.0,10.0,8.0,-7.0,-14.0,-39.0,0.0
9.0,5.0,-6.0,4.0,12.0,11.0,2.0,3.0,-18.0,-21.0,0.0
3.0,2.0,-2.0,11.0,22.0,8.0,14.0,6.0,-33.0,-35.0,0.0
-12.0,-6.0,-9.0,9.0,21.0,11.0,17.0,-2.0,-47.0,-41.0,0.0
-13.0,-12.0,-7.0,4.0,16.0,5.0,5.0,0.0,-31.0,-30.0,0.0
-2.0,-5.0,-3.0,8.0,5.0,0.0,5.0,10.0,33.0,1.0,0.0
1.0,5.0,-7.0,14.0,-7.0,-5.0,-8.0,19.0,78.0,26.0,0.0
23.0,9.0,3.0,8.0,-2.0,-8.0,-13.0,8.0,79.0,84.0,0.0
42.0,25.0,14.0,5.0,9.0,-13.0,-10.0,-7.0,80.0,153.0,0.0
33.0,18.0,12.0,-4.0,5.0,-9.0,-5.0,-10.0,87.0,174.0,0.0
21.0,0.0,-2.0,-35.0,1.0,-12.0,-3.0,-20.0,71.0,169.0,0.0
0.0,-28.0,-11.0,-57.0,-1.0,-24.0,-20.0,-31.0,19.0,95.0,0.0
-7.0,-25.0,-16.0,-51.0,-7.0,-25.0,-31.0,-29.0,-17.0,-58.0,0.0
6.0,-5.0,4.0,-37.0,8.0,-8.0,-15.0,-12.0,-7.0,-136.0,0.0
2.0,2.0,24.0,-12.0,23.0,6.0,-1.0,-2.0,-4.0,-141.0,0.0
-6.0,9.0,26.0,-2.0,37.0,10.0,1.0,7.0,-12.0,-138.0,0.0
0.0,13.0,34.0,0.0,35.0,3.0,-2.0,-1.0,-19.0,-88.0,0.0
8.0,18.0,39.0,-5.0,19.0,-1.0,-20.0,-5.0,-5.0,-31.0,0.0
4.0,10.0,19.0,-13.0,4.0,-1.0,-30.0,-5.0,-3.0,-16.0,0.0
0.0,-5.0,0.0,-15.0,2.0,-7.0,-13.0,-11.0,0.0,-11.0,0.0
1.0,-1.0,-10.0,-14.0,0.0,-8.0,-10.0,-4.0,-1.0,-18.0,0.0
-11.0,0.0,-13.0,-10.0,4.0,-15.0,-12.0,10.0,-8.0,-20.0,0.0
-18.0,-11.0,-10.0,-11.0,-8.0,-13.0,-9.0,4.0,-16.0,-18.0,0.0
-20.0,-14.0,-19.0,-11.0,-13.0,-10.0,-8.0,8.0,0.0,-18.0,0.0
-23.0,-5.0,-24.0,-1.0,6.0,-2.0,-12.0,2.0,-3.0,-31.0,0.0
-20.0,1.0,-11.0,12.0,8.0,18.0,-13.0,-3.0,-21.0,-50.0,0.0
-16.0,-10.0,-14.0,27.0,4.0,11.0,-20.0,-14.0,-20.0,-29.0,0.0
0.0,-12.0,-21.0,19.0,5.0,6.0,-24.0,-12.0,0.0,2.0,0.0
18.0,-1.0,-17.0,19.0,9.0,-5.0,-15.0,0.0,3.0,11.0,0.0
10.0,10.0,-12.0,22.0,9.0,-7.0,-11.0,0.0,-14.0,-7.0,0.0
-4.0,10.0,-1.0,21.0,5.0,-7.0,-15.0,0.0,-23.0,-32.0,0.0
-10.0,8.0,1.0,26.0,-12.0,2.0,-14.0,11.0,-27.0,-43.0,0.0
-7.0,6.0,-2.0,12.0,-15.0,5.0,-3.0,12.0,-43.0,-26.0,0.0
-1.0,11.0,-3.0,-1.0,-8.0,6.0,2.0,17.0,-47.0,1.0,0.0
7.0,12.0,-1.0,-2.0,-16.0,1.0,3.0,12.0,-43.0,28.0,0.0
23.0,13.0,-5.0,-6.0,-19.0,-10.0,1.0,5.0,-32.0,53.0,0.0
30.0,19.0,-14.0,-6.0,-33.0,-14.0,-11.0,-20.0,-29.0,28.0,0.0
17.0,9.0,0.0,-23.0,-40.0,-23.0,-14.0,-36.0,-38.0,-36.0,0.0
8.0,20.0,-2.0,-32.0,-19.0,-21.0,-8.0,-21.0,-27.0,-60.0,0.0
-1.0,34.0,-5.0,-13.0,-4.0,-9.0,-13.0,-20.0,-19.0,-76.0,0.0
-5.0,43.0,1.0,-3.0,-7.0,-8.0,-12.0,-5.0,-10.0,-72.0,0.0
-11.0,25.0,-12.0,-1.0,-7.0,-11.0,-7.0,13.0,12.0,-57.0,0.0
-18.0,-1.0,-22.0,-6.0,-2.0,-11.0,-4.0,9.0,19.0,-53.0,0.0
-7.0,-4.0,-8.0,-12.0,-9.0,-10.0,-5.0,4.0,9.0,-52.0,0.0
1.0,-5.0,1.0,-13.0,-21.0,-5.0,-9.0,11.0,-8.0,-45.0,0.0
-1.0,-19.0,-9.0,-20.0,-23.0,-8.0,-13.0,0.0,-7.0,-46.0,0.0
-14.0,-30.0,-15.0,-22.0,-17.0,-15.0,-10.0,-7.0,9.0,-44.0,0.0
-20.0,-29.0,-22.0,-19.0,-20.0,-5.0,-11.0,-2.0,23.0,-19.0,0.0
-11.0,-9.0,-18.0,-12.0,-8.0,-3.0,-8.0,4.0,17.0,0.0,0.0
-1.0,-2.0,-10.0,-16.0,-10.0,1.0,-3.0,0.0,6.0,-7.0,0.0
-15.0,0.0,-5.0,-27.0,-15.0,6.0,-14.0,3.0,-11.0,-29.0,0.0
-16.0,-3.0,-3.0,-35.0,-16.0,0.0,-11.0,-2.0,-10.0,-32.0,0.0
-4.0,7.0,23.0,-39.0,-6.0,-8.0,-2.0,-8.0,0.0,-34.0,0.0
-9.0,10.0,40.0,-29.0,11.0,3.0,2.0,-4.0,11.0,-33.0,0.0
-14.0,-6.0,15.0,-23.0,0.0,-1.0,3.0,-4.0,-6.0,-47.0,0.0
-8.0,-23.0,-3.0,-16.0,-18.0,-13.0,1.0,-16.0,10.0,-9.0,0.0
26.0,-24.0,-7.0,-9.0,-33.0,-28.0,0.0,-17.0,65.0,131.0,0.0
61.0,-23.0,-18.0,-18.0,-49.0,-36.0,-17.0,-2.0,106.0,282.0,0.0
79.0,-21.0,-24.0,-27.0,-65.0,-53.0,-20.0,5.0,125.0,375.0,0.0
66.0,-31.0,-33.0,-38.0,-77.0,-62.0,-28.0,-17.0,73.0,349.0,0.0
25.0,-33.0,-43.0,-43.0,-67.0,-54.0,-36.0,-40.0,-26.0,128.0,0.0
-23.0,-20.0,-24.0,-20.0,-28.0,-5.0,-10.0,-19.0,-65.0,-103.0,0.0
-73.0,-2.0,0.0,15.0,20.0,37.0,23.0,-3.0,-90.0,-241.0,0.0
-74.0,16.0,31.0,46.0,47.0,63.0,47.0,9.0,-102.0,-329.0,0.0
-48.0,18.0,54.0,57.0,58.0,67.0,53.0,19.0,-70.0,-296.0,0.0
-24.0,24.0,70.0,43.0,65.0,61.0,42.0,11.0,-63.0,-253.0,0.0
-13.0,35.0,49.0,30.0,61.0,53.0,36.0,-5.0,-63.0,-213.0,0.0
-18.0,34.0,12.0,23.0,48.0,23.0,16.0,-18.0,-46.0,-152.0,0.0
0.0,22.0,-6.0,8.0,31.0,-1.0,-2.0,-19.0,-49.0,-88.0,0.0
12.0,13.0,11.0,-16.0,22.0,0.0,-10.0,-16.0,-48.0,-47.0,0.0
13.0,14.0,6.0,-20.0,20.0,-1.0,-8.0,-12.0,-24.0,-21.0,0.0
23.0,12.0,3.0,-17.0,10.0,-4.0,1.0,-9.0,-1.0,-3.0,0.0
16.0,9.0,10.0,-9.0,5.0,-1.0,6.0,-4.0,31.0,2.0,0.0
0.0,-7.0,8.0,4.0,3.0,6.0,12.0,13.0,69.0,39.0,0.0
-15.0,-22.0,-12.0,8.0,-3.0,5.0,13.0,20.0,95.0,101.0,0.0
-14.0,-28.0,-14.0,-7.0,-15.0,1.0,3.0,15.0,72.0,132.0,0.0
4.0,-16.0,-10.0,-16.0,-31.0,-11.0,3.0,7.0,50.0,114.0,0.0
13.0,-5.0,-9.0,-3.0,-24.0,1.0,14.0,28.0,49.0,81.0,0.0
17.0,1.0,7.0,0.0,-2.0,3.0,13.0,11.0,37.0,76.0,0.0
1.0,3.0,-6.0,3.0,6.0,7.0,6.0,-11.0,2.0,56.0,0.0
-22.0,-12.0,-20.0,8.0,6.0,8.0,9.0,-11.0,-40.0,-33.0,0.0
-30.0,0.0,1.0,32.0,7.0,29.0,23.0,12.0,-53.0,-117.0,0.0
-10.0,16.0,30.0,41.0,13.0,32.0,16.0,26.0,-30.0,-115.0,0.0
-9.0,15.0,45.0,25.0,16.0,33.0,6.0,32.0,-15.0,-95.0,0.0
-31.0,-6.0,35.0,9.0,22.0,38.0,13.0,42.0,2.0,-78.0,0.0
-19.0,-13.0,12.0,2.0,28.0,36.0,21.0,46.0,-6.0,-63.0,0.0
-16.0,0.0,0.0,1.0,28.0,30.0,12.0,31.0,-15.0,-52.0,0.0
17.0,5.0,1.0,-4.0,14.0,21.0,0.0,16.0,-16.0,16.0,0.0
48.0,10.0,2.0,-7.0,7.0,2.0,-16.0,-1.0,19.0,100.0,0.0
73.0,17.0,3.0,-16.0,-5.0,-14.0,-24.0,-6.0,51.0,168.0,0.0
74.0,28.0,8.0,-7.0,-18.0,-18.0,-27.0,2.0,42.0,217.0,0.0
49.0,15.0,13.0,-14.0,-21.0,-21.0,-25.0,0.0,26.0,178.0,0.0
-2.0,3.0,4.0,1.0,-3.0,-9.0,-3.0,-8.0,-28.0,-22.0,0.0
-40.0,3.0,28.0,26.0,18.0,8.0,21.0,10.0,-39.0,-134.0,0.0
-65.0,-7.0,23.0,44.0,28.0,29.0,33.0,28.0,-4.0,-108.0,0.0
-79.0,-18.0,26.0,38.0,37.0,53.0,33.0,29.0,-10.0,-114.0,0.0
-67.0,-20.0,22.0,33.0,24.0,43.0,24.0,17.0,-21.0,-98.0,0.0
-53.0,-21.0,-2.0,21.0,10.0,18.0,5.0,18.0,-17.0,-63.0,0.0
-43.0,-25.0,-2.0,11.0,5.0,10.0,0.0,13.0,-28.0,-47.0,0.0
-23.0,-21.0,-5.0,7.0,-1.0,11.0,2.0,21.0,-15.0,-30.0,0.0
3.0,-4.0,0.0,0.0,-7.0,8.0,0.0,27.0,1.0,-9.0,0.0
2.0,-1.0,0.0,-20.0,5.0,1.0,2.0,30.0,-1.0,-5.0,0.0
-14.0,-17.0,11.0,-22.0,10.0,5.0,3.0,19.0,-26.0,-18.0,0.0
-1.0,-13.0,0.0,-33.0,6.0,9.0,-4.0,9.0,-28.0,-2.0,0.0
8.0,-3.0,3.0,-26.0,3.0,0.0,-11.0,4.0,-17.0,8.0,0.0
4.0,0.0,-14.0,-27.0,-6.0,2.0,-13.0,6.0,7.0,17.0,0.0
6.0,0.0,-16.0,-36.0,-11.0,6.0,-17.0,11.0,17.0,21.0,0.0
2.0,3.0,-5.0,-34.0,-16.0,-2.0,-8.0,10.0,12.0,20.0,0.0
2.0,9.0,-15.0,-15.0,-11.0,3.0,4.0,1.0,-3.0,11.0,0.0
3.0,8.0,-13.0,0.0,-4.0,2.0,6.0,0.0,-3.0,7.0,0.0
16.0,14.0,18.0,14.0,-10.0,1.0,1.0,-4.0,-3.0,22.0,0.0
34.0,27.0,19.0,10.0,-21.0,1.0,-12.0,6.0,6.0,53.0,0.0
50.0,25.0,12.0,9.0,-11.0,-2.0,-19.0,0.0,18.0,85.0,0.0
42.0,9.0,6.0,7.0,-13.0,-13.0,-24.0,-8.0,30.0,98.0,0.0
18.0,-9.0,-13.0,-4.0,-27.0,-17.0,-19.0,6.0,80.0,109.0,0.0
-10.0,-22.0,-15.0,1.0,-20.0,-17.0,-5.0,8.0,74.0,104.0,0.0
-20.0,-20.0,0.0,2.0,1.0,-15.0,4.0,2.0,24.0,72.0,0.0
-32.0,-12.0,0.0,11.0,6.0,1.0,9.0,-1.0,-31.0,13.0,0.0
-43.0,0.0,18.0,9.0,3.0,5.0,16.0,-10.0,-39.0,-32.0,0.0
-26.0,11.0,45.0,18.0,4.0,13.0,21.0,-9.0,-36.0,-23.0,0.0
-11.0,25.0,48.0,32.0,-4.0,13.0,20.0,8.0,-34.0,5.0,0.0
-3.0,30.0,46.0,30.0,-11.0,9.0,6.0,6.0,-36.0,22.0,0.0
21.0,27.0,43.0,6.0,-19.0,6.0,-7.0,-5.0,-23.0,64.0,0.0
47.0,22.0,25.0,-2.0,-25.0,-9.0,-29.0,-16.0,-8.0,105.0,0.0
59.0,21.0,14.0,-19.0,-25.0,-18.0,-38.0,-2.0,26.0,157.0,0.0
66.0,31.0,27.0,-48.0,-21.0,-20.0,-31.0,15.0,87.0,212.0,0.0
64.0,37.0,34.0,-43.0,-5.0,-14.0,-32.0,10.0,99.0,228.0,0.0
40.0,40.0,34.0,-15.0,-2.0,6.0,-32.0,-4.0,53.0,172.0,0.0
5.0,12.0,24.0,2.0,-6.0,12.0,-15.0,5.0,31.0,133.0,0.0
-41.0,-13.0,-19.0,-1.0,-18.0,9.0,-7.0,12.0,21.0,64.0,0.0
-64.0,-30.0,-34.0,-3.0,-20.0,6.0,-8.0,1.0,-16.0,-94.0,0.0
-49.0,-14.0,-16.0,11.0,-6.0,12.0,15.0,8.0,-24.0,-164.0,0.0
-37.0,5.0,8.0,32.0,15.0,13.0,40.0,13.0,-34.0,-140.0,0.0
-29.0,9.0,19.0,33.0,22.0,19.0,37.0,23.0,-34.0,-95.0,0.0
-20.0,9.0,21.0,25.0,13.0,14.0,19.0,31.0,-1.0,-11.0,0.0
-8.0,-1.0,25.0,26.0,5.0,10.0,9.0,41.0,39.0,65.0,0.0
-26.0,-9.0,0.0,18.0,-4.0,10.0,14.0,36.0,21.0,44.0,0.0
-68.0,-19.0,-4.0,4.0,-6.0,18.0,10.0,22.0,-19.0,-51.0,0.0
-70.0,-24.0,6.0,9.0,-2.0,28.0,2.0,6.0,-37.0,-99.0,0.0
-45.0,-20.0,5.0,17.0,3.0,26.0,20.0,20.0,-22.0,-79.0,0.0
-35.0,-13.0,7.0,18.0,5.0,29.0,37.0,30.0,6.0,-75.0,0.0
-31.0,-4.0,18.0,24.0,10.0,13.0,37.0,39.0,0.0,-60.0,0.0
-15.0,-10.0,19.0,10.0,-4.0,8.0,20.0,20.0,-4.0,-36.0,0.0
-8.0,-9.0,14.0,-3.0,-15.0,3.0,10.0,-4.0,1.0,10.0,0.0
10.0,5.0,12.0,-4.0,-23.0,-1.0,5.0,-5.0,7.0,80.0,0.0
18.0,1.0,-5.0,-3.0,-24.0,-21.0,-2.0,-8.0,6.0,85.0,0.0
9.0,1.0,-6.0,-9.0,-24.0,-28.0,-6.0,-11.0,1.0,72.0,0.0
-3.0,5.0,-11.0,-13.0,-14.0,-18.0,-4.0,-22.0,-14.0,31.0,0.0
-18.0,2.0,-11.0,-10.0,-7.0,-17.0,2.0,-14.0,-19.0,-59.0,0.0
-22.0,1.0,13.0,-3.0,5.0,4.0,22.0,3.0,-12.0,-94.0,0.0
-32.0,0.0,18.0,8.0,10.0,16.0,27.0,11.0,-6.0,-85.0,0.0
-17.0,3.0,5.0,13.0,1.0,12.0,22.0,6.0,-8.0,-47.0,0.0
9.0,-2.0,-9.0,8.0,-11.0,4.0,14.0,-5.0,-13.0,-6.0,0.0
18.0,-3.0,-3.0,-4.0,-17.0,-11.0,3.0,-7.0,4.0,22.0,0.0
3.0,-9.0,0.0,-10.0,-6.0,-6.0,1.0,0.0,20.0,12.0,0.0
-5.0,-12.0,-15.0,-1.0,-2.0,5.0,4.0,1.0,16.0,6.0,0.0
-4.0,-12.0,-2.0,1.0,6.0,7.0,19.0,12.0,50.0,27.0,0.0
8.0,-17.0,-8.0,9.0,10.0,16.0,34.0,28.0,78.0,40.0,0.0
17.0,-12.0,-13.0,-5.0,1.0,17.0,17.0,10.0,60.0,90.0,0.0
19.0,-21.0,-10.0,-14.0,-5.0,11.0,-5.0,-16.0,24.0,139.0,0.0
11.0,-25.0,-28.0,-11.0,-12.0,1.0,-19.0,-23.0,-33.0,83.0,0.0
7.0,-14.0,-4.0,1.0,-2.0,7.0,-17.0,-8.0,-61.0,-25.0,0.0
7.0,6.0,20.0,5.0,4.0,6.0,-9.0,3.0,-52.0,-66.0,0.0
20.0,21.0,33.0,15.0,14.0,13.0,-8.0,-6.0,-46.0,-77.0,0.0
23.0,21.0,22.0,24.0,18.0,8.0,-6.0,-3.0,-34.0,-67.0,0.0
23.0,17.0,-2.0,13.0,21.0,5.0,-5.0,-1.0,-22.0,-50.0,0.0
22.0,23.0,-7.0,2.0,7.0,6.0,-14.0,6.0,4.0,-17.0,0.0
13.0,13.0,-24.0,-2.0,-12.0,-6.0,-16.0,9.0,25.0,-7.0,0.0
4.0,-6.0,-22.0,-9.0,-12.0,-15.0,-15.0,15.0,40.0,-1.0,0.0
0.0,-15.0,-27.0,-13.0,-21.0,-13.0,-7.0,26.0,46.0,23.0,0.0
-4.0,-22.0,-17.0,-8.0,-27.0,-14.0,-7.0,11.0,0.0,41.0,0.0
-1.0,-25.0,-9.0,1.0,-17.0,-18.0,-11.0,-4.0,-40.0,3.0,0.0
8.0,-12.0,6.0,7.0,-1.0,-11.0,-8.0,-5.0,-53.0,-49.0,0.0
-6.0,6.0,19.0,25.0,12.0,3.0,1.0,-24.0,-61.0,-91.0,0.0
-4.0,21.0,25.0,29.0,10.0,3.0,-2.0,-33.0,-45.0,-70.0,0.0
18.0,22.0,13.0,18.0,-7.0,-5.0,-14.0,-25.0,-35.0,-14.0,0.0
46.0,23.0,-9.0,3.0,-23.0,-11.0,-12.0,-29.0,-11.0,36.0,0.0
53.0,15.0,-8.0,-17.0,-38.0,-36.0,-28.0,-38.0,17.0,76.0,0.0
45.0,17.0,-20.0,-26.0,-49.0,-45.0,-30.0,-30.0,32.0,102.0,0.0
47.0,24.0,-17.0,-23.0,-45.0,-44.0,-22.0,-17.0,21.0,120.0,0.0
26.0,21.0,-10.0,-23.0,-28.0,-23.0,-20.0,-18.0,-5.0,93.0,0.0
-7.0,24.0,-3.0,-9.0,-11.0,-2.0,-5.0,-13.0,-10.0,7.0,0.0
-26.0,25.0,-10.0,-13.0,-2.0,11.0,11.0,-11.0,2.0,-28.0,0.0
-26.0,15.0,-5.0,-31.0,4.0,8.0,11.0,-8.0,-26.0,-33.0,0.0
-15.0,15.0,12.0,-35.0,14.0,-1.0,8.0,-5.0,-42.0,-31.0,0.0
5.0,15.0,5.0,-24.0,9.0,-11.0,7.0,-11.0,-21.0,7.0,0.0
22.0,22.0,-5.0,-11.0,11.0,-14.0,10.0,-15.0,-13.0,36.0,0.0
31.0,39.0,17.0,-1.0,15.0,-10.0,6.0,-15.0,-24.0,32.0,0.0
16.0,46.0,28.0,1.0,9.0,-1.0,0.0,-17.0,-32.0,13.0,0.0
-14.0,26.0,2.0,0.0,-6.0,1.0,1.0,-25.0,-42.0,-66.0,0.0
-40.0,16.0,-1.0,0.0,2.0,9.0,17.0,-11.0,-36.0,-167.0,0.0
-37.0,23.0,17.0,4.0,19.0,21.0,23.0,1.0,-18.0,-126.0,0.0
-16.0,28.0,21.0,5.0,19.0,13.0,17.0,1.0,7.0,-54.0,0.0
-5.0,28.0,25.0,26.0,13.0,2.0,16.0,1.0,16.0,-9.0,0.0
-1.0,27.0,28.0,46.0,14.0,-7.0,18.0,-4.0,1.0,25.0,0.0
-9.0,3.0,18.0,38.0,-5.0,-1.0,13.0,-14.0,5.0,35.0,0.0
-20.0,-8.0,9.0,26.0,-9.0,-3.0,12.0,-6.0,-21.0,-14.0,0.0
-37.0,-17.0,21.0,26.0,5.0,10.0,37.0,5.0,-21.0,-79.0,0.0
-48.0,-14.0,23.0,21.0,18.0,14.0,30.0,6.0,-11.0,-97.0,0.0
-42.0,-12.0,18.0,23.0,28.0,5.0,17.0,-4.0,-27.0,-81.0,0.0
-29.0,-8.0,-8.0,23.0,16.0,3.0,9.0,-9.0,-22.0,-54.0,0.0
-15.0,-7.0,-13.0,9.0,13.0,-6.0,0.0,-15.0,-6.0,-35.0,0.0
-13.0,-8.0,3.0,0.0,6.0,-14.0,-3.0,-15.0,5.0,-23.0,0.0
-8.0,-10.0,7.0,-7.0,-1.0,-14.0,-18.0,0.0,12.0,-13.0,0.0
-1.0,-5.0,-8.0,-7.0,-2.0,-12.0,-9.0,-6.0,7.0,-4.0,0.0
5.0,-4.0,-4.0,2.0,9.0,-7.0,-6.0,-18.0,3.0,-4.0,0.0
0.0,-4.0,10.0,8.0,28.0,-6.0,-1.0,-19.0,4.0,1.0,0.0
3.0,-4.0,18.0,-14.0,20.0,-11.0,-4.0,-19.0,-5.0,5.0,0.0
3.0,-4.0,18.0,-36.0,11.0,-7.0,-7.0,-18.0,-15.0,15.0,0.0
9.0,-12.0,14.0,-42.0,2.0,-19.0,-14.0,-6.0,-20.0,22.0,0.0
22.0,-5.0,-5.0,-26.0,-11.0,-25.0,-24.0,-6.0,-23.0,33.0,0.0
22.0,-2.0,-12.0,-16.0,-16.0,-20.0,-23.0,1.0,-21.0,23.0,0.0
21.0,4.0,6.0,-1.0,-10.0,-8.0,-12.0,-1.0,-21.0,-3.0,0.0
16.0,12.0,7.0,14.0,-11.0,-2.0,-13.0,-1.0,-8.0,4.0,0.0
17.0,12.0,7.0,18.0,-4.0,-3.0,-23.0,11.0,39.0,38.0,0.0
20.0,1.0,15.0,19.0,0.0,3.0,-15.0,12.0,73.0,71.0,0.0
18.0,-14.0,10.0,3.0,5.0,-11.0,-16.0,3.0,58.0,66.0,0.0
20.0,-7.0,-3.0,11.0,-1.0,-26.0,-11.0,5.0,37.0,68.0,0.0
23.0,-5.0,-11.0,12.0,2.0,-21.0,-7.0,13.0,33.0,63.0,0.0
18.0,-9.0,-2.0,2.0,0.0,-17.0,-12.0,17.0,11.0,55.0,0.0
13.0,-5.0,6.0,-7.0,-5.0,-21.0,-14.0,3.0,2.0,45.0,0.0
4.0,-12.0,9.0,-6.0,-5.0,-18.0,-14.0,-11.0,-4.0,43.0,0.0
0.0,-18.0,2.0,-7.0,-8.0,-12.0,-9.0,-8.0,-14.0,47.0,0.0
23.0,-19.0,3.0,1.0,-15.0,-14.0,-8.0,-8.0,-11.0,79.0,0.0
62.0,-2.0,-18.0,-6.0,-30.0,-34.0,-20.0,-21.0,11.0,149.0,0.0
83.0,8.0,-11.0,-14.0,-30.0,-32.0,-27.0,-19.0,22.0,197.0,0.0
80.0,7.0,10.0,-7.0,-23.0,-23.0,-18.0,-7.0,20.0,184.0,0.0
41.0,-6.0,1.0,-19.0,-22.0,-19.0,-10.0,8.0,3.0,97.0,0.0
-3.0,0.0,14.0,-22.0,-7.0,-11.0,1.0,13.0,-23.0,-35.0,0.0
-31.0,12.0,18.0,-4.0,12.0,6.0,20.0,-5.0,-50.0,-143.0,0.0
-29.0,11.0,14.0,25.0,9.0,16.0,25.0,7.0,-41.0,-141.0,0.0
-12.0,0.0,14.0,31.0,12.0,11.0,11.0,14.0,-22.0,-84.0,0.0
-8.0,-3.0,3.0,17.0,17.0,6.0,-3.0,13.0,-9.0,-51.0,0.0
-3.0,-6.0,-28.0,5.0,14.0,3.0,-11.0,1.0,0.0,-29.0,0.0
9.0,-4.0,-10.0,-21.0,12.0,0.0,-11.0,0.0,-9.0,-28.0,0.0
3.0,5.0,4.0,-28.0,16.0,7.0,-3.0,-17.0,-24.0,-70.0,0.0
-24.0,5.0,7.0,-26.0,19.0,12.0,4.0,-20.0,-27.0,-120.0,0.0
-51.0,-6.0,12.0,-21.0,22.0,20.0,25.0,5.0,-15.0,-119.0,0.0
-65.0,-30.0,-14.0,-18.0,26.0,30.0,36.0,22.0,4.0,-99.0,0.0
-50.0,-41.0,-22.0,-25.0,22.0,30.0,27.0,26.0,9.0,-66.0,0.0
-11.0,-33.0,-18.0,-19.0,5.0,24.0,15.0,7.0,7.0,-19.0,0.0
11.0,-3.0,-24.0,-18.0,-1.0,15.0,3.0,-11.0,13.0,24.0,0.0
20.0,8.0,-1.0,-8.0,-2.0,15.0,-5.0,-14.0,-2.0,38.0,0.0
30.0,15.0,7.0,4.0,0.0,6.0,-18.0,-25.0,-36.0,15.0,0.0
26.0,29.0,2.0,-6.0,0.0,1.0,-4.0,-13.0,-26.0,36.0,0.0
-4.0,7.0,-11.0,-13.0,-7.0,0.0,9.0,10.0,14.0,67.0,0.0
-17.0,-10.0,-13.0,1.0,-1.0,3.0,4.0,5.0,11.0,50.0,0.0
3.0,3.0,0.0,15.0,-6.0,1.0,7.0,6.0,42.0,94.0,0.0
14.0,4.0,-17.0,19.0,-10.0,-3.0,11.0,21.0,97.0,148.0,0.0
9.0,1.0,-19.0,15.0,-5.0,-4.0,11.0,31.0,108.0,167.0,0.0
-4.0,-7.0,-31.0,14.0,-16.0,-16.0,7.0,19.0,68.0,118.0,0.0
-29.0,-16.0,-31.0,-1.0,-23.0,-29.0,-2.0,2.0,21.0,-33.0,0.0
-28.0,-5.0,-16.0,-3.0,-6.0,-20.0,0.0,0.0,1.0,-91.0,0.0
-6.0,5.0,-7.0,0.0,-9.0,-13.0,2.0,11.0,19.0,-46.0,0.0
-4.0,-3.0,10.0,9.0,-6.0,-6.0,10.0,2.0,15.0,-63.0,0.0
3.0,-5.0,0.0,7.0,-2.0,-17.0,3.0,-15.0,14.0,-20.0,0.0
7.0,-6.0,-15.0,8.0,-3.0,-21.0,-2.0,-31.0,-34.0,-23.0,0.0
-14.0,-12.0,-4.0,14.0,-8.0,-8.0,3.0,-40.0,-86.0,-145.0,0.0
-14.0,1.0,16.0,39.0,2.0,30.0,28.0,-7.0,-73.0,-212.0,0.0
-8.0,18.0,39.0,46.0,21.0,46.0,30.0,16.0,-43.0,-209.0,0.0
-22.0,24.0,42.0,41.0,31.0,51.0,28.0,16.0,-44.0,-201.0,0.0
-18.0,18.0,33.0,31.0,23.0,37.0,29.0,18.0,-31.0,-142.0,0.0
2.0,19.0,29.0,11.0,16.0,30.0,22.0,18.0,-9.0,-83.0,0.0
6.0,4.0,13.0,-3.0,9.0,19.0,2.0,20.0,0.0,-48.0,0.0
-5.0,-3.0,12.0,-4.0,12.0,15.0,-9.0,13.0,4.0,-31.0,0.0
-2.0,-9.0,21.0,-8.0,14.0,23.0,3.0,0.0,8.0,-30.0,0.0
14.0,0.0,11.0,-8.0,19.0,35.0,10.0,0.0,-1.0,-19.0,0.0
24.0,11.0,9.0,-12.0,17.0,19.0,-12.0,-13.0,-13.0,0.0,0.0
18.0,4.0,11.0,-14.0,8.0,4.0,-25.0,-12.0,-4.0,30.0,0.0
9.0,4.0,10.0,-7.0,3.0,0.0,-16.0,1.0,3.0,30.0,0.0
6.0,4.0,13.0,-8.0,3.0,-9.0,-3.0,0.0,1.0,13.0,0.0
13.0,8.0,6.0,3.0,2.0,-5.0,-4.0,-2.0,9.0,0.0,0.0
25.0,-2.0,-11.0,-9.0,7.0,-4.0,11.0,12.0,22.0,4.0,0.0
25.0,0.0,-25.0,-21.0,0.0,-14.0,22.0,14.0,42.0,13.0,0.0
18.0,-10.0,-19.0,-18.0,-10.0,-23.0,13.0,22.0,63.0,44.0,0.0
29.0,-11.0,-33.0,-7.0,-13.0,-21.0,-2.0,23.0,67.0,99.0,0.0
45.0,-4.0,-55.0,2.0,-16.0,-14.0,0.0,-5.0,31.0,146.0,0.0
40.0,-12.0,-69.0,-2.0,-19.0,-22.0,-5.0,-26.0,-15.0,113.0,0.0
9.0,-14.0,-57.0,6.0,0.0,-10.0,0.0,-20.0,-47.0,12.0,0.0
1.0,-12.0,-34.0,14.0,19.0,4.0,1.0,-8.0,-53.0,-29.0,0.0
7.0,-22.0,-31.0,9.0,27.0,16.0,5.0,9.0,-30.0,-24.0,0.0
19.0,-16.0,-45.0,0.0,25.0,19.0,5.0,-2.0,-18.0,10.0,0.0
37.0,-8.0,-39.0,-12.0,16.0,7.0,-4.0,-9.0,-4.0,25.0,0.0
50.0,3.0,-27.0,-5.0,14.0,4.0,-6.0,-12.0,-5.0,40.0,0.0
45.0,10.0,-18.0,2.0,13.0,-2.0,0.0,7.0,0.0,29.0,0.0
30.0,6.0,-25.0,10.0,2.0,-1.0,0.0,29.0,24.0,20.0,0.0
8.0,-1.0,-24.0,4.0,8.0,-8.0,3.0,20.0,30.0,36.0,0.0
-14.0,-16.0,-31.0,-8.0,17.0,-7.0,8.0,12.0,22.0,47.0,0.0
-16.0,-22.0,-20.0,-9.0,15.0,-4.0,0.0,5.0,3.0,21.0,0.0
-9.0,-16.0,-11.0,-4.0,18.0,3.0,1.0,0.0,4.0,22.0,0.0
0.0,-9.0,-12.0,-1.0,11.0,6.0,6.0,-3.0,-1.0,28.0,0.0
-6.0,-4.0,-6.0,21.0,13.0,7.0,13.0,2.0,-12.0,31.0,0.0
-14.0,-3.0,-7.0,26.0,18.0,4.0,11.0,-1.0,-25.0,1.0,0.0
-2.0,-10.0,-3.0,17.0,17.0,1.0,8.0,-4.0,-14.0,-17.0,0.0
-2.0,-5.0,10.0,20.0,18.0,-5.0,4.0,2.0,5.0,0.0,0.0
-3.0,11.0,5.0,24.0,31.0,-1.0,-1.0,5.0,0.0,5.0,0.0
22.0,22.0,23.0,24.0,22.0,-7.0,-7.0,-4.0,-3.0,35.0,0.0
52.0,18.0,30.0,19.0,19.0,-17.0,-10.0,-19.0,25.0,118.0,0.0
65.0,23.0,11.0,13.0,5.0,-25.0,-19.0,-28.0,45.0,186.0,0.0
65.0,16.0,-12.0,-7.0,-15.0,-28.0,-31.0,-35.0,34.0,212.0,0.0
47.0,5.0,-21.0,-44.0,-24.0,-33.0,-29.0,-35.0,13.0,133.0,0.0
-5.0,0.0,-9.0,-42.0,-13.0,-33.0,-13.0,-33.0,-25.0,-68.0,0.0
-47.0,-5.0,-8.0,-26.0,11.0,-9.0,15.0,-13.0,-21.0,-145.0,0.0
-64.0,-25.0,-8.0,-19.0,16.0,7.0,16.0,3.0,-4.0,-122.0,0.0
-55.0,-13.0,-18.0,-14.0,10.0,11.0,3.0,3.0,-17.0,-111.0,0.0
-42.0,-7.0,-17.0,-8.0,8.0,-2.0,-7.0,-12.0,-16.0,-66.0,0.0
-45.0,-7.0,-20.0,-4.0,5.0,0.0,-13.0,-6.0,8.0,-18.0,0.0
-32.0,0.0,-11.0,-8.0,12.0,7.0,-6.0,8.0,41.0,11.0,0.0
-19.0,-12.0,-7.0,-1.0,11.0,8.0,-4.0,14.0,48.0,15.0,0.0
-10.0,-9.0,0.0,11.0,4.0,16.0,-17.0,8.0,32.0,19.0,0.0
-2.0,-3.0,-6.0,24.0,1.0,13.0,-19.0,0.0,8.0,16.0,0.0
13.0,-4.0,-18.0,28.0,3.0,13.0,-11.0,2.0,5.0,17.0,0.0
15.0,6.0,-9.0,28.0,12.0,8.0,-11.0,7.0,10.0,-3.0,0.0
12.0,25.0,-2.0,45.0,19.0,-2.0,-10.0,6.0,12.0,-45.0,0.0
0.0,29.0,10.0,59.0,29.0,6.0,-7.0,7.0,11.0,-55.0,0.0
-20.0,3.0,6.0,47.0,34.0,15.0,2.0,26.0,10.0,-35.0,0.0
-34.0,-12.0,10.0,25.0,27.0,16.0,0.0,35.0,-11.0,-55.0,0.0
-29.0,-20.0,-9.0,20.0,4.0,10.0,5.0,32.0,-4.0,-66.0,0.0
-26.0,-23.0,-15.0,15.0,-1.0,5.0,13.0,21.0,-1.0,-62.0,0.0
-15.0,-22.0,-12.0,18.0,0.0,10.0,12.0,11.0,-13.0,-47.0,0.0
1.0,-14.0,-5.0,17.0,3.0,5.0,3.0,6.0,0.0,9.0,0.0
8.0,-16.0,14.0,13.0,4.0,6.0,0.0,-6.0,-6.0,37.0,0.0
11.0,-10.0,-3.0,12.0,1.0,8.0,0.0,-10.0,-20.0,58.0,0.0
17.0,0.0,-10.0,6.0,9.0,2.0,7.0,-5.0,-15.0,58.0,0.0
4.0,-6.0,-14.0,-3.0,4.0,12.0,-4.0,-16.0,-49.0,3.0,0.0
-16.0,-11.0,-18.0,-4.0,2.0,11.0,-11.0,-20.0,-70.0,-49.0,0.0
-14.0,0.0,-14.0,-3.0,1.0,8.0,-9.0,-18.0,-49.0,-43.0,0.0
-14.0,-4.0,2.0,-9.0,9.0,12.0,0.0,-7.0,-20.0,-40.0,0.0
-12.0,-6.0,4.0,-9.0,14.0,12.0,3.0,13.0,23.0,-24.0,0.0
0.0,-3.0,-3.0,3.0,8.0,12.0,1.0,12.0,30.0,0.0,0.0
6.0,-2.0,2.0,22.0,4.0,2.0,-3.0,-5.0,-2.0,1.0,0.0
15.0,-1.0,5.0,28.0,3.0,-12.0,0.0,-12.0,-10.0,3.0,0.0
18.0,0.0,2.0,12.0,-15.0,-16.0,-5.0,-18.0,-15.0,14.0,0.0
34.0,0.0,-2.0,-8.0,-27.0,-15.0,-12.0,-21.0,-6.0,61.0,0.0
57.0,6.0,7.0,-13.0,-22.0,-31.0,-23.0,-21.0,26.0,141.0,0.0
85.0,12.0,-5.0,-9.0,-25.0,-27.0,-32.0,-10.0,55.0,196.0,0.0
73.0,17.0,-12.0,-15.0,-26.0,-33.0,-40.0,-1.0,58.0,205.0,0.0
44.0,1.0,-17.0,-21.0,-32.0,-40.0,-34.0,2.0,28.0,158.0,0.0
1.0,-26.0,-42.0,-28.0,-37.0,-43.0,-32.0,-7.0,-26.0,37.0,0.0
-18.0,-35.0,-27.0,-20.0,-30.0,-25.0,-14.0,-4.0,-50.0,-89.0,0.0
-29.0,-26.0,-20.0,0.0,2.0,-7.0,5.0,12.0,-49.0,-126.0,0.0
-28.0,-14.0,2.0,17.0,10.0,0.0,11.0,9.0,-54.0,-111.0,0.0
-16.0,-7.0,28.0,19.0,12.0,3.0,8.0,5.0,-74.0,-87.0,0.0
-12.0,-5.0,22.0,11.0,24.0,8.0,4.0,-5.0,-64.0,-67.0,0.0
-23.0,-19.0,17.0,7.0,25.0,0.0,1.0,15.0,-15.0,-27.0,0.0
-50.0,-33.0,0.0,-11.0,15.0,0.0,15.0,47.0,22.0,3.0,0.0
-80.0,-51.0,4.0,-21.0,1.0,0.0,30.0,67.0,43.0,-1.0,0.0
-89.0,-47.0,-3.0,-20.0,12.0,6.0,41.0,59.0,43.0,-25.0,0.0
-72.0,-32.0,-6.0,-19.0,14.0,8.0,36.0,37.0,29.0,-30.0,0.0
-55.0,-17.0,-6.0,-22.0,0.0,-10.0,16.0,26.0,10.0,-24.0,0.0
-35.0,-11.0,2.0,-29.0,1.0,-14.0,5.0,17.0,0.0,-17.0,0.0
-24.0,-9.0,1.0,-15.0,2.0,-11.0,-2.0,12.0,-13.0,-10.0,0.0
-25.0,-8.0,-2.0,-7.0,8.0,-2.0,0.0,-2.0,-14.0,-8.0,0.0
-32.0,-6.0,-2.0,-12.0,8.0,5.0,6.0,-3.0,-1.0,0.0,0.0
-30.0,-6.0,-2.0,-11.0,7.0,5.0,10.0,9.0,13.0,14.0,0.0
-31.0,5.0,17.0,-10.0,8.0,11.0,16.0,20.0,5.0,24.0,0.0
-25.0,4.0,34.0,-21.0,9.0,21.0,12.0,14.0,-15.0,25.0,0.0
-12.0,1.0,12.0,-22.0,2.0,5.0,-10.0,2.0,-14.0,43.0,0.0
4.0,-1.0,14.0,-30.0,2.0,1.0,-11.0,2.0,0.0,37.0,0.0
3.0,-1.0,6.0,-31.0,12.0,-3.0,0.0,0.0,-4.0,7.0,0.0
1.0,6.0,0.0,-19.0,2.0,4.0,-12.0,0.0,-19.0,3.0,0.0
3.0,6.0,0.0,-13.0,12.0,2.0,-20.0,-17.0,-29.0,6.0,0.0
4.0,8.0,11.0,2.0,14.0,-7.0,-25.0,-26.0,-13.0,-4.0,0.0
-5.0,18.0,2.0,2.0,0.0,-1.0,-18.0,-7.0,-6.0,7.0,0.0
-21.0,14.0,4.0,0.0,-4.0,3.0,-17.0,8.0,-4.0,9.0,0.0
-18.0,22.0,7.0,11.0,-4.0,-3.0,-16.0,0.0,8.0,-4.0,0.0
-15.0,10.0,2.0,4.0,-8.0,-3.0,-18.0,-5.0,12.0,-5.0,0.0
-10.0,-13.0,0.0,0.0,-3.0,-4.0,-14.0,-2.0,11.0,3.0,0.0
-15.0,-17.0,-2.0,-27.0,6.0,-15.0,-17.0,-13.0,24.0,-7.0,0.0
-7.0,-3.0,-2.0,-34.0,5.0,-10.0,-10.0,-11.0,29.0,3.0,0.0
0.0,2.0,-10.0,-23.0,2.0,-7.0,0.0,13.0,44.0,5.0,0.0
3.0,-1.0,-12.0,-21.0,-10.0,-26.0,-4.0,16.0,56.0,30.0,0.0
0.0,-8.0,-8.0,-34.0,-24.0,-36.0,-12.0,13.0,67.0,64.0,0.0
-4.0,-10.0,-12.0,-34.0,-22.0,-34.0,-14.0,0.0,36.0,86.0,0.0
-7.0,-11.0,-4.0,-42.0,-24.0,-22.0,-22.0,-22.0,-9.0,67.0,0.0
-10.0,-7.0,2.0,-45.0,-22.0,-13.0,-21.0,-27.0,-33.0,10.0,0.0
-16.0,-2.0,3.0,-31.0,-9.0,-6.0,-11.0,-24.0,-41.0,-34.0,0.0
-20.0,5.0,10.0,-23.0,3.0,9.0,8.0,-22.0,-37.0,-41.0,0.0
-18.0,7.0,1.0,-17.0,-4.0,9.0,2.0,-11.0,-23.0,-26.0,0.0
-7.0,9.0,15.0,-14.0,-12.0,0.0,-2.0,-2.0,-21.0,-7.0,0.0
5.0,6.0,3.0,-20.0,-9.0,-16.0,0.0,-6.0,-6.0,2.0,0.0
11.0,-8.0,4.0,-22.0,-11.0,-17.0,-5.0,-17.0,10.0,24.0,0.0
18.0,-3.0,0.0,-20.0,-12.0,-14.0,-13.0,-20.0,8.0,66.0,0.0
35.0,5.0,11.0,-15.0,0.0,-9.0,-8.0,-12.0,34.0,141.0,0.0
51.0,4.0,2.0,-9.0,2.0,-6.0,-1.0,4.0,60.0,188.0,0.0
60.0,12.0,10.0,-10.0,2.0,-6.0,12.0,13.0,79.0,212.0,0.0
41.0,1.0,-5.0,-23.0,-16.0,-30.0,0.0,-11.0,59.0,175.0,0.0
3.0,-17.0,-36.0,-36.0,-33.0,-50.0,-21.0,-28.0,-1.0,34.0,0.0
-2.0,-17.0,-28.0,-11.0,-40.0,-36.0,-25.0,-19.0,-33.0,-66.0,0.0
-2.0,-15.0,11.0,12.0,-29.0,-7.0,-11.0,2.0,-27.0,-85.0,0.0
-17.0,-7.0,7.0,22.0,-1.0,17.0,8.0,4.0,-34.0,-147.0,0.0
-16.0,-4.0,15.0,24.0,18.0,30.0,23.0,5.0,-45.0,-155.0,0.0
-11.0,-6.0,30.0,28.0,21.0,29.0,8.0,0.0,-44.0,-128.0,0.0
-11.0,-11.0,6.0,33.0,12.0,21.0,12.0,0.0,-46.0,-103.0,0.0
-8.0,-8.0,4.0,17.0,8.0,15.0,11.0,8.0,-28.0,-88.0,0.0
-10.0,0.0,-3.0,12.0,10.0,17.0,11.0,29.0,-5.0,-72.0,0.0
-16.0,3.0,-3.0,0.0,18.0,32.0,20.0,41.0,0.0,-67.0,0.0
-20.0,9.0,0.0,18.0,24.0,40.0,13.0,23.0,-18.0,-77.0,0.0
-11.0,11.0,-7.0,27.0,15.0,31.0,15.0,5.0,-35.0,-63.0,0.0
10.0,17.0,20.0,33.0,11.0,23.0,5.0,-7.0,-35.0,-41.0,0.0
25.0,15.0,36.0,25.0,12.0,18.0,-10.0,-9.0,-36.0,16.0,0.0
44.0,18.0,17.0,2.0,4.0,8.0,-13.0,-12.0,-6.0,81.0,0.0
66.0,21.0,9.0,-22.0,-5.0,-1.0,-16.0,-3.0,45.0,136.0,0.0
86.0,7.0,-3.0,-31.0,-17.0,-11.0,-32.0,-6.0,59.0,201.0,0.0
67.0,-10.0,-14.0,-45.0,-17.0,-22.0,-51.0,-7.0,46.0,202.0,0.0
38.0,-30.0,-18.0,-39.0,-26.0,-31.0,-37.0,2.0,-5.0,118.0,0.0
19.0,-17.0,7.0,-20.0,-17.0,-32.0,-24.0,-13.0,-51.0,-35.0,0.0
-7.0,-6.0,9.0,-9.0,1.0,-13.0,-11.0,2.0,-39.0,-118.0,0.0
-51.0,-12.0,14.0,-5.0,8.0,16.0,14.0,13.0,-29.0,-101.0,0.0
-72.0,-13.0,9.0,-1.0,15.0,31.0,23.0,11.0,-70.0,-132.0,0.0
-69.0,-5.0,3.0,4.0,27.0,35.0,22.0,5.0,-75.0,-162.0,0.0
-58.0,4.0,5.0,9.0,26.0,31.0,15.0,-3.0,-72.0,-137.0,0.0
-31.0,22.0,-7.0,16.0,8.0,16.0,0.0,-17.0,-84.0,-95.0,0.0
-22.0,29.0,-11.0,10.0,-2.0,8.0,6.0,-8.0,-82.0,-70.0,0.0
-17.0,15.0,-11.0,-3.0,0.0,16.0,13.0,-6.0,-87.0,-58.0,0.0
-24.0,8.0,-17.0,-5.0,5.0,19.0,5.0,-22.0,-100.0,-50.0,0.0
-20.0,-3.0,-22.0,21.0,4.0,19.0,-3.0,-24.0,-104.0,-36.0,0.0
-9.0,0.0,-1.0,40.0,0.0,6.0,-5.0,-9.0,-110.0,-3.0,0.0
8.0,1.0,-6.0,22.0,-15.0,-1.0,-8.0,-8.0,-102.0,14.0,0.0
15.0,-9.0,-8.0,13.0,-19.0,-4.0,-17.0,-10.0,-93.0,6.0,0.0
7.0,-31.0,-23.0,0.0,-20.0,-12.0,-36.0,-13.0,-88.0,-15.0,0.0
15.0,-15.0,-42.0,-9.0,-19.0,-5.0,-42.0,-10.0,-86.0,-24.0,0.0
31.0,4.0,-26.0,6.0,-16.0,-7.0,-38.0,-3.0,-75.0,0.0,0.0
34.0,5.0,-37.0,-2.0,-19.0,-21.0,-42.0,-12.0,-66.0,18.0,0.0
47.0,0.0,-48.0,-17.0,-38.0,-28.0,-53.0,-20.0,-37.0,58.0,0.0
68.0,7.0,-53.0,-14.0,-44.0,-25.0,-43.0,-22.0,-17.0,135.0,0.0
55.0,9.0,-44.0,-10.0,-39.0,-26.0,-25.0,-8.0,19.0,174.0,0.0
24.0,-6.0,-46.0,-19.0,-32.0,-20.0,-15.0,6.0,29.0,163.0,0.0
7.0,-13.0,-48.0,-18.0,-36.0,-21.0,-19.0,-4.0,-3.0,130.0,0.0
-22.0,-16.0,-49.0,-11.0,-29.0,-24.0,-9.0,-18.0,-71.0,-38.0,0.0
-31.0,-12.0,-27.0,6.0,-5.0,-7.0,9.0,-14.0,-119.0,-226.0,0.0
-32.0,-4.0,-6.0,17.0,17.0,17.0,22.0,-1.0,-109.0,-239.0,0.0
-37.0,-10.0,12.0,32.0,32.0,29.0,22.0,0.0,-117.0,-191.0,0.0
-15.0,-12.0,8.0,25.0,35.0,19.0,7.0,-20.0,-112.0,-134.0,0.0
9.0,-6.0,-7.0,-12.0,11.0,-6.0,-10.0,-36.0,-87.0,-46.0,0.0
18.0,1.0,7.0,-35.0,-8.0,-20.0,-23.0,-45.0,-68.0,-3.0,0.0
1.0,-5.0,-7.0,-37.0,-21.0,-24.0,-27.0,-32.0,-17.0,31.0,0.0
-25.0,-25.0,-17.0,-26.0,-28.0,-37.0,-10.0,7.0,55.0,98.0,0.0
-52.0,-40.0,-26.0,-11.0,-31.0,-36.0,9.0,35.0,79.0,82.0,0.0
-55.0,-31.0,-16.0,2.0,-11.0,-17.0,21.0,23.0,25.0,-6.0,0.0
-65.0,-37.0,3.0,17.0,12.0,-6.0,27.0,12.0,-14.0,-70.0,0.0
-57.0,-29.0,21.0,23.0,13.0,3.0,26.0,12.0,-24.0,-89.0,0.0
-40.0,-30.0,30.0,29.0,16.0,2.0,16.0,19.0,-42.0,-90.0,0.0
-24.0,-16.0,28.0,34.0,19.0,-4.0,7.0,11.0,-53.0,-90.0,0.0
0.0,-2.0,34.0,35.0,18.0,0.0,4.0,4.0,-43.0,-69.0,0.0
4.0,-3.0,22.0,36.0,6.0,6.0,4.0,13.0,-8.0,-48.0,0.0
15.0,8.0,29.0,35.0,8.0,9.0,2.0,17.0,6.0,-36.0,0.0
12.0,14.0,27.0,36.0,13.0,18.0,0.0,39.0,49.0,-22.0,0.0
10.0,2.0,13.0,30.0,4.0,-1.0,1.0,61.0,130.0,18.0,0.0
7.0,-12.0,-1.0,20.0,-5.0,-17.0,-4.0,47.0,132.0,79.0,0.0
-5.0,-19.0,-14.0,18.0,-8.0,-15.0,5.0,28.0,93.0,111.0,0.0
-10.0,-18.0,-10.0,13.0,-9.0,-12.0,16.0,7.0,29.0,70.0,0.0
-3.0,-19.0,-14.0,6.0,-7.0,-27.0,-6.0,-5.0,7.0,4.0,0.0
21.0,-1.0,-11.0,-1.0,-8.0,-26.0,-14.0,6.0,11.0,-9.0,0.0
17.0,22.0,4.0,13.0,-6.0,-8.0,-8.0,1.0,9.0,-31.0,0.0
-20.0,18.0,14.0,18.0,3.0,3.0,6.0,14.0,9.0,-48.0,0.0
-35.0,9.0,6.0,9.0,13.0,21.0,9.0,31.0,1.0,-61.0,0.0
-21.0,0.0,12.0,-3.0,13.0,19.0,12.0,14.0,1.0,-55.0,0.0
-9.0,5.0,17.0,-11.0,5.0,11.0,10.0,7.0,19.0,-34.0,0.0
-9.0,2.0,15.0,-13.0,-2.0,-3.0,1.0,8.0,7.0,-23.0,0.0
1.0,-3.0,8.0,-12.0,-8.0,-5.0,-4.0,6.0,0.0,-13.0,0.0
10.0,0.0,5.0,-6.0,-11.0,6.0,-2.0,0.0,4.0,-3.0,0.0
27.0,12.0,17.0,-10.0,-10.0,6.0,-2.0,-1.0,14.0,22.0,0.0
56.0,13.0,15.0,-9.0,-7.0,0.0,-2.0,-4.0,15.0,46.0,0.0
63.0,8.0,17.0,0.0,-7.0,-13.0,-9.0,-7.0,14.0,56.0,0.0
54.0,8.0,7.0,16.0,-12.0,-12.0,-18.0,-1.0,16.0,59.0,0.0
31.0,8.0,-9.0,24.0,-9.0,-12.0,-15.0,-9.0,24.0,38.0,0.0
0.0,0.0,-12.0,21.0,4.0,-11.0,-2.0,-3.0,21.0,-20.0,0.0
-15.0,0.0,-19.0,23.0,5.0,-5.0,-1.0,-2.0,19.0,-23.0,0.0
-15.0,2.0,-11.0,10.0,5.0,6.0,3.0,4.0,33.0,17.0,0.0
-2.0,0.0,-14.0,-5.0,-7.0,6.0,10.0,11.0,38.0,89.0,0.0
-7.0,-12.0,-24.0,-18.0,-27.0,-1.0,15.0,7.0,21.0,86.0,0.0
-7.0,-11.0,-8.0,-1.0,-20.0,9.0,18.0,-6.0,9.0,15.0,0.0
8.0,0.0,5.0,4.0,-9.0,11.0,25.0,-13.0,2.0,-12.0,0.0
18.0,7.0,24.0,9.0,-12.0,2.0,12.0,-13.0,3.0,-1.0,0.0
11.0,7.0,3.0,9.0,-14.0,-3.0,-6.0,-22.0,-11.0,-3.0,0.0
-1.0,7.0,-19.0,0.0,-17.0,-10.0,-4.0,-17.0,-8.0,-13.0,0.0
14.0,14.0,-14.0,0.0,-20.0,-17.0,1.0,-10.0,-6.0,-11.0,0.0
21.0,12.0,0.0,0.0,-22.0,-16.0,0.0,-9.0,5.0,-18.0,0.0
0.0,0.0,-8.0,-11.0,-12.0,-1.0,2.0,-14.0,0.0,-19.0,0.0
3.0,-4.0,-16.0,-23.0,-12.0,-6.0,9.0,-16.0,13.0,4.0,0.0
10.0,-12.0,-15.0,-16.0,-4.0,-18.0,15.0,-18.0,18.0,10.0,0.0
4.0,-3.0,-14.0,-9.0,0.0,-1.0,17.0,-16.0,5.0,-15.0,0.0
5.0,4.0,-15.0,-1.0,-10.0,-1.0,0.0,-20.0,-3.0,-23.0,0.0
2.0,18.0,-7.0,-6.0,-13.0,-9.0,-4.0,-33.0,20.0,4.0,0.0
22.0,24.0,0.0,0.0,-14.0,-11.0,-7.0,-29.0,39.0,47.0,0.0
38.0,30.0,-1.0,-6.0,-9.0,-12.0,-9.0,-15.0,57.0,106.0,0.0
17.0,7.0,-6.0,-7.0,-9.0,-18.0,-1.0,-18.0,68.0,120.0,0.0
-21.0,-27.0,-11.0,-10.0,-12.0,-19.0,-1.0,-28.0,30.0,44.0,0.0
-41.0,-26.0,-9.0,0.0,6.0,-10.0,2.0,-17.0,0.0,-32.0,0.0
-28.0,-3.0,-7.0,11.0,24.0,5.0,23.0,0.0,9.0,-57.0,0.0
-18.0,0.0,-4.0,3.0,27.0,15.0,22.0,12.0,17.0,-69.0,0.0
-15.0,0.0,-13.0,12.0,25.0,9.0,8.0,12.0,5.0,-49.0,0.0
-9.0,1.0,-24.0,11.0,20.0,9.0,0.0,9.0,10.0,-23.0,0.0
4.0,-10.0,-19.0,0.0,12.0,3.0,-6.0,4.0,19.0,-4.0,0.0
11.0,-21.0,-19.0,3.0,17.0,-2.0,-6.0,6.0,29.0,5.0,0.0
15.0,-7.0,-17.0,13.0,23.0,5.0,9.0,2.0,29.0,2.0,0.0
11.0,0.0,-15.0,7.0,22.0,3.0,3.0,-7.0,16.0,-5.0,0.0
17.0,3.0,0.0,6.0,19.0,0.0,-14.0,-19.0,1.0,12.0,0.0
19.0,6.0,22.0,9.0,19.0,-2.0,-7.0,-22.0,0.0,23.0,0.0
19.0,9.0,28.0,12.0,15.0,1.0,-1.0,-24.0,7.0,25.0,0.0
12.0,10.0,25.0,5.0,6.0,8.0,-4.0,-23.0,6.0,16.0,0.0
13.0,22.0,15.0,-3.0,1.0,14.0,-2.0,-19.0,-2.0,9.0,0.0
15.0,25.0,6.0,-4.0,8.0,7.0,-1.0,-17.0,1.0,1.0,0.0
-2.0,10.0,-2.0,2.0,19.0,7.0,-3.0,-13.0,0.0,2.0,0.0
-34.0,-5.0,0.0,0.0,0.0,15.0,2.0,3.0,18.0,-7.0,0.0
-42.0,-13.0,4.0,0.0,3.0,17.0,0.0,3.0,26.0,-1.0,0.0
-27.0,-2.0,-6.0,1.0,9.0,9.0,-17.0,4.0,24.0,-1.0,0.0
-14.0,0.0,-13.0,0.0,4.0,-3.0,-25.0,11.0,20.0,-1.0,0.0
-5.0,-2.0,-9.0,-6.0,0.0,0.0,-29.0,0.0,17.0,0.0,0.0
4.0,-3.0,-12.0,-11.0,-7.0,0.0,-30.0,-5.0,14.0,-2.0,0.0
9.0,3.0,-26.0,-14.0,-4.0,5.0,-31.0,-6.0,18.0,13.0,0.0
19.0,1.0,-28.0,-28.0,0.0,-6.0,-38.0,-11.0,30.0,25.0,0.0
38.0,4.0,-30.0,-29.0,-1.0,-7.0,-41.0,-12.0,29.0,17.0,0.0
52.0,12.0,-29.0,-16.0,4.0,-12.0,-34.0,-11.0,35.0,37.0,0.0
53.0,23.0,-24.0,-9.0,10.0,-11.0,-15.0,-13.0,37.0,69.0,0.0
37.0,26.0,-10.0,3.0,15.0,-3.0,-12.0,-13.0,23.0,67.0,0.0
19.0,24.0,-5.0,4.0,16.0,-5.0,-4.0,-15.0,-1.0,46.0,0.0
-5.0,7.0,-28.0,-14.0,7.0,-10.0,-5.0,-13.0,-9.0,11.0,0.0
-9.0,4.0,-25.0,-22.0,8.0,-6.0,-7.0,0.0,12.0,42.0,0.0
21.0,10.0,-25.0,-17.0,0.0,-5.0,2.0,12.0,52.0,128.0,0.0
53.0,14.0,-23.0,-24.0,-10.0,-17.0,-4.0,14.0,71.0,187.0,0.0
44.0,1.0,-25.0,-34.0,-19.0,-23.0,-11.0,4.0,55.0,209.0,0.0
29.0,-7.0,-42.0,-36.0,-26.0,-26.0,-21.0,-19.0,5.0,160.0,0.0
5.0,-11.0,-47.0,-42.0,-22.0,-16.0,-19.0,-28.0,-30.0,2.0,0.0
-24.0,13.0,-19.0,-22.0,-7.0,4.0,-5.0,-3.0,-43.0,-162.0,0.0
-48.0,20.0,2.0,9.0,17.0,41.0,14.0,24.0,-34.0,-211.0,0.0
-67.0,-7.0,18.0,29.0,34.0,67.0,37.0,45.0,-35.0,-210.0,0.0
-65.0,15.0,32.0,30.0,28.0,65.0,44.0,41.0,-31.0,-198.0,0.0
-45.0,18.0,33.0,32.0,4.0,50.0,35.0,23.0,-23.0,-158.0,0.0
-13.0,21.0,34.0,20.0,-3.0,30.0,30.0,15.0,-14.0,-107.0,0.0
8.0,17.0,15.0,5.0,0.0,34.0,24.0,27.0,11.0,-60.0,0.0
5.0,18.0,6.0,8.0,0.0,32.0,18.0,21.0,14.0,-33.0,0.0
4.0,16.0,7.0,11.0,0.0,24.0,9.0,18.0,10.0,-19.0,0.0
11.0,7.0,0.0,-6.0,-7.0,22.0,9.0,17.0,12.0,3.0,0.0
9.0,-4.0,-5.0,-29.0,-9.0,6.0,1.0,15.0,9.0,11.0,0.0
12.0,-3.0,-7.0,-28.0,-14.0,5.0,1.0,-2.0,3.0,9.0,0.0
18.0,7.0,-1.0,-6.0,-19.0,10.0,-1.0,-18.0,-15.0,-7.0,0.0
12.0,21.0,4.0,2.0,-18.0,11.0,-8.0,-14.0,-14.0,9.0,0.0
20.0,10.0,1.0,-5.0,-19.0,16.0,9.0,14.0,42.0,49.0,0.0
43.0,-6.0,-11.0,-16.0,-19.0,5.0,10.0,23.0,73.0,116.0,0.0
58.0,-11.0,-24.0,-12.0,-32.0,-17.0,-18.0,11.0,72.0,196.0,0.0
62.0,-16.0,-12.0,-21.0,-42.0,-35.0,-33.0,-13.0,39.0,248.0,0.0
46.0,-9.0,-13.0,-27.0,-36.0,-36.0,-24.0,-18.0,-5.0,156.0,0.0
47.0,20.0,0.0,-6.0,-12.0,-27.0,-6.0,-11.0,-3.0,42.0,0.0
36.0,38.0,21.0,16.0,5.0,2.0,-5.0,-2.0,20.0,66.0,0.0
-2.0,23.0,22.0,24.0,17.0,5.0,8.0,4.0,37.0,79.0,0.0
-23.0,-7.0,6.0,10.0,21.0,-3.0,12.0,4.0,45.0,65.0,0.0
-49.0,-30.0,5.0,4.0,17.0,0.0,15.0,31.0,45.0,49.0,0.0
-56.0,-33.0,14.0,13.0,11.0,10.0,18.0,30.0,22.0,-34.0,0.0
-56.0,-24.0,16.0,16.0,16.0,15.0,13.0,9.0,-12.0,-112.0,0.0
-48.0,-24.0,17.0,18.0,17.0,18.0,9.0,5.0,-13.0,-122.0,0.0
-15.0,-7.0,21.0,20.0,18.0,26.0,16.0,22.0,1.0,-36.0,0.0
4.0,16.0,28.0,16.0,11.0,10.0,10.0,18.0,3.0,34.0,0.0
3.0,4.0,14.0,23.0,5.0,6.0,14.0,19.0,-12.0,43.0,0.0
-7.0,0.0,2.0,24.0,10.0,11.0,7.0,20.0,-7.0,52.0,0.0
-6.0,4.0,-3.0,27.0,13.0,1.0,0.0,16.0,-3.0,9.0,0.0
-20.0,2.0,7.0,30.0,19.0,5.0,0.0,9.0,-32.0,-143.0,0.0
-38.0,1.0,24.0,38.0,35.0,22.0,23.0,17.0,-14.0,-194.0,0.0
-64.0,4.0,19.0,41.0,55.0,42.0,59.0,53.0,28.0,-165.0,0.0
-81.0,12.0,18.0,29.0,59.0,58.0,66.0,66.0,8.0,-170.0,0.0
-67.0,8.0,21.0,3.0,49.0,55.0,48.0,47.0,2.0,-135.0,0.0
-36.0,10.0,19.0,-10.0,41.0,37.0,29.0,32.0,6.0,-92.0,0.0
-19.0,6.0,11.0,-15.0,24.0,17.0,21.0,23.0,-3.0,-61.0,0.0
-2.0,8.0,-4.0,-23.0,7.0,1.0,9.0,12.0,2.0,-37.0,0.0
9.0,12.0,-12.0,-31.0,-1.0,-8.0,7.0,11.0,19.0,-12.0,0.0
12.0,7.0,-8.0,-46.0,-16.0,-18.0,7.0,19.0,49.0,38.0,0.0
13.0,5.0,-4.0,-50.0,-16.0,-24.0,4.0,17.0,48.0,80.0,0.0
12.0,4.0,3.0,-53.0,-15.0,-28.0,-14.0,-11.0,5.0,81.0,0.0
10.0,5.0,9.0,-46.0,-13.0,-24.0,-17.0,-33.0,-21.0,44.0,0.0
-5.0,0.0,13.0,-14.0,2.0,-23.0,-9.0,-42.0,-30.0,12.0,0.0
0.0,11.0,18.0,0.0,12.0,-8.0,2.0,-41.0,-33.0,23.0,0.0
9.0,21.0,31.0,9.0,14.0,-3.0,6.0,-41.0,-18.0,23.0,0.0
5.0,34.0,18.0,6.0,9.0,-1.0,2.0,-42.0,-24.0,-4.0,0.0
15.0,45.0,9.0,11.0,4.0,10.0,10.0,-26.0,-13.0,-24.0,0.0
24.0,34.0,5.0,17.0,18.0,14.0,19.0,-8.0,10.0,-2.0,0.0
11.0,21.0,-5.0,24.0,12.0,6.0,24.0,14.0,34.0,25.0,0.0
-1.0,7.0,-8.0,25.0,7.0,8.0,27.0,12.0,33.0,0.0,0.0
0.0,11.0,5.0,28.0,8.0,6.0,32.0,5.0,2.0,-40.0,0.0
7.0,15.0,18.0,25.0,17.0,5.0,22.0,-2.0,-17.0,-14.0,0.0
11.0,13.0,6.0,20.0,16.0,-4.0,8.0,-6.0,-14.0,22.0,0.0
-4.0,15.0,-6.0,20.0,21.0,-10.0,-2.0,-10.0,-7.0,28.0,0.0
-16.0,18.0,-7.0,17.0,13.0,-7.0,1.0,-2.0,8.0,30.0,0.0
-23.0,18.0,-5.0,11.0,22.0,-5.0,-1.0,0.0,5.0,20.0,0.0
-26.0,17.0,-2.0,13.0,19.0,4.0,-7.0,-3.0,-15.0,-6.0,0.0
-16.0,10.0,-1.0,8.0,13.0,15.0,-8.0,2.0,-23.0,-25.0,0.0
2.0,9.0,0.0,13.0,13.0,5.0,5.0,-1.0,-18.0,-31.0,0.0
11.0,7.0,-2.0,22.0,7.0,3.0,4.0,-2.0,-48.0,-39.0,0.0
5.0,10.0,7.0,14.0,8.0,1.0,-1.0,-11.0,-52.0,-37.0,0.0
18.0,19.0,5.0,5.0,3.0,3.0,-17.0,-13.0,-7.0,-21.0,0.0
30.0,29.0,5.0,-7.0,-12.0,9.0,-21.0,0.0,44.0,-12.0,0.0
22.0,35.0,11.0,-14.0,-10.0,-1.0,-11.0,1.0,47.0,-3.0,0.0
0.0,29.0,7.0,-12.0,-8.0,1.0,-8.0,-5.0,22.0,-23.0,0.0
-41.0,-8.0,-22.0,-18.0,-10.0,-9.0,-10.0,-12.0,14.0,-47.0,0.0
-67.0,-38.0,-37.0,-29.0,-14.0,-14.0,-2.0,-2.0,3.0,-63.0,0.0
-65.0,-41.0,-35.0,-34.0,-6.0,-17.0,-3.0,3.0,-9.0,-46.0,0.0
-41.0,-23.0,-26.0,-27.0,4.0,-15.0,1.0,-1.0,-16.0,9.0,0.0
-6.0,1.0,1.0,-11.0,7.0,-13.0,-8.0,-15.0,-8.0,50.0,0.0
26.0,10.0,5.0,-16.0,-8.0,-29.0,-18.0,-13.0,13.0,62.0,0.0
45.0,-5.0,-13.0,-35.0,-19.0,-30.0,-20.0,-1.0,13.0,31.0,0.0
17.0,-23.0,-33.0,-38.0,-23.0,-18.0,-23.0,5.0,-4.0,-42.0,0.0
-7.0,-23.0,-20.0,-31.0,0.0,-3.0,-16.0,9.0,-5.0,-88.0,0.0
-22.0,-19.0,-4.0,-25.0,15.0,5.0,3.0,10.0,-10.0,-114.0,0.0
-18.0,-16.0,7.0,-9.0,22.0,17.0,6.0,7.0,-22.0,-131.0,0.0
-11.0,-6.0,23.0,14.0,31.0,25.0,2.0,1.0,-32.0,-111.0,0.0
-15.0,-6.0,19.0,14.0,28.0,19.0,11.0,-6.0,-35.0,-82.0,0.0
-5.0,-3.0,11.0,14.0,21.0,18.0,5.0,-9.0,-32.0,-61.0,0.0
19.0,6.0,11.0,-10.0,12.0,8.0,0.0,-9.0,-21.0,-34.0,0.0
19.0,10.0,16.0,-16.0,2.0,0.0,2.0,-3.0,-16.0,-43.0,0.0
-6.0,6.0,22.0,-1.0,5.0,4.0,-8.0,-1.0,-30.0,-69.0,0.0
-14.0,-11.0,14.0,-13.0,10.0,6.0,-9.0,-5.0,-30.0,-74.0,0.0
-6.0,-8.0,11.0,-27.0,1.0,7.0,-5.0,0.0,-1.0,-57.0,0.0
-7.0,-4.0,6.0,-27.0,-12.0,-8.0,-3.0,2.0,3.0,-36.0,0.0
-13.0,-15.0,1.0,-24.0,-15.0,-13.0,-8.0,-14.0,-17.0,-39.0,0.0
-38.0,-22.0,5.0,-20.0,3.0,-6.0,-15.0,-21.0,-27.0,-73.0,0.0
-44.0,-32.0,2.0,-12.0,25.0,9.0,-14.0,-7.0,-24.0,-80.0,0.0
-41.0,-33.0,-4.0,-1.0,18.0,19.0,-14.0,-5.0,-33.0,-62.0,0.0
-26.0,-21.0,4.0,3.0,4.0,-4.0,-13.0,-14.0,-17.0,-39.0,0.0
-16.0,-16.0,0.0,-7.0,-8.0,-8.0,0.0,-13.0,-11.0,-29.0,0.0
-4.0,-20.0,4.0,0.0,-5.0,2.0,0.0,-4.0,-13.0,-29.0,0.0
-4.0,-5.0,2.0,1.0,-7.0,4.0,-1.0,-2.0,4.0,-15.0,0.0
-9.0,-7.0,-7.0,0.0,0.0,-11.0,-1.0,-7.0,13.0,-7.0,0.0
1.0,-15.0,1.0,2.0,1.0,-14.0,6.0,-6.0,14.0,-10.0,0.0
9.0,-21.0,-1.0,1.0,-7.0,-12.0,4.0,-16.0,16.0,-16.0,0.0
7.0,-19.0,-10.0,0.0,-8.0,-17.0,-2.0,-20.0,6.0,-15.0,0.0
10.0,-10.0,-12.0,5.0,3.0,-19.0,-5.0,-28.0,1.0,-10.0,0.0
2.0,-7.0,-6.0,2.0,0.0,-13.0,-6.0,-33.0,12.0,-7.0,0.0
-17.0,-17.0,7.0,5.0,-6.0,-13.0,-7.0,-25.0,19.0,-15.0,0.0
-20.0,-14.0,6.0,1.0,-13.0,-24.0,-12.0,-27.0,20.0,-9.0,0.0
-7.0,-5.0,-11.0,-3.0,-13.0,-31.0,-24.0,-14.0,10.0,-2.0,0.0
-4.0,1.0,13.0,2.0,-7.0,-22.0,-29.0,-15.0,2.0,-5.0,0.0
-8.0,3.0,20.0,0.0,0.0,-15.0,-23.0,-10.0,2.0,-12.0,0.0
1.0,-5.0,1.0,-4.0,-7.0,-5.0,-16.0,-12.0,2.0,-8.0,0.0
-5.0,-1.0,6.0,-4.0,-8.0,-7.0,-9.0,0.0,17.0,0.0,0.0
-8.0,3.0,11.0,-6.0,-8.0,-7.0,-2.0,7.0,15.0,2.0,0.0
-4.0,7.0,11.0,-11.0,-10.0,-15.0,4.0,9.0,18.0,7.0,0.0
2.0,10.0,23.0,-25.0,-13.0,-13.0,1.0,1.0,21.0,11.0,0.0
3.0,14.0,18.0,-34.0,-10.0,0.0,-9.0,-9.0,17.0,16.0,0.0
8.0,2.0,6.0,-36.0,-11.0,4.0,-4.0,-1.0,-4.0,9.0,0.0
5.0,-5.0,6.0,-39.0,-16.0,3.0,-7.0,-5.0,-24.0,2.0,0.0
2.0,-7.0,4.0,-38.0,-8.0,7.0,-8.0,-22.0,-41.0,-16.0,0.0
7.0,-7.0,12.0,-35.0,-2.0,9.0,3.0,-27.0,-40.0,-12.0,0.0
8.0,5.0,5.0,-41.0,-4.0,3.0,7.0,-13.0,-23.0,20.0,0.0
11.0,0.0,3.0,-41.0,-1.0,0.0,5.0,-7.0,-6.0,63.0,0.0
25.0,4.0,5.0,-34.0,-11.0,-14.0,11.0,7.0,11.0,81.0,0.0
31.0,4.0,8.0,-26.0,-20.0,-27.0,8.0,14.0,29.0,98.0,0.0
33.0,0.0,-4.0,-24.0,-19.0,-15.0,-6.0,19.0,48.0,120.0,0.0
27.0,-1.0,-7.0,-31.0,-15.0,-11.0,2.0,31.0,53.0,125.0,0.0
-3.0,-7.0,2.0,-16.0,-10.0,1.0,23.0,26.0,41.0,79.0,0.0
-29.0,-14.0,3.0,-5.0,-5.0,20.0,36.0,24.0,23.0,2.0,0.0
-36.0,-12.0,11.0,4.0,-2.0,27.0,37.0,12.0,6.0,-26.0,0.0
-24.0,4.0,15.0,8.0,-2.0,24.0,32.0,4.0,8.0,-24.0,0.0
0.0,12.0,1.0,4.0,-5.0,9.0,24.0,19.0,15.0,-13.0,0.0
4.0,14.0,4.0,1.0,-5.0,-3.0,23.0,19.0,20.0,7.0,0.0
1.0,11.0,8.0,0.0,-14.0,1.0,19.0,12.0,41.0,27.0,0.0
-7.0,-2.0,7.0,1.0,-17.0,7.0,9.0,1.0,30.0,21.0,0.0
-13.0,2.0,14.0,6.0,-11.0,12.0,10.0,-6.0,17.0,-9.0,0.0
-1.0,13.0,13.0,12.0,-3.0,13.0,11.0,12.0,44.0,-32.0,0.0
12.0,11.0,2.0,6.0,-6.0,15.0,12.0,28.0,51.0,2.0,0.0
14.0,-3.0,2.0,-1.0,-12.0,5.0,2.0,13.0,47.0,79.0,0.0
1.0,-8.0,-15.0,-9.0,-18.0,0.0,-13.0,-8.0,-3.0,100.0,0.0
-3.0,-1.0,-18.0,-10.0,-28.0,-4.0,-24.0,-37.0,-48.0,-5.0,0.0
1.0,3.0,0.0,4.0,-19.0,0.0,-17.0,-29.0,-44.0,-58.0,0.0
-9.0,-4.0,3.0,18.0,-10.0,9.0,-2.0,-4.0,-27.0,-42.0,0.0
-20.0,-18.0,1.0,16.0,-3.0,5.0,12.0,28.0,22.0,-18.0,0.0
-35.0,-17.0,3.0,12.0,0.0,12.0,28.0,39.0,54.0,-15.0,0.0
-34.0,-12.0,6.0,8.0,-3.0,25.0,52.0,33.0,63.0,-24.0,0.0
-16.0,-19.0,-1.0,10.0,-16.0,20.0,37.0,23.0,45.0,3.0,0.0
5.0,-12.0,0.0,10.0,-36.0,2.0,12.0,9.0,12.0,39.0,0.0
0.0,-17.0,-5.0,8.0,-31.0,-2.0,-1.0,-17.0,-26.0,24.0,0.0
-10.0,-20.0,1.0,16.0,-9.0,10.0,-5.0,-26.0,-35.0,-12.0,0.0
6.0,-10.0,4.0,12.0,-19.0,-2.0,-24.0,-26.0,-20.0,26.0,0.0
39.0,-7.0,13.0,-6.0,-29.0,-13.0,-32.0,-30.0,-6.0,72.0,0.0
49.0,-11.0,24.0,-5.0,-19.0,-6.0,-33.0,-15.0,19.0,92.0,0.0
50.0,-8.0,33.0,6.0,-13.0,-10.0,-28.0,-5.0,41.0,127.0,0.0
29.0,-27.0,2.0,5.0,-15.0,-9.0,-18.0,3.0,33.0,128.0,0.0
-32.0,-40.0,-15.0,10.0,-15.0,1.0,-10.0,11.0,1.0,-25.0,0.0
-64.0,-30.0,-3.0,20.0,0.0,20.0,-1.0,11.0,-57.0,-221.0,0.0
-76.0,-20.0,7.0,32.0,21.0,39.0,27.0,25.0,-65.0,-263.0,0.0
-74.0,-23.0,22.0,35.0,41.0,38.0,46.0,24.0,-56.0,-241.0,0.0
-33.0,-13.0,21.0,36.0,43.0,30.0,31.0,2.0,-50.0,-173.0,0.0
12.0,3.0,26.0,24.0,28.0,18.0,-2.0,-14.0,-20.0,-43.0,0.0
42.0,-2.0,0.0,8.0,-1.0,6.0,-24.0,-26.0,13.0,114.0,0.0
87.0,-1.0,-5.0,-12.0,-24.0,-17.0,-40.0,-28.0,30.0,258.0,0.0
116.0,2.0,-10.0,-31.0,-39.0,-52.0,-51.0,-41.0,33.0,287.0,0.0
65.0,-7.0,-5.0,-35.0,-38.0,-61.0,-51.0,-49.0,-30.0,73.0,0.0
-4.0,-9.0,17.0,-6.0,-9.0,-26.0,-22.0,-36.0,-66.0,-185.0,0.0
-44.0,-9.0,19.0,22.0,15.0,10.0,8.0,10.0,-17.0,-211.0,0.0
-74.0,-8.0,22.0,37.0,18.0,37.0,34.0,56.0,29.0,-175.0,0.0
-84.0,-10.0,28.0,38.0,24.0,39.0,46.0,73.0,62.0,-142.0,0.0
-67.0,-11.0,6.0,25.0,15.0,27.0,48.0,65.0,84.0,-89.0,0.0
-27.0,-17.0,-6.0,25.0,1.0,11.0,27.0,56.0,93.0,-41.0,0.0
4.0,-6.0,-11.0,16.0,-15.0,-3.0,14.0,49.0,93.0,27.0,0.0
18.0,2.0,-28.0,0.0,-23.0,-13.0,8.0,31.0,100.0,80.0,0.0
11.0,-3.0,-29.0,2.0,-29.0,-21.0,-9.0,13.0,76.0,100.0,0.0
-14.0,-5.0,-23.0,7.0,-24.0,-12.0,-12.0,11.0,26.0,40.0,0.0
-31.0,-8.0,-1.0,20.0,-11.0,-1.0,5.0,11.0,11.0,0.0,0.0
-41.0,-20.0,6.0,16.0,-1.0,18.0,11.0,8.0,27.0,14.0,0.0
-41.0,-19.0,6.0,15.0,1.0,24.0,7.0,-8.0,23.0,38.0,0.0
-31.0,-14.0,-6.0,18.0,-3.0,23.0,8.0,-17.0,-14.0,81.0,0.0
-21.0,-11.0,0.0,19.0,6.0,12.0,-2.0,-27.0,-46.0,55.0,0.0
-9.0,-2.0,2.0,14.0,10.0,4.0,-13.0,-33.0,-56.0,-19.0,0.0
7.0,10.0,6.0,12.0,5.0,8.0,-20.0,-20.0,-43.0,-75.0,0.0
9.0,23.0,21.0,21.0,13.0,19.0,-21.0,-6.0,-34.0,-97.0,0.0
6.0,24.0,22.0,31.0,20.0,32.0,-7.0,8.0,-33.0,-79.0,0.0
12.0,28.0,28.0,31.0,16.0,22.0,-2.0,6.0,-39.0,-54.0,0.0
32.0,29.0,1.0,24.0,14.0,23.0,-2.0,-3.0,-39.0,-14.0,0.0
31.0,27.0,-6.0,-4.0,6.0,9.0,-16.0,-20.0,-41.0,-5.0,0.0
25.0,7.0,-10.0,-25.0,-4.0,-9.0,-30.0,-35.0,-36.0,0.0,0.0
41.0,2.0,-9.0,-17.0,-12.0,-9.0,-37.0,-33.0,-32.0,-1.0,0.0
31.0,0.0,-14.0,-13.0,-15.0,-10.0,-28.0,-13.0,-26.0,13.0,0.0
18.0,-5.0,-15.0,-27.0,-12.0,-12.0,-22.0,-1.0,-26.0,20.0,0.0
-9.0,-20.0,-15.0,-36.0,-15.0,-5.0,-21.0,-3.0,-32.0,-10.0,0.0
-25.0,-22.0,-8.0,-31.0,-13.0,0.0,-10.0,-6.0,-16.0,-26.0,0.0
-21.0,5.0,-6.0,-23.0,-18.0,-6.0,-1.0,13.0,43.0,-17.0,0.0
2.0,35.0,0.0,-31.0,-17.0,-13.0,-10.0,16.0,84.0,10.0,0.0
20.0,23.0,-5.0,-44.0,-29.0,-29.0,-34.0,3.0,75.0,71.0,0.0
30.0,17.0,-31.0,-46.0,-47.0,-33.0,-40.0,1.0,64.0,116.0,0.0
39.0,14.0,-37.0,-50.0,-47.0,-22.0,-28.0,-1.0,51.0,128.0,0.0
44.0,15.0,-47.0,-44.0,-40.0,-22.0,-9.0,-9.0,44.0,104.0,0.0
19.0,10.0,-37.0,-18.0,-25.0,-18.0,-3.0,-8.0,19.0,34.0,0.0
-12.0,0.0,-15.0,5.0,-8.0,6.0,0.0,2.0,-19.0,-42.0,0.0
-20.0,7.0,-2.0,19.0,3.0,22.0,13.0,5.0,-18.0,-86.0,0.0
-18.0,37.0,8.0,21.0,10.0,8.0,10.0,4.0,-2.0,-93.0,0.0
-9.0,43.0,4.0,15.0,5.0,-3.0,1.0,6.0,-3.0,-78.0,0.0
2.0,26.0,0.0,10.0,0.0,2.0,-2.0,18.0,10.0,-46.0,0.0
2.0,3.0,-24.0,-3.0,-5.0,4.0,-3.0,16.0,13.0,-12.0,0.0
11.0,-19.0,-25.0,-7.0,-7.0,0.0,5.0,17.0,23.0,14.0,0.0
22.0,-28.0,-29.0,-13.0,-17.0,-7.0,1.0,12.0,14.0,31.0,0.0
15.0,-11.0,-14.0,-8.0,-27.0,-17.0,-15.0,0.0,-13.0,13.0,0.0
2.0,12.0,-3.0,-7.0,-18.0,-18.0,-16.0,-4.0,-23.0,-15.0,0.0
-14.0,16.0,3.0,2.0,-12.0,-10.0,-3.0,10.0,-9.0,-28.0,0.0
-8.0,8.0,0.0,-1.0,-4.0,-2.0,5.0,-1.0,-1.0,-36.0,0.0
-10.0,14.0,9.0,-5.0,8.0,-1.0,3.0,-3.0,-17.0,-51.0,0.0
-18.0,17.0,20.0,-3.0,16.0,1.0,7.0,-1.0,-24.0,-57.0,0.0
-30.0,7.0,12.0,3.0,22.0,7.0,25.0,12.0,-16.0,-47.0,0.0
-44.0,-7.0,-1.0,1.0,21.0,6.0,38.0,21.0,10.0,-33.0,0.0
-36.0,-14.0,1.0,0.0,9.0,4.0,33.0,18.0,14.0,-25.0,0.0
-25.0,-14.0,3.0,-5.0,8.0,0.0,19.0,-3.0,-2.0,-34.0,0.0
-25.0,-8.0,8.0,-3.0,16.0,0.0,2.0,-10.0,-1.0,-32.0,0.0
-22.0,-4.0,14.0,-8.0,4.0,0.0,0.0,-23.0,5.0,-17.0,0.0
-14.0,1.0,0.0,-10.0,0.0,-2.0,12.0,-22.0,-9.0,-16.0,0.0
-19.0,3.0,3.0,-5.0,-8.0,-5.0,6.0,-24.0,-23.0,-16.0,0.0
-19.0,6.0,19.0,-5.0,-2.0,-1.0,3.0,-17.0,-23.0,-8.0,0.0
-3.0,10.0,10.0,3.0,-10.0,2.0,-3.0,-10.0,-28.0,-11.0,0.0
2.0,7.0,1.0,3.0,-7.0,1.0,-6.0,-13.0,-29.0,-3.0,0.0
1.0,9.0,-4.0,-6.0,-7.0,2.0,-4.0,-15.0,-26.0,0.0,0.0
-1.0,22.0,-4.0,-12.0,-14.0,0.0,2.0,-5.0,-17.0,3.0,0.0
3.0,22.0,-10.0,-10.0,-5.0,-11.0,8.0,-1.0,-3.0,-3.0,0.0
8.0,18.0,-11.0,-7.0,3.0,-9.0,7.0,-6.0,5.0,2.0,0.0
26.0,21.0,-6.0,-12.0,-3.0,-17.0,1.0,-10.0,9.0,7.0,0.0
16.0,24.0,-7.0,-16.0,-4.0,-18.0,3.0,0.0,9.0,1.0,0.0
13.0,16.0,-10.0,-6.0,8.0,-11.0,10.0,7.0,11.0,0.0,0.0
28.0,6.0,-27.0,-13.0,7.0,-16.0,-2.0,0.0,7.0,14.0,0.0
19.0,-11.0,-36.0,-25.0,-13.0,-27.0,-4.0,-5.0,12.0,26.0,0.0
8.0,-10.0,-16.0,-22.0,-20.0,-36.0,-3.0,0.0,32.0,36.0,0.0
5.0,-11.0,-18.0,-6.0,-11.0,-32.0,1.0,16.0,19.0,51.0,0.0
8.0,-17.0,-25.0,4.0,0.0,-17.0,12.0,20.0,9.0,64.0,0.0
29.0,-4.0,-25.0,-5.0,-2.0,-24.0,12.0,15.0,38.0,85.0,0.0
49.0,-2.0,-21.0,0.0,-3.0,-26.0,7.0,28.0,87.0,95.0,0.0
56.0,-8.0,-15.0,-8.0,-12.0,-25.0,-1.0,18.0,104.0,132.0,0.0
59.0,2.0,-33.0,-19.0,-17.0,-37.0,-16.0,0.0,98.0,205.0,0.0
42.0,0.0,-37.0,-23.0,-16.0,-37.0,-33.0,-29.0,8.0,159.0,0.0
0.0,6.0,-24.0,-4.0,-9.0,-11.0,-24.0,-56.0,-101.0,-40.0,0.0
-8.0,28.0,-7.0,29.0,10.0,22.0,2.0,-40.0,-79.0,-150.0,0.0
-8.0,31.0,30.0,41.0,36.0,43.0,41.0,-6.0,-34.0,-181.0,0.0
-17.0,37.0,46.0,52.0,49.0,54.0,48.0,1.0,-43.0,-192.0,0.0
-31.0,22.0,46.0,60.0,49.0,48.0,37.0,8.0,-49.0,-174.0,0.0
-27.0,5.0,40.0,52.0,41.0,34.0,24.0,14.0,-53.0,-122.0,0.0
-14.0,-1.0,25.0,31.0,27.0,13.0,18.0,19.0,-40.0,-69.0,0.0
0.0,-13.0,7.0,14.0,9.0,14.0,12.0,21.0,-22.0,-32.0,0.0
10.0,-11.0,9.0,3.0,2.0,9.0,17.0,4.0,-22.0,-12.0,0.0
23.0,-16.0,12.0,2.0,-6.0,3.0,1.0,-18.0,-15.0,-2.0,0.0
48.0,-5.0,16.0,4.0,-2.0,1.0,1.0,-27.0,-17.0,25.0,0.0
56.0,8.0,17.0,3.0,-14.0,-1.0,4.0,-26.0,-14.0,71.0,0.0
71.0,16.0,20.0,-6.0,-20.0,-4.0,-5.0,-23.0,10.0,151.0,0.0
75.0,19.0,18.0,-9.0,-21.0,-15.0,-7.0,-34.0,28.0,213.0,0.0
59.0,6.0,6.0,-17.0,-26.0,-25.0,-4.0,-38.0,64.0,251.0,0.0
52.0,-1.0,-3.0,-27.0,-38.0,-31.0,-11.0,-27.0,91.0,281.0,0.0
1.0,-35.0,-33.0,-33.0,-45.0,-38.0,-22.0,-38.0,39.0,198.0,0.0
-29.0,-48.0,-43.0,-30.0,-36.0,-16.0,-7.0,-31.0,-9.0,28.0,0.0
-29.0,-33.0,-22.0,-20.0,-18.0,-3.0,8.0,-16.0,-42.0,-137.0,0.0
-38.0,-20.0,-2.0,-6.0,1.0,5.0,12.0,-4.0,-73.0,-319.0,0.0
-32.0,8.0,11.0,12.0,17.0,18.0,26.0,10.0,-63.0,-320.0,0.0
-20.0,19.0,7.0,24.0,20.0,20.0,25.0,9.0,-32.0,-219.0,0.0
1.0,11.0,11.0,12.0,5.0,10.0,21.0,-1.0,-3.0,-122.0,0.0
24.0,1.0,-4.0,3.0,-5.0,-4.0,16.0,-3.0,43.0,-26.0,0.0
32.0,-13.0,-18.0,-4.0,-8.0,-11.0,7.0,7.0,69.0,58.0,0.0
15.0,-26.0,-25.0,-23.0,-19.0,-4.0,-4.0,5.0,76.0,114.0,0.0
-20.0,-34.0,-42.0,-30.0,-22.0,-15.0,-10.0,-2.0,67.0,85.0,0.0
-37.0,-29.0,-33.0,-11.0,-12.0,-4.0,-4.0,-2.0,7.0,-21.0,0.0
-42.0,-14.0,-18.0,4.0,1.0,10.0,3.0,5.0,-30.0,-64.0,0.0
-30.0,-2.0,2.0,11.0,13.0,22.0,11.0,-4.0,-47.0,-95.0,0.0
13.0,-1.0,7.0,18.0,12.0,20.0,19.0,-7.0,-13.0,-53.0,0.0
52.0,3.0,10.0,16.0,11.0,10.0,6.0,-13.0,0.0,17.0,0.0
49.0,3.0,4.0,18.0,17.0,8.0,-2.0,0.0,6.0,32.0,0.0
32.0,-3.0,1.0,23.0,11.0,14.0,-10.0,-10.0,-13.0,26.0,0.0
27.0,-11.0,5.0,20.0,9.0,10.0,-15.0,-27.0,-36.0,15.0,0.0
9.0,-16.0,17.0,20.0,17.0,13.0,0.0,-13.0,-10.0,8.0,0.0
-30.0,-23.0,16.0,9.0,24.0,22.0,22.0,5.0,5.0,-4.0,0.0
-59.0,-21.0,27.0,11.0,16.0,24.0,12.0,0.0,-23.0,-78.0,0.0
-36.0,-11.0,21.0,16.0,15.0,30.0,0.0,-5.0,-38.0,-121.0,0.0
-5.0,-8.0,11.0,8.0,27.0,25.0,5.0,-1.0,-25.0,-103.0,0.0
-4.0,0.0,11.0,9.0,35.0,20.0,3.0,7.0,-23.0,-106.0,0.0
-13.0,-4.0,18.0,17.0,33.0,12.0,-7.0,1.0,-29.0,-110.0,0.0
-16.0,-6.0,5.0,14.0,22.0,9.0,-8.0,-8.0,-18.0,-74.0,0.0
1.0,-12.0,-13.0,0.0,10.0,4.0,-2.0,-9.0,-3.0,-1.0,0.0
34.0,-10.0,-24.0,-10.0,2.0,-13.0,-5.0,-20.0,12.0,46.0,0.0
48.0,-2.0,-27.0,-8.0,-9.0,-14.0,-13.0,-26.0,10.0,41.0,0.0
49.0,-7.0,-14.0,-14.0,-18.0,-16.0,-24.0,-23.0,0.0,34.0,0.0
44.0,-5.0,-13.0,-1.0,-23.0,-8.0,-20.0,-18.0,6.0,19.0,0.0
29.0,0.0,-8.0,2.0,-16.0,5.0,-7.0,-21.0,-3.0,-34.0,0.0
-13.0,-7.0,-2.0,0.0,1.0,24.0,12.0,1.0,-11.0,-62.0,0.0
-56.0,-35.0,-12.0,8.0,16.0,32.0,22.0,24.0,12.0,-56.0,0.0
-56.0,-46.0,-24.0,6.0,10.0,29.0,19.0,36.0,23.0,-42.0,0.0
-42.0,-34.0,-17.0,-11.0,-2.0,14.0,4.0,33.0,28.0,-29.0,0.0
-25.0,-9.0,-11.0,-13.0,0.0,5.0,-10.0,21.0,12.0,-11.0,0.0
-4.0,8.0,5.0,-7.0,1.0,7.0,-14.0,4.0,1.0,0.0,0.0
1.0,0.0,5.0,-8.0,-5.0,2.0,-12.0,-1.0,11.0,15.0,0.0
-2.0,-14.0,2.0,-8.0,0.0,5.0,-11.0,7.0,32.0,23.0,0.0
12.0,-14.0,8.0,-14.0,-4.0,11.0,-10.0,0.0,24.0,21.0,0.0
17.0,-15.0,4.0,-12.0,-13.0,0.0,-16.0,-10.0,14.0,25.0,0.0
15.0,-5.0,-7.0,-2.0,-13.0,-5.0,-15.0,-8.0,-3.0,16.0,0.0
19.0,2.0,-2.0,-3.0,0.0,-7.0,-2.0,0.0,-6.0,32.0,0.0
26.0,5.0,0.0,-9.0,4.0,-7.0,-5.0,4.0,2.0,47.0,0.0
28.0,16.0,1.0,-24.0,-7.0,-5.0,-17.0,2.0,-3.0,62.0,0.0
34.0,17.0,3.0,-41.0,-9.0,-9.0,-26.0,-3.0,-20.0,60.0,0.0
42.0,10.0,16.0,-46.0,-12.0,-18.0,-14.0,5.0,-24.0,52.0,0.0
41.0,5.0,25.0,-49.0,-19.0,-14.0,-14.0,14.0,-8.0,63.0,0.0
30.0,2.0,23.0,-41.0,-15.0,-4.0,-13.0,12.0,-12.0,55.0,0.0
15.0,1.0,19.0,-27.0,3.0,4.0,-5.0,14.0,-18.0,38.0,0.0
19.0,4.0,20.0,-5.0,12.0,-5.0,-2.0,16.0,-1.0,41.0,0.0
37.0,18.0,15.0,0.0,12.0,-8.0,-5.0,7.0,12.0,68.0,0.0
34.0,24.0,12.0,4.0,1.0,-9.0,-9.0,16.0,4.0,78.0,0.0
12.0,18.0,11.0,0.0,-8.0,-6.0,-4.0,20.0,17.0,91.0,0.0
4.0,15.0,-10.0,-19.0,-8.0,-1.0,5.0,23.0,28.0,104.0,0.0
-2.0,15.0,-18.0,-28.0,-6.0,-12.0,-5.0,23.0,18.0,70.0,0.0
-17.0,11.0,-27.0,-11.0,-2.0,-12.0,-3.0,18.0,5.0,-9.0,0.0
-23.0,5.0,-11.0,6.0,2.0,0.0,18.0,24.0,-1.0,-49.0,0.0
-23.0,-6.0,-9.0,10.0,7.0,11.0,21.0,16.0,0.0,-30.0,0.0
-23.0,-10.0,-2.0,3.0,11.0,0.0,20.0,18.0,8.0,3.0,0.0
-22.0,-9.0,-3.0,10.0,13.0,-3.0,19.0,4.0,6.0,54.0,0.0
-11.0,-14.0,-12.0,12.0,5.0,-11.0,-1.0,-3.0,-17.0,66.0,0.0
-15.0,-17.0,-11.0,14.0,4.0,-11.0,-16.0,-10.0,-32.0,16.0,0.0
-6.0,-12.0,2.0,24.0,-1.0,-4.0,-4.0,0.0,-19.0,-14.0,0.0
3.0,-1.0,5.0,25.0,-1.0,5.0,3.0,3.0,-26.0,-47.0,0.0
3.0,4.0,10.0,30.0,12.0,14.0,14.0,10.0,-18.0,-66.0,0.0
-3.0,-4.0,3.0,34.0,31.0,19.0,14.0,18.0,10.0,-66.0,0.0
1.0,-13.0,-1.0,37.0,29.0,15.0,21.0,26.0,36.0,-50.0,0.0
8.0,1.0,-8.0,43.0,8.0,12.0,12.0,7.0,16.0,-50.0,0.0
17.0,27.0,-3.0,29.0,11.0,0.0,4.0,-11.0,0.0,-49.0,0.0
14.0,32.0,10.0,25.0,26.0,0.0,-3.0,-3.0,17.0,-38.0,0.0
13.0,20.0,0.0,24.0,19.0,4.0,4.0,-1.0,23.0,-10.0,0.0
3.0,3.0,-18.0,20.0,12.0,-1.0,-1.0,-3.0,26.0,2.0,0.0
-5.0,-6.0,-21.0,21.0,8.0,-10.0,-2.0,1.0,7.0,0.0,0.0
-8.0,-16.0,-15.0,16.0,13.0,-11.0,3.0,-2.0,-9.0,-2.0,0.0
3.0,-7.0,-4.0,4.0,9.0,-11.0,10.0,2.0,-7.0,2.0,0.0
17.0,17.0,-2.0,-5.0,5.0,-9.0,2.0,-12.0,-3.0,0.0,0.0
37.0,20.0,2.0,-7.0,0.0,-9.0,3.0,-16.0,-11.0,18.0,0.0
56.0,18.0,10.0,-12.0,-11.0,-12.0,2.0,0.0,37.0,88.0,0.0
76.0,12.0,4.0,-25.0,-32.0,-24.0,6.0,15.0,110.0,162.0,0.0
75.0,10.0,-8.0,-40.0,-48.0,-29.0,-9.0,-4.0,126.0,247.0,0.0
27.0,-5.0,-13.0,-42.0,-51.0,-32.0,-27.0,-27.0,65.0,240.0,0.0
-11.0,-24.0,-24.0,-34.0,-35.0,-27.0,-24.0,-38.0,-27.0,97.0,0.0
-23.0,2.0,-7.0,-8.0,-4.0,0.0,5.0,-18.0,-51.0,-74.0,0.0
-26.0,14.0,10.0,10.0,19.0,26.0,32.0,2.0,-18.0,-107.0,0.0
-39.0,10.0,23.0,24.0,29.0,36.0,44.0,12.0,-19.0,-112.0,0.0
-44.0,-1.0,21.0,26.0,28.0,26.0,40.0,22.0,-15.0,-96.0,0.0
-35.0,-9.0,27.0,22.0,30.0,13.0,27.0,16.0,-6.0,-61.0,0.0
-17.0,-7.0,17.0,5.0,16.0,9.0,6.0,3.0,-17.0,-34.0,0.0
-12.0,-3.0,12.0,-6.0,10.0,-5.0,-7.0,-1.0,-28.0,-34.0,0.0
-10.0,-3.0,13.0,15.0,7.0,-9.0,-2.0,-4.0,-33.0,-36.0,0.0
-3.0,-10.0,25.0,29.0,1.0,0.0,9.0,-11.0,-24.0,-21.0,0.0
0.0,-12.0,41.0,27.0,-3.0,-1.0,3.0,-10.0,-15.0,4.0,0.0
3.0,-20.0,28.0,11.0,-11.0,-8.0,-9.0,-12.0,-3.0,15.0,0.0
9.0,-10.0,25.0,7.0,-18.0,-6.0,-13.0,-10.0,-1.0,20.0,0.0
7.0,0.0,5.0,8.0,-11.0,-14.0,0.0,-11.0,-6.0,20.0,0.0
-7.0,3.0,-6.0,-12.0,-13.0,-14.0,7.0,-4.0,-3.0,10.0,0.0
-20.0,1.0,-5.0,-23.0,-19.0,-7.0,1.0,5.0,5.0,-1.0,0.0
-32.0,-5.0,4.0,-25.0,-20.0,-16.0,-10.0,0.0,-7.0,-17.0,0.0
-29.0,-1.0,-9.0,-18.0,-19.0,-12.0,-22.0,-6.0,-23.0,-10.0,0.0
-23.0,4.0,-9.0,-11.0,-18.0,-18.0,-24.0,1.0,-25.0,-3.0,0.0
-14.0,8.0,-4.0,-3.0,-15.0,-35.0,-22.0,0.0,-27.0,-10.0,0.0
-4.0,1.0,-4.0,-19.0,-14.0,-40.0,-17.0,-2.0,-25.0,0.0,0.0
2.0,7.0,9.0,-32.0,-13.0,-43.0,-24.0,-17.0,-21.0,25.0,0.0
10.0,28.0,0.0,-32.0,-11.0,-32.0,-32.0,-17.0,-15.0,72.0,0.0
20.0,29.0,-2.0,-32.0,-6.0,-25.0,-32.0,-19.0,-17.0,104.0,0.0
38.0,24.0,4.0,-38.0,-12.0,-30.0,-35.0,-31.0,-3.0,147.0,0.0
47.0,19.0,7.0,-52.0,-30.0,-28.0,-43.0,-33.0,10.0,149.0,0.0
50.0,8.0,6.0,-44.0,-31.0,-22.0,-30.0,-31.0,12.0,153.0,0.0
39.0,-9.0,12.0,-20.0,-21.0,-36.0,-26.0,-30.0,7.0,139.0,0.0
2.0,-16.0,3.0,-10.0,-21.0,-42.0,-30.0,-14.0,8.0,44.0,0.0
-28.0,-18.0,-20.0,-9.0,-13.0,-36.0,-27.0,2.0,-4.0,-99.0,0.0
-36.0,-15.0,-14.0,2.0,2.0,-19.0,-5.0,12.0,0.0,-162.0,0.0
-44.0,-10.0,3.0,17.0,10.0,-5.0,0.0,37.0,-2.0,-137.0,0.0
-64.0,-15.0,7.0,19.0,16.0,0.0,8.0,55.0,-36.0,-124.0,0.0
-64.0,-8.0,0.0,26.0,18.0,-4.0,11.0,34.0,-52.0,-154.0,0.0
-59.0,-2.0,0.0,24.0,20.0,13.0,18.0,25.0,-35.0,-155.0,0.0
-47.0,-3.0,7.0,21.0,17.0,19.0,18.0,24.0,-22.0,-123.0,0.0
-23.0,0.0,13.0,17.0,9.0,15.0,16.0,27.0,-13.0,-76.0,0.0
-11.0,0.0,16.0,19.0,5.0,1.0,8.0,26.0,-24.0,-44.0,0.0
-11.0,-2.0,13.0,11.0,6.0,-11.0,-8.0,5.0,-38.0,-24.0,0.0
-29.0,-6.0,11.0,4.0,3.0,-9.0,-23.0,-3.0,-45.0,-41.0,0.0
-55.0,-18.0,12.0,15.0,5.0,4.0,-20.0,9.0,-43.0,-70.0,0.0
-57.0,-27.0,19.0,24.0,18.0,16.0,-12.0,2.0,-30.0,-75.0,0.0
-37.0,-28.0,13.0,16.0,17.0,16.0,-18.0,-5.0,-11.0,-50.0,0.0
-14.0,-19.0,18.0,11.0,11.0,7.0,-11.0,-2.0,0.0,-31.0,0.0
-13.0,-21.0,8.0,16.0,2.0,5.0,-8.0,14.0,3.0,-2.0,0.0
10.0,-18.0,7.0,11.0,-2.0,-5.0,2.0,10.0,27.0,28.0,0.0
22.0,-21.0,-7.0,-8.0,-13.0,-22.0,13.0,12.0,41.0,60.0,0.0
21.0,-19.0,-19.0,-14.0,-19.0,-20.0,16.0,7.0,28.0,78.0,0.0
6.0,-3.0,-29.0,-10.0,-14.0,-19.0,4.0,0.0,-2.0,92.0,0.0
-1.0,-9.0,-12.0,-12.0,-6.0,-27.0,3.0,-2.0,-30.0,47.0,0.0
3.0,-10.0,0.0,-9.0,4.0,-17.0,12.0,-6.0,-33.0,-12.0,0.0
7.0,0.0,21.0,-2.0,18.0,-2.0,12.0,-7.0,-33.0,-22.0,0.0
15.0,-7.0,19.0,6.0,18.0,-1.0,25.0,0.0,-29.0,-12.0,0.0
18.0,-9.0,7.0,6.0,11.0,2.0,23.0,-1.0,-11.0,39.0,0.0
18.0,-10.0,8.0,17.0,3.0,-8.0,19.0,3.0,18.0,85.0,0.0
17.0,-3.0,18.0,13.0,-11.0,-18.0,22.0,-6.0,35.0,102.0,0.0
21.0,8.0,2.0,2.0,-14.0,-26.0,3.0,-18.0,28.0,115.0,0.0
17.0,10.0,-12.0,-15.0,-19.0,-33.0,-21.0,-28.0,-9.0,45.0,0.0
7.0,0.0,-19.0,-21.0,-18.0,-34.0,-21.0,-23.0,-8.0,-30.0,0.0
7.0,-7.0,-14.0,-17.0,-6.0,-30.0,-4.0,-11.0,14.0,-1.0,0.0
16.0,-4.0,-6.0,-14.0,-7.0,-33.0,4.0,-10.0,13.0,41.0,0.0
17.0,-5.0,-8.0,-6.0,-9.0,-31.0,-2.0,-4.0,15.0,24.0,0.0
3.0,-16.0,-5.0,-1.0,-8.0,-18.0,4.0,10.0,15.0,-48.0,0.0
6.0,-9.0,6.0,6.0,6.0,3.0,24.0,32.0,37.0,-71.0,0.0
3.0,-9.0,3.0,8.0,8.0,13.0,28.0,46.0,52.0,-49.0,0.0
-24.0,-23.0,-4.0,1.0,12.0,18.0,30.0,40.0,49.0,-48.0,0.0
-57.0,-25.0,-17.0,1.0,14.0,31.0,38.0,21.0,12.0,-75.0,0.0
-81.0,-26.0,-24.0,6.0,17.0,32.0,35.0,2.0,-28.0,-111.0,0.0
-66.0,-15.0,-27.0,13.0,17.0,31.0,29.0,3.0,-35.0,-122.0,0.0
-40.0,-12.0,-24.0,8.0,16.0,34.0,22.0,8.0,-22.0,-92.0,0.0
-35.0,-8.0,-13.0,5.0,10.0,29.0,17.0,5.0,-18.0,-71.0,0.0
-23.0,3.0,-26.0,2.0,-4.0,21.0,6.0,11.0,-10.0,-51.0,0.0
-9.0,6.0,-28.0,0.0,-9.0,20.0,-4.0,3.0,0.0,-29.0,0.0
8.0,0.0,-22.0,0.0,-1.0,12.0,-11.0,-16.0,-4.0,-43.0,0.0
5.0,0.0,-13.0,-8.0,7.0,4.0,-12.0,-11.0,-26.0,-65.0,0.0
1.0,9.0,-6.0,-16.0,0.0,5.0,-5.0,0.0,-22.0,-46.0,0.0
16.0,1.0,-3.0,-36.0,-6.0,2.0,-8.0,-3.0,-3.0,1.0,0.0
38.0,0.0,-15.0,-52.0,-4.0,-13.0,-23.0,-6.0,21.0,70.0,0.0
38.0,-9.0,-6.0,-63.0,1.0,-16.0,-33.0,-12.0,37.0,111.0,0.0
41.0,-16.0,-19.0,-55.0,-8.0,-19.0,-32.0,-17.0,42.0,127.0,0.0
42.0,-22.0,-30.0,-59.0,-15.0,-14.0,-32.0,0.0,31.0,131.0,0.0
13.0,-27.0,-29.0,-47.0,-5.0,-1.0,-17.0,-2.0,-11.0,55.0,0.0
-7.0,-17.0,-14.0,-29.0,9.0,8.0,0.0,-2.0,-32.0,-41.0,0.0
-10.0,1.0,9.0,-13.0,18.0,28.0,15.0,-1.0,-17.0,-90.0,0.0
-4.0,6.0,10.0,-11.0,30.0,40.0,16.0,-2.0,-17.0,-105.0,0.0
20.0,5.0,18.0,-13.0,27.0,25.0,21.0,-4.0,6.0,-39.0,0.0
65.0,17.0,7.0,-25.0,2.0,9.0,20.0,8.0,53.0,60.0,0.0
91.0,27.0,3.0,-36.0,-10.0,-1.0,11.0,4.0,89.0,135.0,0.0
88.0,25.0,4.0,-28.0,-3.0,-15.0,2.0,3.0,72.0,161.0,0.0
85.0,31.0,0.0,-27.0,-5.0,-21.0,-13.0,-3.0,40.0,146.0,0.0
63.0,8.0,-9.0,-33.0,-7.0,-13.0,-22.0,-7.0,16.0,122.0,0.0
-15.0,-24.0,-23.0,-34.0,2.0,3.0,-6.0,0.0,0.0,6.0,0.0
-70.0,-36.0,-2.0,-14.0,15.0,23.0,14.0,21.0,-10.0,-82.0,0.0
-87.0,-31.0,8.0,6.0,31.0,44.0,33.0,47.0,-5.0,-125.0,0.0
-81.0,-12.0,5.0,23.0,33.0,45.0,39.0,33.0,-9.0,-144.0,0.0
-69.0,-31.0,2.0,35.0,26.0,42.0,37.0,29.0,3.0,-98.0,0.0
-57.0,-41.0,0.0,37.0,28.0,32.0,35.0,35.0,16.0,-68.0,0.0
-23.0,-26.0,-4.0,32.0,24.0,22.0,34.0,32.0,3.0,-38.0,0.0
2.0,-8.0,-11.0,22.0,13.0,18.0,22.0,18.0,-7.0,-16.0,0.0
0.0,-3.0,-8.0,22.0,12.0,24.0,18.0,4.0,8.0,-7.0,0.0
2.0,4.0,-3.0,21.0,15.0,23.0,15.0,-4.0,10.0,-4.0,0.0
4.0,-2.0,-18.0,14.0,10.0,14.0,0.0,-8.0,3.0,3.0,0.0
18.0,-7.0,-31.0,0.0,-6.0,-3.0,-19.0,-7.0,20.0,30.0,0.0
49.0,-12.0,-26.0,-6.0,-16.0,-5.0,-29.0,-17.0,37.0,92.0,0.0
72.0,-2.0,-30.0,-10.0,-17.0,-16.0,-28.0,-27.0,64.0,214.0,0.0
69.0,6.0,-43.0,-28.0,-25.0,-39.0,-29.0,-42.0,40.0,288.0,0.0
41.0,-5.0,-36.0,-29.0,-32.0,-53.0,-40.0,-55.0,-35.0,233.0,0.0
21.0,14.0,-16.0,-12.0,-22.0,-36.0,-34.0,-48.0,-70.0,65.0,0.0
6.0,19.0,0.0,4.0,8.0,-9.0,-9.0,-29.0,-56.0,-36.0,0.0
-7.0,7.0,9.0,28.0,32.0,0.0,13.0,-8.0,-55.0,-111.0,0.0
-22.0,7.0,8.0,40.0,34.0,13.0,29.0,5.0,-24.0,-116.0,0.0
-17.0,5.0,17.0,31.0,28.0,12.0,35.0,16.0,-5.0,-114.0,0.0
-12.0,24.0,21.0,27.0,22.0,8.0,44.0,15.0,-1.0,-115.0,0.0
-9.0,34.0,21.0,36.0,21.0,9.0,43.0,21.0,12.0,-94.0,0.0
-11.0,32.0,18.0,31.0,9.0,8.0,37.0,16.0,26.0,-73.0,0.0
-20.0,18.0,10.0,17.0,11.0,6.0,26.0,0.0,27.0,-61.0,0.0
-32.0,6.0,8.0,19.0,12.0,4.0,23.0,2.0,12.0,-57.0,0.0
-23.0,0.0,4.0,22.0,3.0,4.0,11.0,1.0,9.0,-37.0,0.0
-1.0,18.0,-1.0,19.0,-12.0,-8.0,-14.0,-19.0,14.0,5.0,0.0
14.0,31.0,2.0,7.0,-23.0,-22.0,-25.0,-26.0,15.0,43.0,0.0
37.0,30.0,15.0,5.0,-23.0,-18.0,-20.0,-11.0,29.0,79.0,0.0
46.0,36.0,29.0,-1.0,-28.0,-23.0,-17.0,-7.0,45.0,125.0,0.0
15.0,19.0,17.0,-10.0,-34.0,-25.0,-24.0,-5.0,54.0,110.0,0.0
-17.0,6.0,5.0,-9.0,-29.0,-22.0,-26.0,-7.0,24.0,46.0,0.0
-14.0,-7.0,4.0,-11.0,-26.0,-15.0,-20.0,-13.0,3.0,28.0,0.0
-13.0,-9.0,21.0,0.0,-18.0,-15.0,-15.0,-6.0,-19.0,-10.0,0.0
-8.0,-4.0,29.0,22.0,-7.0,0.0,-9.0,-2.0,-33.0,-88.0,0.0
-4.0,5.0,30.0,26.0,1.0,14.0,-9.0,7.0,-27.0,-96.0,0.0
1.0,2.0,46.0,17.0,7.0,22.0,-8.0,9.0,-21.0,-71.0,0.0
-11.0,4.0,45.0,16.0,10.0,24.0,-9.0,12.0,-21.0,-70.0,0.0
-12.0,3.0,17.0,15.0,3.0,18.0,-15.0,3.0,-13.0,-44.0,0.0
2.0,8.0,5.0,13.0,-6.0,12.0,-8.0,6.0,0.0,-8.0,0.0
-6.0,11.0,1.0,5.0,-20.0,3.0,-5.0,7.0,-4.0,-1.0,0.0
-1.0,14.0,-4.0,-11.0,-20.0,6.0,-3.0,7.0,-28.0,-9.0,0.0
11.0,16.0,8.0,-26.0,-20.0,5.0,-11.0,-4.0,-38.0,-15.0,0.0
16.0,17.0,13.0,-37.0,-29.0,-6.0,-20.0,-13.0,-40.0,-6.0,0.0
7.0,18.0,16.0,-35.0,-28.0,-8.0,-16.0,-21.0,-9.0,12.0,0.0
20.0,12.0,7.0,-24.0,-31.0,-2.0,-14.0,-13.0,10.0,63.0,0.0
43.0,4.0,-3.0,-15.0,-38.0,-1.0,-24.0,-11.0,29.0,137.0,0.0
48.0,6.0,-24.0,-31.0,-26.0,-2.0,-14.0,9.0,69.0,177.0,0.0
44.0,-3.0,-37.0,-51.0,-29.0,-11.0,0.0,19.0,117.0,218.0,0.0
30.0,-22.0,-50.0,-66.0,-35.0,-36.0,-8.0,15.0,118.0,213.0,0.0
-8.0,-43.0,-62.0,-66.0,-45.0,-42.0,-25.0,3.0,49.0,79.0,0.0
-31.0,-24.0,-30.0,-44.0,-30.0,-16.0,-7.0,5.0,-11.0,-70.0,0.0
-53.0,-7.0,-10.0,-16.0,-2.0,20.0,13.0,1.0,-46.0,-153.0,0.0
-60.0,6.0,-1.0,-2.0,12.0,46.0,32.0,16.0,-64.0,-211.0,0.0
-41.0,15.0,23.0,2.0,21.0,50.0,35.0,4.0,-64.0,-155.0,0.0
-18.0,12.0,27.0,5.0,20.0,33.0,-6.0,-15.0,-40.0,-35.0,0.0
-1.0,3.0,17.0,-5.0,0.0,8.0,-27.0,-26.0,-26.0,47.0,0.0
7.0,5.0,-3.0,-16.0,-19.0,4.0,-39.0,-25.0,-20.0,80.0,0.0
-1.0,-5.0,-13.0,-23.0,-15.0,2.0,-35.0,-37.0,-36.0,23.0,0.0
-18.0,-7.0,-23.0,-18.0,-6.0,3.0,-27.0,-36.0,-55.0,-115.0,0.0
-11.0,11.0,-25.0,-12.0,9.0,7.0,-17.0,-24.0,-37.0,-134.0,0.0
1.0,17.0,-20.0,-13.0,13.0,9.0,-13.0,-5.0,-28.0,-93.0,0.0
5.0,26.0,-12.0,-11.0,14.0,15.0,-9.0,-1.0,-42.0,-79.0,0.0
5.0,31.0,-6.0,1.0,12.0,0.0,-20.0,-13.0,-49.0,-51.0,0.0
2.0,10.0,-3.0,-4.0,13.0,-5.0,-12.0,-17.0,-34.0,-24.0,0.0
-8.0,0.0,5.0,5.0,15.0,-10.0,-10.0,-1.0,-22.0,-7.0,0.0
-45.0,3.0,3.0,26.0,21.0,-10.0,-8.0,-5.0,-34.0,-21.0,0.0
-49.0,6.0,-8.0,23.0,29.0,-3.0,-2.0,-13.0,-45.0,-23.0,0.0
-43.0,-6.0,-7.0,27.0,24.0,3.0,9.0,0.0,-17.0,-3.0,0.0
-41.0,-11.0,-13.0,39.0,20.0,8.0,13.0,10.0,0.0,11.0,0.0
-31.0,-8.0,-10.0,30.0,17.0,0.0,7.0,3.0,-7.0,11.0,0.0
-6.0,-10.0,-3.0,27.0,13.0,-6.0,1.0,-5.0,0.0,22.0,0.0
7.0,1.0,-15.0,24.0,13.0,-11.0,-6.0,11.0,52.0,41.0,0.0
11.0,8.0,-19.0,17.0,13.0,-9.0,-11.0,17.0,88.0,65.0,0.0
18.0,1.0,-13.0,-1.0,8.0,-9.0,-21.0,10.0,49.0,65.0,0.0
12.0,3.0,5.0,-13.0,-7.0,-9.0,-17.0,16.0,23.0,56.0,0.0
1.0,5.0,4.0,-11.0,-7.0,-9.0,0.0,24.0,27.0,59.0,0.0
12.0,8.0,0.0,1.0,-4.0,-11.0,3.0,21.0,28.0,76.0,0.0
16.0,13.0,-3.0,13.0,-2.0,-15.0,-3.0,26.0,25.0,73.0,0.0
11.0,9.0,-3.0,19.0,2.0,-13.0,6.0,15.0,-7.0,48.0,0.0
0.0,12.0,0.0,18.0,18.0,-1.0,23.0,3.0,-31.0,16.0,0.0
-7.0,3.0,11.0,19.0,26.0,16.0,26.0,9.0,-41.0,-4.0,0.0
-7.0,6.0,9.0,13.0,21.0,7.0,22.0,7.0,-35.0,5.0,0.0
2.0,17.0,11.0,17.0,19.0,-1.0,31.0,15.0,-37.0,24.0,0.0
-3.0,8.0,9.0,31.0,5.0,-9.0,33.0,28.0,-30.0,16.0,0.0
-15.0,6.0,0.0,26.0,8.0,-13.0,35.0,26.0,-13.0,13.0,0.0
-24.0,8.0,-15.0,34.0,17.0,-17.0,35.0,20.0,-14.0,3.0,0.0
-30.0,5.0,-5.0,38.0,24.0,-10.0,29.0,24.0,-13.0,-2.0,0.0
-22.0,16.0,-1.0,39.0,18.0,-11.0,22.0,23.0,-15.0,18.0,0.0
1.0,15.0,2.0,39.0,7.0,-21.0,13.0,9.0,-18.0,41.0,0.0
19.0,15.0,-10.0,41.0,-2.0,-24.0,3.0,-4.0,-11.0,50.0,0.0
29.0,31.0,-15.0,36.0,-9.0,-19.0,3.0,-6.0,-6.0,55.0,0.0
35.0,41.0,-8.0,31.0,-14.0,-10.0,-2.0,-12.0,-9.0,48.0,0.0
39.0,33.0,0.0,28.0,-1.0,-11.0,-9.0,-12.0,-29.0,46.0,0.0
33.0,28.0,-10.0,29.0,15.0,-11.0,1.0,-13.0,-32.0,48.0,0.0
10.0,17.0,-13.0,19.0,11.0,-18.0,21.0,4.0,5.0,48.0,0.0
-3.0,7.0,-7.0,3.0,2.0,-20.0,21.0,22.0,44.0,54.0,0.0
2.0,13.0,0.0,-5.0,-19.0,-19.0,20.0,29.0,54.0,72.0,0.0
2.0,9.0,-4.0,-27.0,-24.0,-18.0,18.0,23.0,54.0,95.0,0.0
-4.0,5.0,3.0,-30.0,-17.0,-19.0,0.0,-1.0,12.0,90.0,0.0
13.0,10.0,6.0,-26.0,-12.0,-23.0,-12.0,-22.0,-18.0,91.0,0.0
37.0,13.0,8.0,-19.0,-5.0,-20.0,-15.0,-28.0,-25.0,113.0,0.0
59.0,27.0,12.0,-16.0,-3.0,-25.0,-18.0,-35.0,-43.0,145.0,0.0
79.0,27.0,22.0,-23.0,-1.0,-28.0,-25.0,-41.0,-46.0,172.0,0.0
59.0,21.0,25.0,-23.0,-9.0,-25.0,-25.0,-45.0,-46.0,85.0,0.0
5.0,15.0,32.0,-2.0,9.0,6.0,0.0,-15.0,-40.0,-40.0,0.0
-21.0,21.0,31.0,11.0,26.0,38.0,24.0,10.0,-24.0,-95.0,0.0
-41.0,21.0,32.0,31.0,28.0,55.0,36.0,19.0,-31.0,-142.0,0.0
-63.0,1.0,36.0,46.0,28.0,62.0,44.0,44.0,-20.0,-159.0,0.0
-78.0,-16.0,38.0,35.0,22.0,51.0,42.0,50.0,18.0,-126.0,0.0
-81.0,-20.0,24.0,31.0,14.0,46.0,44.0,38.0,29.0,-131.0,0.0
-73.0,-3.0,10.0,29.0,14.0,31.0,50.0,24.0,18.0,-137.0,0.0
-50.0,10.0,6.0,21.0,13.0,16.0,45.0,27.0,21.0,-97.0,0.0
-31.0,15.0,1.0,1.0,12.0,6.0,35.0,11.0,18.0,-52.0,0.0
-10.0,18.0,-18.0,-21.0,12.0,3.0,18.0,6.0,11.0,-21.0,0.0
-5.0,16.0,-12.0,-16.0,11.0,1.0,14.0,17.0,8.0,11.0,0.0
-11.0,10.0,-1.0,0.0,18.0,9.0,13.0,20.0,24.0,31.0,0.0
-19.0,-2.0,-1.0,4.0,12.0,2.0,14.0,9.0,28.0,15.0,0.0
-20.0,-2.0,-10.0,0.0,-3.0,-1.0,13.0,2.0,13.0,-7.0,0.0
-13.0,-1.0,-16.0,-8.0,-7.0,-10.0,5.0,-2.0,1.0,1.0,0.0
10.0,3.0,-17.0,-10.0,-8.0,-21.0,-1.0,-13.0,3.0,47.0,0.0
43.0,5.0,-11.0,-16.0,-12.0,-21.0,-4.0,-17.0,9.0,94.0,0.0
63.0,-2.0,-11.0,-29.0,-9.0,-27.0,-15.0,-23.0,24.0,119.0,0.0
54.0,-10.0,-28.0,-14.0,-9.0,-19.0,-19.0,-24.0,24.0,128.0,0.0
37.0,1.0,-27.0,-19.0,-14.0,-18.0,-26.0,-25.0,-8.0,84.0,0.0
17.0,0.0,-15.0,-21.0,-15.0,-20.0,-11.0,-32.0,-29.0,9.0,0.0
4.0,7.0,-7.0,-5.0,-2.0,-2.0,4.0,-21.0,-32.0,-51.0,0.0
25.0,24.0,-13.0,0.0,3.0,3.0,18.0,15.0,34.0,-17.0,0.0
29.0,16.0,-3.0,-2.0,0.0,2.0,25.0,27.0,86.0,29.0,0.0
15.0,-4.0,-14.0,-8.0,-9.0,-4.0,6.0,20.0,89.0,83.0,0.0
-11.0,-18.0,-31.0,-13.0,-10.0,-11.0,4.0,10.0,50.0,110.0,0.0
-31.0,-30.0,-34.0,-22.0,-16.0,-15.0,0.0,0.0,-5.0,64.0,0.0
-5.0,-23.0,-28.0,-42.0,-5.0,-19.0,-4.0,0.0,-34.0,45.0,0.0
34.0,-8.0,-9.0,-41.0,-5.0,-13.0,-5.0,14.0,-1.0,88.0,0.0
49.0,10.0,16.0,-15.0,-7.0,-2.0,6.0,18.0,5.0,113.0,0.0
32.0,10.0,15.0,0.0,3.0,-13.0,8.0,5.0,-21.0,110.0,0.0
-2.0,-3.0,11.0,0.0,5.0,-9.0,7.0,-9.0,-50.0,15.0,0.0
-42.0,0.0,9.0,-9.0,7.0,2.0,4.0,-4.0,-64.0,-130.0,0.0
-48.0,3.0,26.0,1.0,21.0,12.0,25.0,8.0,-18.0,-155.0,0.0
-29.0,5.0,15.0,13.0,18.0,21.0,31.0,31.0,42.0,-51.0,0.0
-27.0,5.0,24.0,7.0,7.0,28.0,20.0,49.0,61.0,38.0,0.0
-12.0,-1.0,23.0,1.0,-2.0,19.0,11.0,38.0,43.0,143.0,0.0
-16.0,-4.0,4.0,-11.0,-20.0,-4.0,-9.0,11.0,-10.0,141.0,0.0
-31.0,-10.0,-6.0,-21.0,-31.0,-12.0,-22.0,-10.0,-85.0,-57.0,0.0
-39.0,0.0,10.0,3.0,-20.0,13.0,0.0,2.0,-94.0,-201.0,0.0
-24.0,28.0,25.0,19.0,-5.0,23.0,18.0,31.0,-66.0,-187.0,0.0
-12.0,29.0,18.0,18.0,7.0,18.0,15.0,48.0,-38.0,-110.0,0.0
8.0,26.0,17.0,14.0,5.0,16.0,20.0,24.0,-16.0,-23.0,0.0
34.0,32.0,8.0,13.0,-2.0,7.0,10.0,14.0,-1.0,58.0,0.0
46.0,19.0,0.0,-1.0,-7.0,-13.0,-7.0,0.0,6.0,84.0,0.0
