channel0,channel1,channel2,channel3,channel4,channel5,channel6,channel7,channel8,channel9,true_locs
-29.0,-17.0,-55.0,14.0,96.0,85.0,-23.0,-81.0,-74.0,-47.0,0.0
-1.0,-10.0,-6.0,3.0,14.0,12.0,-25.0,-51.0,-18.0,-25.0,0.0
11.0,15.0,35.0,-14.0,-29.0,-31.0,-16.0,-36.0,51.0,3.0,0.0
18.0,35.0,7.0,-18.0,-36.0,-52.0,-18.0,-30.0,65.0,14.0,0.0
24.0,43.0,19.0,-24.0,-49.0,-64.0,-5.0,-17.0,64.0,10.0,0.0
26.0,29.0,35.0,-29.0,-60.0,-52.0,17.0,6.0,69.0,18.0,0.0
33.0,24.0,40.0,-30.0,-56.0,-41.0,8.0,17.0,71.0,39.0,0.0
30.0,26.0,43.0,0.0,-41.0,-29.0,2.0,4.0,63.0,39.0,0.0
7.0,16.0,35.0,10.0,-30.0,-29.0,12.0,-9.0,23.0,22.0,0.0
7.0,7.0,26.0,1.0,-51.0,-43.0,24.0,-2.0,17.0,14.0,0.0
4.0,-8.0,12.0,-17.0,-61.0,-37.0,29.0,11.0,21.0,10.0,0.0
-4.0,-26.0,-72.0,-18.0,-54.0,-13.0,12.0,24.0,0.0,3.0,0.0
-4.0,-22.0,-119.0,-13.0,-35.0,-2.0,2.0,12.0,-15.0,4.0,0.0
-3.0,-26.0,-87.0,-17.0,-16.0,2.0,0.0,9.0,-24.0,0.0,0.0
-13.0,-51.0,-14.0,-11.0,11.0,18.0,9.0,12.0,-23.0,-11.0,0.0
-5.0,-40.0,40.0,1.0,58.0,46.0,7.0,-2.0,-23.0,-20.0,0.0
-9.0,-27.0,44.0,12.0,97.0,68.0,12.0,-10.0,-36.0,-31.0,0.0
-19.0,-39.0,35.0,2.0,77.0,58.0,21.0,-8.0,-45.0,-40.0,0.0
-10.0,-27.0,20.0,-2.0,56.0,48.0,25.0,-3.0,-50.0,-39.0,0.0
-10.0,-21.0,4.0,-3.0,35.0,30.0,34.0,4.0,-41.0,-27.0,0.0
7.0,-26.0,5.0,3.0,0.0,-24.0,7.0,2.0,-31.0,-14.0,0.0
21.0,-11.0,21.0,11.0,-48.0,-59.0,-3.0,5.0,-17.0,1.0,0.0
22.0,7.0,45.0,17.0,-100.0,-77.0,-3.0,9.0,6.0,27.0,0.0
22.0,0.0,54.0,5.0,-109.0,-94.0,-11.0,4.0,21.0,27.0,0.0
16.0,4.0,14.0,7.0,-80.0,-92.0,-23.0,-12.0,29.0,16.0,0.0
12.0,-1.0,-37.0,12.0,-43.0,-66.0,-8.0,-26.0,46.0,16.0,0.0
1.0,6.0,-61.0,18.0,-21.0,-38.0,5.0,-34.0,56.0,20.0,0.0
-1.0,8.0,-38.0,10.0,-10.0,-23.0,6.0,-32.0,44.0,7.0,0.0
-4.0,-6.0,27.0,-3.0,-3.0,-13.0,10.0,-31.0,36.0,-4.0,0.0
-16.0,-24.0,34.0,2.0,10.0,1.0,8.0,-31.0,21.0,-7.0,0.0
-28.0,-19.0,-22.0,5.0,20.0,17.0,-2.0,-43.0,-6.0,-14.0,0.0
-9.0,-30.0,-1.0,-5.0,17.0,48.0,22.0,-55.0,-18.0,-22.0,0.0
-5.0,-39.0,38.0,-10.0,31.0,93.0,20.0,-53.0,-30.0,-40.0,0.0
-10.0,-21.0,25.0,-7.0,48.0,92.0,8.0,-38.0,-26.0,-43.0,0.0
-5.0,-23.0,31.0,1.0,30.0,52.0,14.0,-1.0,-8.0,-40.0,0.0
1.0,-13.0,30.0,10.0,2.0,29.0,22.0,10.0,-15.0,-29.0,0.0
3.0,3.0,17.0,8.0,-5.0,6.0,22.0,-5.0,-17.0,-19.0,0.0
14.0,-8.0,-20.0,-2.0,-15.0,-13.0,38.0,5.0,-8.0,-18.0,0.0
19.0,-20.0,-67.0,-13.0,-41.0,-25.0,45.0,25.0,1.0,0.0,0.0
21.0,-1.0,-7.0,-6.0,-40.0,-32.0,60.0,23.0,8.0,21.0,0.0
19.0,-4.0,17.0,-5.0,-23.0,-31.0,34.0,18.0,8.0,26.0,0.0
19.0,-19.0,16.0,-13.0,-20.0,-34.0,17.0,20.0,9.0,21.0,0.0
17.0,-3.0,18.0,-4.0,-15.0,-34.0,6.0,17.0,10.0,17.0,0.0
15.0,10.0,16.0,8.0,-12.0,-31.0,-13.0,0.0,1.0,0.0,0.0
12.0,5.0,-12.0,17.0,-18.0,-31.0,-28.0,-19.0,2.0,-14.0,0.0
0.0,0.0,-99.0,8.0,-24.0,-11.0,-13.0,2.0,23.0,-1.0,0.0
-17.0,-2.0,-45.0,-3.0,-32.0,22.0,7.0,18.0,34.0,-10.0,0.0
-29.0,-19.0,-9.0,-8.0,-18.0,37.0,36.0,9.0,21.0,-44.0,0.0
-38.0,-27.0,-7.0,-17.0,5.0,65.0,31.0,0.0,0.0,-49.0,0.0
-46.0,-17.0,-9.0,-20.0,12.0,84.0,43.0,-14.0,12.0,-38.0,0.0
-54.0,-23.0,2.0,-4.0,16.0,69.0,5.0,-23.0,26.0,-40.0,0.0
-47.0,-9.0,3.0,1.0,23.0,41.0,-35.0,-42.0,5.0,-29.0,0.0
-28.0,-12.0,4.0,2.0,30.0,3.0,-33.0,-49.0,-5.0,-19.0,0.0
-2.0,-20.0,10.0,9.0,2.0,-26.0,-37.0,-43.0,4.0,-1.0,0.0
17.0,9.0,23.0,10.0,-25.0,-61.0,-54.0,-33.0,7.0,17.0,0.0
13.0,-1.0,12.0,-2.0,-34.0,-57.0,-37.0,-20.0,-8.0,22.0,0.0
-4.0,-19.0,5.0,0.0,-19.0,-29.0,-27.0,-6.0,-18.0,11.0,0.0
-11.0,-12.0,-9.0,12.0,-1.0,-22.0,-33.0,-17.0,-12.0,5.0,0.0
-7.0,-7.0,-4.0,16.0,15.0,-19.0,-26.0,-19.0,-21.0,-2.0,0.0
2.0,0.0,10.0,15.0,8.0,-14.0,-41.0,-15.0,-22.0,11.0,0.0
14.0,5.0,21.0,1.0,-3.0,-24.0,-69.0,-7.0,-9.0,27.0,0.0
3.0,-15.0,11.0,-16.0,-18.0,-31.0,-61.0,6.0,-12.0,19.0,0.0
-8.0,-32.0,-7.0,-13.0,-13.0,-10.0,-12.0,10.0,-21.0,0.0,0.0
-18.0,-42.0,-16.0,-14.0,5.0,12.0,-16.0,7.0,-31.0,-9.0,0.0
-19.0,-45.0,-20.0,-4.0,23.0,24.0,-53.0,-14.0,-51.0,-28.0,0.0
-12.0,-38.0,-68.0,0.0,23.0,30.0,-74.0,-30.0,-49.0,-26.0,0.0
-28.0,-50.0,-68.0,-16.0,20.0,61.0,23.0,-28.0,-42.0,-19.0,0.0
-43.0,-64.0,-102.0,-45.0,9.0,84.0,149.0,-17.0,-27.0,-25.0,0.0
-28.0,-42.0,-128.0,-24.0,0.0,33.0,119.0,-16.0,-7.0,-25.0,0.0
2.0,-22.0,-22.0,-16.0,4.0,-19.0,51.0,-25.0,2.0,-19.0,0.0
28.0,0.0,22.0,-4.0,13.0,-39.0,41.0,-30.0,22.0,-4.0,0.0
36.0,-17.0,23.0,18.0,37.0,-37.0,10.0,-23.0,33.0,-11.0,0.0
22.0,-14.0,15.0,39.0,56.0,-19.0,-26.0,-27.0,25.0,-32.0,0.0
15.0,-29.0,7.0,44.0,77.0,-3.0,-34.0,-35.0,7.0,-46.0,0.0
10.0,-35.0,12.0,37.0,72.0,19.0,-18.0,-6.0,3.0,-41.0,0.0
13.0,-19.0,43.0,29.0,42.0,-16.0,1.0,19.0,16.0,-1.0,0.0
19.0,1.0,34.0,40.0,82.0,-26.0,-9.0,16.0,27.0,27.0,0.0
29.0,-19.0,-5.0,40.0,106.0,-25.0,-44.0,-3.0,14.0,15.0,0.0
35.0,0.0,-38.0,10.0,71.0,-17.0,-23.0,5.0,14.0,14.0,0.0
33.0,-7.0,-31.0,-16.0,27.0,7.0,19.0,38.0,16.0,22.0,0.0
16.0,7.0,26.0,-1.0,16.0,12.0,17.0,36.0,-2.0,15.0,0.0
3.0,31.0,50.0,22.0,-26.0,-5.0,-33.0,8.0,-33.0,7.0,0.0
3.0,4.0,-6.0,-27.0,-116.0,13.0,-50.0,12.0,-27.0,19.0,0.0
3.0,5.0,-34.0,-53.0,-161.0,18.0,-39.0,45.0,-9.0,24.0,0.0
-2.0,-17.0,-54.0,-56.0,-103.0,20.0,-15.0,54.0,2.0,25.0,0.0
-11.0,-18.0,-24.0,-47.0,-44.0,14.0,-16.0,44.0,13.0,31.0,0.0
-11.0,-15.0,-3.0,-29.0,-27.0,-20.0,-21.0,34.0,4.0,21.0,0.0
15.0,11.0,21.0,-8.0,-45.0,-36.0,-4.0,38.0,22.0,25.0,0.0
46.0,14.0,37.0,6.0,-79.0,-55.0,14.0,48.0,61.0,43.0,0.0
49.0,19.0,-50.0,-11.0,-94.0,-58.0,39.0,63.0,109.0,53.0,0.0
44.0,42.0,-40.0,-8.0,-93.0,-64.0,28.0,62.0,121.0,70.0,0.0
48.0,39.0,31.0,17.0,-61.0,-77.0,-2.0,26.0,76.0,59.0,0.0
46.0,28.0,34.0,23.0,-46.0,-66.0,-55.0,-3.0,36.0,42.0,0.0
30.0,37.0,11.0,30.0,-31.0,-46.0,-77.0,-21.0,4.0,32.0,0.0
-3.0,24.0,-84.0,35.0,-8.0,-8.0,-59.0,-16.0,8.0,18.0,0.0
-24.0,-1.0,-53.0,32.0,15.0,36.0,-49.0,3.0,-10.0,13.0,0.0
-32.0,-5.0,19.0,14.0,25.0,40.0,-57.0,3.0,-31.0,10.0,0.0
-30.0,-1.0,28.0,6.0,35.0,34.0,-71.0,-21.0,-43.0,13.0,0.0
-32.0,-13.0,-3.0,8.0,54.0,74.0,-42.0,-22.0,-37.0,-8.0,0.0
-55.0,-27.0,-106.0,7.0,76.0,125.0,-7.0,-8.0,-39.0,-19.0,0.0
-64.0,-26.0,-45.0,8.0,72.0,128.0,1.0,-2.0,-58.0,-24.0,1.0
-42.0,-1.0,28.0,11.0,39.0,83.0,-14.0,4.0,-65.0,-16.0,1.0
-14.0,14.0,52.0,17.0,-26.0,-15.0,-31.0,17.0,-36.0,6.0,1.0
15.0,29.0,48.0,2.0,-57.0,-79.0,-48.0,30.0,0.0,37.0,1.0
3.0,33.0,25.0,3.0,-42.0,-85.0,-38.0,16.0,4.0,31.0,1.0
-21.0,6.0,-3.0,-6.0,-26.0,-62.0,-4.0,16.0,-10.0,11.0,1.0
-11.0,-1.0,27.0,-8.0,-19.0,-51.0,9.0,8.0,-17.0,18.0,1.0
3.0,5.0,21.0,-8.0,-22.0,-57.0,-11.0,-15.0,-58.0,23.0,1.0
-13.0,-2.0,25.0,0.0,-17.0,-46.0,-22.0,-44.0,-80.0,4.0,1.0
-15.0,14.0,34.0,11.0,-12.0,-27.0,-31.0,-43.0,-89.0,-1.0,1.0
-5.0,18.0,34.0,0.0,-28.0,-56.0,-25.0,7.0,-48.0,30.0,1.0
-9.0,-4.0,-15.0,-12.0,-39.0,-84.0,-18.0,44.0,-2.0,35.0,1.0
-23.0,13.0,-97.0,3.0,5.0,-53.0,-18.0,19.0,-7.0,6.0,1.0
-22.0,23.0,-5.0,37.0,55.0,-11.0,-30.0,-21.0,-32.0,-7.0,1.0
-32.0,15.0,50.0,54.0,63.0,38.0,-18.0,-32.0,-37.0,-31.0,1.0
-14.0,20.0,35.0,20.0,38.0,87.0,8.0,0.0,-14.0,-31.0,1.0
-7.0,-1.0,14.0,-23.0,17.0,97.0,27.0,34.0,11.0,-16.0,1.0
-8.0,-18.0,8.0,-32.0,14.0,82.0,28.0,22.0,26.0,-10.0,1.0
2.0,6.0,16.0,-19.0,22.0,66.0,48.0,14.0,47.0,6.0,0.0
8.0,19.0,24.0,-8.0,0.0,25.0,57.0,14.0,76.0,19.0,0.0
9.0,6.0,14.0,-21.0,-12.0,1.0,59.0,24.0,74.0,20.0,0.0
-3.0,2.0,15.0,-15.0,-5.0,-5.0,67.0,17.0,56.0,8.0,0.0
9.0,5.0,19.0,7.0,-5.0,-22.0,1.0,-12.0,37.0,-5.0,0.0
14.0,-9.0,4.0,-2.0,-44.0,-62.0,-50.0,-7.0,41.0,6.0,0.0
35.0,-1.0,3.0,-21.0,-81.0,-119.0,-53.0,3.0,31.0,19.0,0.0
31.0,-3.0,5.0,-14.0,-68.0,-111.0,-51.0,0.0,12.0,12.0,0.0
9.0,-5.0,9.0,-3.0,-31.0,-68.0,-34.0,-7.0,0.0,6.0,0.0
4.0,-3.0,11.0,-4.0,-19.0,-54.0,-26.0,-15.0,-6.0,4.0,0.0
8.0,-18.0,19.0,-6.0,-13.0,-58.0,-33.0,-19.0,-26.0,4.0,0.0
8.0,-23.0,8.0,-3.0,-4.0,-39.0,-46.0,-33.0,-37.0,6.0,0.0
10.0,-28.0,-1.0,-1.0,6.0,1.0,-60.0,-39.0,-54.0,6.0,0.0
0.0,-27.0,-10.0,-4.0,31.0,35.0,-42.0,-36.0,-62.0,-3.0,0.0
-16.0,-46.0,-18.0,-4.0,49.0,65.0,-5.0,-17.0,-71.0,-19.0,0.0
-10.0,-49.0,-18.0,-2.0,46.0,76.0,26.0,-5.0,-53.0,-16.0,0.0
-9.0,-26.0,6.0,12.0,44.0,56.0,31.0,-2.0,-36.0,-1.0,0.0
-9.0,-12.0,17.0,17.0,40.0,31.0,55.0,5.0,-27.0,-2.0,0.0
-3.0,-19.0,-9.0,6.0,23.0,2.0,64.0,11.0,-12.0,0.0,0.0
15.0,3.0,-4.0,3.0,13.0,-29.0,54.0,10.0,10.0,20.0,0.0
27.0,1.0,-7.0,11.0,0.0,-39.0,27.0,3.0,13.0,15.0,0.0
28.0,17.0,0.0,21.0,-1.0,-47.0,1.0,-8.0,22.0,2.0,0.0
22.0,18.0,-6.0,5.0,-5.0,-60.0,-1.0,-8.0,34.0,0.0,0.0
24.0,1.0,-5.0,-8.0,-8.0,-53.0,-4.0,-5.0,40.0,2.0,0.0
21.0,-2.0,-38.0,-5.0,-7.0,-38.0,14.0,-6.0,45.0,11.0,0.0
11.0,-2.0,-130.0,-5.0,-12.0,-33.0,27.0,-13.0,38.0,1.0,0.0
0.0,13.0,-144.0,7.0,-5.0,-23.0,46.0,-17.0,20.0,-5.0,0.0
-5.0,2.0,-54.0,8.0,21.0,-4.0,45.0,-9.0,7.0,-15.0,0.0
-1.0,0.0,-5.0,13.0,49.0,12.0,26.0,-29.0,-11.0,-21.0,0.0
-4.0,12.0,-43.0,26.0,64.0,50.0,1.0,-49.0,-23.0,-19.0,0.0
-16.0,3.0,-14.0,36.0,72.0,83.0,-9.0,-37.0,-28.0,-22.0,0.0
-33.0,10.0,0.0,29.0,68.0,96.0,-9.0,-28.0,-26.0,-21.0,0.0
-29.0,22.0,31.0,21.0,60.0,80.0,-11.0,-31.0,-20.0,-10.0,0.0
-14.0,16.0,48.0,16.0,22.0,41.0,-25.0,-24.0,-11.0,10.0,0.0
4.0,32.0,66.0,3.0,-1.0,-11.0,-36.0,1.0,0.0,16.0,0.0
0.0,22.0,52.0,-8.0,-3.0,-41.0,-9.0,27.0,-18.0,14.0,0.0
4.0,9.0,46.0,-23.0,-10.0,-87.0,-8.0,36.0,-29.0,16.0,0.0
16.0,9.0,52.0,-6.0,-22.0,-98.0,0.0,23.0,-4.0,31.0,0.0
10.0,10.0,41.0,-9.0,-24.0,-75.0,24.0,13.0,9.0,68.0,0.0
-3.0,-8.0,29.0,-1.0,-11.0,-51.0,19.0,14.0,22.0,40.0,0.0
-5.0,3.0,37.0,6.0,8.0,-32.0,-13.0,11.0,37.0,0.0,0.0
-9.0,7.0,40.0,14.0,25.0,-6.0,2.0,10.0,42.0,0.0,0.0
-14.0,0.0,40.0,10.0,25.0,17.0,44.0,18.0,50.0,-1.0,0.0
-12.0,0.0,23.0,-5.0,27.0,41.0,86.0,20.0,21.0,-14.0,0.0
-32.0,-6.0,29.0,-7.0,21.0,33.0,66.0,5.0,-8.0,-32.0,0.0
-54.0,-11.0,30.0,-7.0,3.0,37.0,67.0,-11.0,-13.0,-41.0,0.0
-68.0,-4.0,-9.0,-19.0,-7.0,74.0,136.0,2.0,-8.0,-40.0,0.0
-61.0,-17.0,-58.0,-35.0,25.0,105.0,106.0,-1.0,-13.0,-27.0,0.0
-45.0,-2.0,0.0,-35.0,55.0,91.0,28.0,-14.0,-19.0,-7.0,0.0
-24.0,5.0,29.0,-18.0,37.0,55.0,6.0,-21.0,-11.0,6.0,0.0
-7.0,9.0,34.0,-10.0,2.0,37.0,-2.0,-23.0,-13.0,8.0,0.0
2.0,28.0,21.0,7.0,-16.0,11.0,-18.0,-30.0,-34.0,20.0,0.0
20.0,32.0,23.0,7.0,-44.0,-33.0,-19.0,-28.0,-37.0,32.0,0.0
29.0,16.0,30.0,0.0,-79.0,-75.0,-34.0,-27.0,-32.0,46.0,0.0
26.0,25.0,38.0,-7.0,-109.0,-73.0,-17.0,-3.0,-7.0,43.0,0.0
16.0,20.0,34.0,-2.0,-90.0,-65.0,-13.0,3.0,-1.0,41.0,0.0
6.0,-13.0,32.0,9.0,-45.0,-62.0,-27.0,0.0,-30.0,24.0,0.0
1.0,-6.0,4.0,0.0,-27.0,-40.0,-37.0,0.0,-43.0,9.0,0.0
0.0,-3.0,23.0,5.0,-17.0,-18.0,-57.0,-7.0,-37.0,-4.0,0.0
-10.0,-21.0,32.0,-1.0,-11.0,0.0,-44.0,-2.0,-15.0,-25.0,0.0
-22.0,-33.0,21.0,-10.0,-17.0,13.0,-27.0,2.0,5.0,-31.0,0.0
-23.0,-35.0,15.0,-1.0,-2.0,30.0,-26.0,0.0,12.0,-30.0,0.0
-6.0,-1.0,23.0,8.0,22.0,54.0,-19.0,14.0,26.0,-15.0,0.0
-10.0,-5.0,17.0,8.0,25.0,89.0,7.0,22.0,34.0,-11.0,0.0
-36.0,-8.0,-25.0,9.0,9.0,108.0,40.0,30.0,40.0,-14.0,0.0
-19.0,-11.0,16.0,4.0,-17.0,85.0,24.0,30.0,59.0,-7.0,0.0
-9.0,-6.0,31.0,4.0,-42.0,69.0,17.0,33.0,58.0,9.0,0.0
3.0,7.0,15.0,3.0,-45.0,55.0,16.0,23.0,51.0,7.0,0.0
16.0,-4.0,22.0,4.0,-52.0,4.0,7.0,24.0,45.0,-4.0,0.0
21.0,12.0,25.0,9.0,-47.0,-38.0,19.0,18.0,65.0,0.0,0.0
-8.0,1.0,20.0,25.0,-11.0,-50.0,11.0,-2.0,45.0,8.0,0.0
-13.0,-10.0,21.0,43.0,41.0,-44.0,-10.0,-11.0,19.0,2.0,0.0
-8.0,0.0,16.0,36.0,29.0,-56.0,-16.0,2.0,10.0,17.0,0.0
0.0,-15.0,11.0,30.0,-16.0,-92.0,-24.0,13.0,-5.0,28.0,0.0
-5.0,-12.0,-20.0,21.0,-42.0,-94.0,-52.0,20.0,-10.0,36.0,0.0
-1.0,-13.0,-25.0,20.0,-52.0,-77.0,-70.0,0.0,-7.0,29.0,0.0
-4.0,-7.0,-8.0,-8.0,-64.0,-58.0,-47.0,1.0,-8.0,16.0,0.0
16.0,12.0,-6.0,-37.0,-79.0,-38.0,-40.0,14.0,-20.0,15.0,0.0
29.0,18.0,-13.0,-23.0,-52.0,-3.0,-57.0,-5.0,-37.0,16.0,0.0
7.0,5.0,-53.0,0.0,1.0,27.0,-54.0,-20.0,-51.0,15.0,0.0
-15.0,-22.0,-85.0,-2.0,8.0,48.0,-42.0,-27.0,-45.0,-2.0,0.0
-15.0,-17.0,-46.0,-29.0,-2.0,72.0,-25.0,-17.0,-17.0,-10.0,0.0
-9.0,-14.0,-28.0,-44.0,-20.0,83.0,5.0,4.0,18.0,-5.0,0.0
3.0,-14.0,-49.0,-42.0,-28.0,69.0,20.0,0.0,28.0,-5.0,0.0
44.0,11.0,2.0,-28.0,-53.0,22.0,38.0,4.0,29.0,16.0,0.0
69.0,20.0,16.0,-15.0,-75.0,-31.0,34.0,12.0,50.0,33.0,0.0
82.0,28.0,29.0,-21.0,-85.0,-61.0,2.0,8.0,52.0,27.0,0.0
82.0,37.0,30.0,-12.0,-68.0,-59.0,8.0,6.0,58.0,30.0,0.0
72.0,31.0,25.0,-7.0,-55.0,-49.0,2.0,2.0,54.0,21.0,0.0
44.0,17.0,20.0,-4.0,-52.0,-38.0,7.0,2.0,39.0,15.0,0.0
27.0,5.0,12.0,10.0,-19.0,-12.0,29.0,8.0,31.0,9.0,0.0
14.0,-5.0,0.0,21.0,0.0,7.0,41.0,16.0,11.0,6.0,0.0
2.0,-15.0,-10.0,0.0,3.0,11.0,30.0,12.0,-6.0,0.0,0.0
5.0,7.0,-13.0,-8.0,4.0,6.0,19.0,-10.0,-5.0,2.0,0.0
7.0,-12.0,-8.0,-2.0,11.0,26.0,22.0,-9.0,0.0,-6.0,0.0
-10.0,-43.0,-2.0,-2.0,30.0,79.0,38.0,-2.0,-12.0,-27.0,0.0
-35.0,-47.0,-7.0,-5.0,54.0,107.0,43.0,-9.0,-27.0,-34.0,0.0
-33.0,-23.0,-30.0,1.0,63.0,101.0,68.0,-20.0,-39.0,-35.0,0.0
-10.0,-16.0,-16.0,4.0,52.0,83.0,50.0,-26.0,-60.0,-27.0,0.0
2.0,-2.0,37.0,0.0,47.0,67.0,42.0,-24.0,-59.0,-10.0,0.0
8.0,-2.0,44.0,-7.0,41.0,60.0,22.0,-21.0,-52.0,-10.0,0.0
18.0,0.0,36.0,-6.0,25.0,45.0,18.0,-15.0,-39.0,-4.0,0.0
0.0,6.0,1.0,4.0,19.0,16.0,1.0,-15.0,-37.0,5.0,0.0
-38.0,-23.0,-109.0,-10.0,33.0,-11.0,24.0,-5.0,-39.0,-13.0,0.0
-41.0,-25.0,-96.0,-17.0,34.0,-42.0,9.0,2.0,-21.0,-12.0,0.0
-35.0,-14.0,-20.0,4.0,31.0,-61.0,-15.0,-2.0,4.0,-9.0,0.0
-30.0,6.0,19.0,22.0,30.0,-58.0,-5.0,-8.0,27.0,-3.0,0.0
-29.0,14.0,69.0,31.0,4.0,-49.0,3.0,1.0,48.0,-7.0,0.0
-36.0,5.0,67.0,22.0,-10.0,-27.0,17.0,6.0,52.0,-19.0,0.0
-46.0,6.0,20.0,0.0,11.0,-7.0,11.0,14.0,50.0,-13.0,0.0
-43.0,-13.0,-7.0,9.0,42.0,11.0,-17.0,1.0,34.0,-2.0,0.0
-34.0,-14.0,19.0,25.0,76.0,37.0,-44.0,-37.0,16.0,-12.0,0.0
-1.0,7.0,66.0,50.0,74.0,51.0,-71.0,-77.0,-23.0,-21.0,0.0
6.0,21.0,63.0,46.0,35.0,45.0,-79.0,-71.0,-41.0,-26.0,0.0
-6.0,-2.0,30.0,-23.0,-32.0,58.0,-25.0,-4.0,-6.0,-7.0,0.0
-3.0,-4.0,19.0,-47.0,-58.0,63.0,7.0,42.0,14.0,11.0,0.0
27.0,6.0,17.0,-53.0,-61.0,23.0,-14.0,29.0,3.0,18.0,0.0
14.0,6.0,11.0,-42.0,-61.0,-12.0,-27.0,17.0,8.0,16.0,0.0
15.0,30.0,11.0,-29.0,-41.0,-42.0,-13.0,24.0,27.0,28.0,0.0
25.0,38.0,2.0,-16.0,-36.0,-73.0,-19.0,20.0,8.0,30.0,0.0
21.0,14.0,-1.0,-19.0,-33.0,-59.0,-9.0,32.0,0.0,32.0,0.0
12.0,5.0,0.0,-36.0,-26.0,-44.0,5.0,42.0,8.0,15.0,0.0
5.0,7.0,1.0,-43.0,-17.0,-37.0,10.0,31.0,23.0,-2.0,0.0
20.0,-6.0,-15.0,-52.0,4.0,-31.0,9.0,20.0,36.0,1.0,0.0
23.0,10.0,-29.0,-38.0,11.0,-49.0,-16.0,8.0,27.0,6.0,0.0
26.0,20.0,-54.0,-10.0,9.0,-36.0,-13.0,4.0,24.0,16.0,0.0
14.0,6.0,-36.0,-10.0,0.0,-11.0,4.0,15.0,26.0,15.0,0.0
6.0,8.0,-13.0,-8.0,1.0,2.0,4.0,12.0,41.0,12.0,0.0
-13.0,-2.0,-11.0,10.0,25.0,37.0,-24.0,-3.0,34.0,-3.0,0.0
-21.0,-1.0,-4.0,31.0,56.0,84.0,-28.0,-10.0,20.0,-2.0,0.0
-11.0,4.0,-4.0,28.0,73.0,95.0,-24.0,-27.0,-4.0,4.0,0.0
-18.0,-1.0,-1.0,23.0,73.0,90.0,-39.0,-30.0,-25.0,-2.0,0.0
-5.0,-8.0,4.0,10.0,61.0,73.0,-42.0,-18.0,-11.0,2.0,0.0
18.0,2.0,8.0,3.0,35.0,17.0,-51.0,-9.0,14.0,24.0,0.0
23.0,8.0,5.0,-1.0,9.0,4.0,28.0,8.0,28.0,17.0,0.0
16.0,-2.0,-20.0,2.0,-3.0,7.0,126.0,22.0,11.0,4.0,0.0
20.0,-13.0,-8.0,-4.0,-5.0,-29.0,71.0,17.0,11.0,2.0,0.0
10.0,-10.0,2.0,-1.0,-4.0,-33.0,44.0,12.0,1.0,7.0,0.0
12.0,-7.0,3.0,5.0,-15.0,-34.0,19.0,24.0,-3.0,12.0,0.0
13.0,-6.0,18.0,13.0,-10.0,-46.0,-2.0,14.0,-6.0,13.0,0.0
-6.0,4.0,6.0,14.0,0.0,-45.0,-22.0,-1.0,-25.0,1.0,0.0
-17.0,-9.0,-18.0,0.0,2.0,-18.0,2.0,4.0,-30.0,-4.0,0.0
-17.0,-17.0,-17.0,1.0,8.0,-9.0,33.0,1.0,-28.0,-6.0,0.0
-20.0,-23.0,-12.0,11.0,13.0,-3.0,32.0,-13.0,-35.0,-17.0,0.0
-18.0,-17.0,-18.0,5.0,8.0,17.0,7.0,-16.0,-43.0,-22.0,0.0
-14.0,-6.0,-32.0,-2.0,18.0,45.0,-12.0,-18.0,-46.0,-2.0,0.0
-16.0,-1.0,-4.0,0.0,31.0,52.0,-9.0,-18.0,-38.0,-4.0,0.0
-14.0,10.0,1.0,24.0,32.0,63.0,-7.0,-13.0,-33.0,-12.0,0.0
-13.0,5.0,12.0,24.0,13.0,81.0,0.0,0.0,-24.0,-3.0,0.0
-5.0,10.0,13.0,16.0,0.0,61.0,9.0,5.0,-5.0,9.0,0.0
0.0,31.0,11.0,10.0,4.0,30.0,-6.0,12.0,14.0,17.0,0.0
4.0,32.0,-23.0,12.0,9.0,-25.0,-34.0,7.0,21.0,13.0,0.0
3.0,31.0,-96.0,7.0,0.0,-42.0,6.0,14.0,29.0,2.0,0.0
0.0,27.0,-25.0,-3.0,-12.0,-23.0,65.0,27.0,36.0,8.0,0.0
0.0,19.0,11.0,-2.0,-13.0,-26.0,64.0,29.0,27.0,19.0,0.0
8.0,13.0,1.0,-6.0,-15.0,-38.0,28.0,18.0,11.0,6.0,0.0
2.0,19.0,7.0,-11.0,-4.0,-24.0,-14.0,13.0,19.0,2.0,0.0
-9.0,34.0,0.0,-2.0,10.0,-16.0,-30.0,-2.0,13.0,0.0,0.0
-18.0,32.0,2.0,-6.0,21.0,-1.0,-43.0,-9.0,-15.0,-8.0,0.0
-12.0,24.0,-5.0,-15.0,33.0,16.0,-41.0,-6.0,-31.0,-15.0,0.0
-9.0,14.0,-1.0,-8.0,45.0,9.0,-35.0,-11.0,-26.0,-12.0,0.0
0.0,33.0,-3.0,-6.0,38.0,0.0,-22.0,0.0,-18.0,0.0,0.0
-6.0,27.0,0.0,-7.0,48.0,25.0,-6.0,0.0,-24.0,0.0,0.0
-19.0,-4.0,-9.0,-18.0,82.0,77.0,-2.0,-1.0,-42.0,-22.0,0.0
-28.0,-26.0,-16.0,-24.0,108.0,101.0,-2.0,-11.0,-56.0,-53.0,0.0
-31.0,-26.0,-16.0,-14.0,102.0,83.0,-36.0,-17.0,-65.0,-50.0,0.0
-18.0,-11.0,3.0,0.0,79.0,23.0,-40.0,-17.0,-48.0,-30.0,0.0
-22.0,1.0,-16.0,-11.0,47.0,-17.0,-12.0,5.0,-36.0,-26.0,0.0
-11.0,-3.0,-17.0,-21.0,4.0,-52.0,-1.0,11.0,-50.0,-35.0,0.0
5.0,-3.0,-11.0,-15.0,-20.0,-78.0,-17.0,-2.0,-28.0,-24.0,0.0
25.0,13.0,-16.0,-19.0,-22.0,-62.0,-24.0,-3.0,-15.0,-6.0,0.0
47.0,29.0,-12.0,-17.0,-31.0,-61.0,-42.0,-1.0,-4.0,4.0,0.0
47.0,25.0,-61.0,3.0,-5.0,-46.0,-56.0,-24.0,-14.0,1.0,0.0
27.0,12.0,-75.0,12.0,27.0,-15.0,-38.0,-25.0,-25.0,-12.0,0.0
1.0,9.0,-37.0,6.0,34.0,-13.0,-20.0,4.0,-9.0,-13.0,0.0
-1.0,10.0,-55.0,3.0,26.0,-25.0,-25.0,7.0,0.0,-2.0,0.0
16.0,14.0,-15.0,25.0,3.0,-43.0,-60.0,-13.0,-3.0,5.0,0.0
26.0,17.0,-33.0,24.0,-17.0,-65.0,-57.0,-13.0,12.0,14.0,0.0
21.0,23.0,-13.0,11.0,5.0,-24.0,-22.0,-2.0,27.0,13.0,0.0
5.0,22.0,0.0,7.0,38.0,37.0,-13.0,-20.0,23.0,0.0,0.0
0.0,17.0,27.0,20.0,52.0,62.0,-2.0,-34.0,35.0,-4.0,0.0
-2.0,11.0,26.0,16.0,41.0,46.0,11.0,-42.0,46.0,-9.0,0.0
-8.0,7.0,9.0,-5.0,29.0,65.0,26.0,-28.0,30.0,-11.0,0.0
9.0,17.0,5.0,5.0,15.0,60.0,30.0,0.0,27.0,5.0,0.0
19.0,20.0,-50.0,12.0,-37.0,-3.0,49.0,16.0,15.0,6.0,0.0
18.0,-11.0,-150.0,-17.0,-85.0,-53.0,103.0,51.0,12.0,14.0,0.0
27.0,0.0,-140.0,-35.0,-99.0,-49.0,96.0,48.0,19.0,22.0,0.0
28.0,23.0,-54.0,-26.0,-77.0,-45.0,34.0,25.0,14.0,30.0,0.0
35.0,14.0,2.0,-28.0,-58.0,-44.0,7.0,10.0,19.0,22.0,0.0
35.0,0.0,38.0,-33.0,-40.0,-47.0,-5.0,3.0,6.0,18.0,0.0
39.0,8.0,48.0,-33.0,-46.0,-73.0,-20.0,-2.0,-9.0,24.0,0.0
51.0,31.0,70.0,-16.0,-39.0,-88.0,-43.0,-25.0,-35.0,16.0,0.0
33.0,33.0,68.0,1.0,-21.0,-55.0,-48.0,-39.0,-41.0,10.0,0.0
7.0,12.0,56.0,17.0,8.0,-14.0,-36.0,-41.0,-50.0,-6.0,0.0
-1.0,-16.0,-20.0,13.0,47.0,12.0,-15.0,-44.0,-55.0,-30.0,0.0
-12.0,-21.0,-25.0,18.0,51.0,30.0,1.0,-29.0,-46.0,-29.0,0.0
-8.0,-4.0,37.0,6.0,34.0,40.0,12.0,11.0,-25.0,-13.0,0.0
-17.0,-27.0,32.0,0.0,45.0,73.0,4.0,5.0,-21.0,-14.0,0.0
-26.0,-42.0,34.0,4.0,56.0,77.0,-3.0,-11.0,-14.0,-25.0,0.0
-19.0,-14.0,45.0,8.0,34.0,65.0,-5.0,-19.0,-6.0,-29.0,0.0
-4.0,-10.0,28.0,1.0,11.0,59.0,9.0,3.0,-29.0,-3.0,0.0
-7.0,-10.0,19.0,-16.0,-20.0,17.0,4.0,30.0,-22.0,27.0,0.0
1.0,-7.0,17.0,-24.0,-30.0,-18.0,0.0,35.0,1.0,38.0,0.0
-3.0,-21.0,26.0,4.0,-2.0,-18.0,11.0,26.0,6.0,12.0,0.0
-20.0,-19.0,35.0,28.0,28.0,-2.0,19.0,10.0,-8.0,-13.0,0.0
-22.0,-4.0,33.0,22.0,3.0,-8.0,38.0,4.0,-27.0,-19.0,0.0
-8.0,-3.0,40.0,7.0,-50.0,-60.0,7.0,-1.0,-29.0,-7.0,0.0
16.0,8.0,44.0,5.0,-83.0,-87.0,-30.0,8.0,-9.0,6.0,0.0
20.0,21.0,47.0,7.0,-78.0,-74.0,-22.0,13.0,17.0,28.0,0.0
13.0,34.0,38.0,0.0,-80.0,-56.0,-16.0,24.0,21.0,49.0,0.0
10.0,18.0,31.0,-2.0,-65.0,-35.0,-9.0,31.0,21.0,30.0,0.0
0.0,-4.0,20.0,17.0,-22.0,0.0,11.0,24.0,17.0,10.0,0.0
-7.0,-16.0,16.0,15.0,3.0,49.0,13.0,10.0,9.0,-5.0,0.0
-15.0,5.0,-14.0,13.0,15.0,80.0,2.0,0.0,5.0,-8.0,0.0
-27.0,3.0,-97.0,8.0,11.0,76.0,26.0,3.0,3.0,-13.0,0.0
-17.0,-6.0,-48.0,10.0,18.0,68.0,31.0,9.0,19.0,-20.0,0.0
-4.0,14.0,12.0,25.0,20.0,56.0,27.0,-7.0,22.0,-24.0,0.0
12.0,37.0,43.0,24.0,-2.0,1.0,25.0,-20.0,51.0,-9.0,0.0
27.0,44.0,26.0,0.0,-42.0,-56.0,31.0,19.0,79.0,13.0,0.0
32.0,35.0,10.0,-7.0,-48.0,-86.0,45.0,53.0,95.0,26.0,0.0
32.0,25.0,2.0,14.0,-20.0,-83.0,21.0,32.0,74.0,8.0,0.0
18.0,11.0,11.0,19.0,-17.0,-67.0,5.0,20.0,58.0,1.0,0.0
8.0,3.0,6.0,7.0,-17.0,-37.0,8.0,16.0,55.0,-3.0,0.0
13.0,2.0,-27.0,2.0,8.0,-12.0,4.0,10.0,24.0,-10.0,0.0
12.0,-12.0,-18.0,16.0,39.0,7.0,-5.0,-5.0,-1.0,-19.0,0.0
-1.0,-25.0,0.0,17.0,61.0,24.0,-11.0,-9.0,-11.0,-27.0,0.0
-6.0,-26.0,-23.0,0.0,51.0,20.0,-14.0,4.0,0.0,-19.0,0.0
-18.0,-38.0,-30.0,-19.0,51.0,50.0,-8.0,13.0,10.0,-10.0,0.0
-37.0,-59.0,-33.0,0.0,84.0,102.0,15.0,17.0,-34.0,-27.0,0.0
-36.0,-43.0,-22.0,14.0,89.0,102.0,7.0,6.0,-48.0,-28.0,0.0
-30.0,-34.0,-8.0,18.0,53.0,61.0,-15.0,-6.0,-51.0,-10.0,0.0
-41.0,-30.0,-50.0,18.0,18.0,33.0,-5.0,-2.0,-54.0,-20.0,0.0
-34.0,-28.0,-5.0,8.0,-11.0,5.0,19.0,-1.0,-45.0,-35.0,0.0
-15.0,-7.0,10.0,6.0,-51.0,-33.0,32.0,2.0,-30.0,-27.0,0.0
3.0,17.0,15.0,4.0,-100.0,-63.0,20.0,16.0,-12.0,-7.0,0.0
18.0,31.0,-12.0,-6.0,-125.0,-70.0,3.0,33.0,10.0,10.0,0.0
20.0,37.0,-33.0,-1.0,-105.0,-86.0,-11.0,31.0,28.0,8.0,0.0
3.0,17.0,-16.0,22.0,-70.0,-71.0,-15.0,26.0,41.0,4.0,0.0
-35.0,20.0,16.0,24.0,-37.0,-46.0,-3.0,16.0,49.0,5.0,0.0
-45.0,15.0,2.0,17.0,-19.0,-27.0,23.0,23.0,57.0,3.0,0.0
-51.0,-1.0,-53.0,19.0,-21.0,-17.0,53.0,37.0,62.0,-7.0,0.0
-33.0,-15.0,-6.0,11.0,-11.0,-15.0,65.0,37.0,54.0,-8.0,0.0
-20.0,-15.0,26.0,2.0,4.0,6.0,48.0,31.0,26.0,-3.0,0.0
-32.0,-22.0,13.0,2.0,42.0,25.0,49.0,18.0,14.0,-13.0,0.0
-39.0,-31.0,18.0,24.0,72.0,45.0,31.0,5.0,14.0,-26.0,0.0
-46.0,-29.0,-13.0,23.0,80.0,75.0,2.0,-14.0,-7.0,-36.0,0.0
-52.0,-25.0,-17.0,36.0,80.0,93.0,9.0,-22.0,-25.0,-36.0,0.0
-53.0,-8.0,46.0,42.0,53.0,64.0,14.0,-20.0,-19.0,-30.0,0.0
-55.0,-14.0,39.0,25.0,21.0,66.0,3.0,-15.0,-26.0,-24.0,0.0
-35.0,-11.0,31.0,6.0,-13.0,62.0,-8.0,-16.0,-27.0,-17.0,0.0
1.0,15.0,47.0,-3.0,-29.0,20.0,-10.0,2.0,-7.0,9.0,0.0
4.0,-1.0,35.0,-14.0,-32.0,5.0,0.0,32.0,3.0,18.0,0.0
3.0,-18.0,25.0,-20.0,-38.0,-9.0,-3.0,23.0,2.0,25.0,0.0
3.0,-12.0,31.0,-3.0,-39.0,-46.0,-16.0,9.0,14.0,30.0,0.0
-2.0,-17.0,41.0,8.0,-37.0,-72.0,-22.0,-3.0,12.0,25.0,0.0
11.0,-13.0,32.0,20.0,-25.0,-61.0,-24.0,-11.0,1.0,25.0,0.0
12.0,-6.0,35.0,22.0,3.0,-46.0,-26.0,-8.0,14.0,17.0,0.0
-1.0,-19.0,27.0,30.0,31.0,-32.0,-36.0,-21.0,8.0,5.0,0.0
0.0,-12.0,18.0,20.0,23.0,-24.0,-37.0,-11.0,0.0,8.0,0.0
8.0,-12.0,17.0,8.0,17.0,-21.0,-30.0,-2.0,9.0,19.0,0.0
-15.0,-10.0,7.0,-8.0,35.0,11.0,-26.0,-8.0,24.0,10.0,0.0
-25.0,-22.0,14.0,-16.0,52.0,51.0,-19.0,-24.0,21.0,-15.0,0.0
-24.0,-39.0,20.0,-8.0,66.0,64.0,-33.0,-48.0,10.0,-38.0,0.0
-24.0,-35.0,3.0,-29.0,57.0,99.0,-25.0,-16.0,19.0,-29.0,0.0
-15.0,-43.0,-12.0,-34.0,45.0,81.0,4.0,21.0,19.0,-7.0,0.0
-14.0,-38.0,0.0,-23.0,69.0,61.0,-1.0,13.0,8.0,-15.0,0.0
10.0,-22.0,10.0,-30.0,80.0,33.0,-32.0,13.0,11.0,-15.0,0.0
42.0,-4.0,6.0,-16.0,94.0,-4.0,-60.0,7.0,7.0,1.0,0.0
43.0,3.0,8.0,9.0,94.0,-24.0,-78.0,-1.0,-4.0,12.0,0.0
16.0,8.0,0.0,17.0,60.0,-27.0,-24.0,0.0,-21.0,15.0,0.0
-18.0,-30.0,-21.0,-16.0,-17.0,-28.0,48.0,26.0,-17.0,1.0,0.0
-10.0,-32.0,-24.0,-40.0,-116.0,-56.0,50.0,35.0,-6.0,4.0,0.0
14.0,-22.0,-15.0,-37.0,-125.0,-47.0,35.0,35.0,-10.0,11.0,0.0
20.0,-4.0,-18.0,-35.0,-113.0,-44.0,-8.0,34.0,-4.0,24.0,0.0
37.0,8.0,-51.0,-27.0,-144.0,-77.0,-74.0,31.0,14.0,40.0,0.0
45.0,8.0,-111.0,-21.0,-141.0,-81.0,-97.0,22.0,13.0,33.0,0.0
30.0,21.0,-25.0,-11.0,-111.0,-62.0,-81.0,-1.0,-24.0,13.0,0.0
14.0,3.0,15.0,-13.0,-86.0,-11.0,2.0,13.0,-25.0,10.0,0.0
0.0,-5.0,13.0,-4.0,-51.0,34.0,40.0,19.0,-27.0,9.0,0.0
-21.0,-8.0,16.0,1.0,-20.0,81.0,53.0,3.0,-28.0,-9.0,0.0
-41.0,-14.0,-2.0,-14.0,-5.0,114.0,98.0,12.0,-24.0,-40.0,0.0
-38.0,-13.0,-11.0,-24.0,10.0,92.0,90.0,15.0,-4.0,-24.0,0.0
-4.0,-6.0,-2.0,-21.0,10.0,42.0,27.0,1.0,16.0,-2.0,0.0
-2.0,24.0,14.0,5.0,15.0,10.0,-3.0,-3.0,30.0,7.0,0.0
-2.0,10.0,-58.0,6.0,15.0,-15.0,-6.0,4.0,17.0,3.0,0.0
16.0,1.0,-95.0,2.0,7.0,-56.0,-27.0,9.0,37.0,13.0,0.0
28.0,6.0,-6.0,0.0,27.0,-71.0,-58.0,-3.0,24.0,15.0,0.0
8.0,-11.0,7.0,11.0,48.0,-49.0,-73.0,-15.0,-13.0,2.0,0.0
7.0,-3.0,-14.0,-7.0,33.0,-27.0,-73.0,-13.0,-5.0,15.0,0.0
25.0,-1.0,-25.0,-20.0,8.0,-35.0,-79.0,1.0,30.0,28.0,0.0
41.0,16.0,31.0,-8.0,-2.0,-50.0,-80.0,-6.0,12.0,36.0,0.0
19.0,22.0,33.0,9.0,1.0,-48.0,-95.0,-20.0,-15.0,19.0,0.0
-15.0,3.0,17.0,11.0,0.0,-5.0,-28.0,-12.0,-23.0,-2.0,0.0
-11.0,5.0,1.0,1.0,-5.0,6.0,10.0,-20.0,-31.0,-11.0,0.0
-11.0,-12.0,-5.0,-6.0,13.0,54.0,66.0,-33.0,-54.0,-27.0,0.0
-25.0,-43.0,-23.0,-12.0,38.0,74.0,102.0,-35.0,-85.0,-49.0,0.0
-28.0,-47.0,-27.0,-10.0,59.0,43.0,74.0,-37.0,-93.0,-60.0,0.0
-19.0,-24.0,-12.0,-19.0,44.0,49.0,49.0,-31.0,-66.0,-51.0,0.0
9.0,-15.0,-3.0,-27.0,16.0,78.0,51.0,-14.0,-42.0,-22.0,0.0
29.0,2.0,3.0,-33.0,-6.0,58.0,34.0,18.0,-11.0,21.0,0.0
42.0,8.0,8.0,-41.0,-21.0,-4.0,30.0,13.0,12.0,35.0,0.0
47.0,6.0,22.0,-12.0,-14.0,-44.0,4.0,-13.0,0.0,29.0,0.0
37.0,8.0,18.0,-11.0,-4.0,-70.0,-16.0,-19.0,-6.0,31.0,0.0
25.0,-6.0,27.0,-16.0,-23.0,-89.0,-2.0,-6.0,14.0,36.0,0.0
26.0,-15.0,17.0,-20.0,-19.0,-60.0,7.0,-1.0,33.0,29.0,0.0
11.0,-18.0,6.0,3.0,-9.0,-42.0,4.0,-8.0,32.0,18.0,0.0
15.0,4.0,8.0,29.0,-6.0,-48.0,-11.0,-21.0,34.0,13.0,0.0
30.0,13.0,7.0,27.0,-6.0,-58.0,-28.0,-21.0,37.0,18.0,0.0
31.0,14.0,9.0,25.0,-9.0,-55.0,-32.0,-23.0,27.0,18.0,0.0
1.0,3.0,-6.0,17.0,10.0,-1.0,-13.0,-30.0,22.0,6.0,0.0
-10.0,-20.0,-88.0,6.0,46.0,41.0,8.0,-30.0,19.0,-6.0,0.0
-17.0,-18.0,-79.0,0.0,88.0,77.0,3.0,-15.0,-11.0,-4.0,0.0
-34.0,-37.0,0.0,6.0,115.0,116.0,10.0,-21.0,-19.0,-19.0,0.0
-49.0,-40.0,-7.0,20.0,122.0,115.0,15.0,-32.0,-28.0,-33.0,0.0
-44.0,-24.0,-10.0,29.0,129.0,85.0,-9.0,-35.0,-30.0,-25.0,0.0
-44.0,-31.0,3.0,33.0,120.0,63.0,-16.0,-23.0,-32.0,-36.0,0.0
-32.0,-28.0,-13.0,45.0,77.0,57.0,-8.0,-1.0,-24.0,-31.0,0.0
13.0,-14.0,10.0,25.0,-43.0,-4.0,4.0,22.0,-2.0,6.0,0.0
39.0,10.0,18.0,4.0,-115.0,-59.0,2.0,36.0,37.0,53.0,0.0
39.0,11.0,9.0,15.0,-94.0,-68.0,-23.0,30.0,37.0,52.0,0.0
27.0,34.0,-31.0,5.0,-57.0,-36.0,-35.0,19.0,27.0,31.0,0.0
14.0,40.0,-39.0,-11.0,-40.0,-22.0,-30.0,10.0,20.0,26.0,0.0
30.0,31.0,50.0,9.0,-39.0,-50.0,-51.0,9.0,9.0,25.0,0.0
16.0,20.0,46.0,1.0,-29.0,-35.0,-53.0,7.0,-10.0,14.0,0.0
0.0,-5.0,24.0,-19.0,-19.0,-4.0,-42.0,6.0,-11.0,-4.0,0.0
-2.0,-6.0,14.0,-7.0,-7.0,13.0,-36.0,5.0,-16.0,-7.0,0.0
5.0,-3.0,14.0,2.0,2.0,10.0,-26.0,6.0,-20.0,0.0,0.0
-9.0,-1.0,17.0,11.0,42.0,-1.0,-24.0,-26.0,-31.0,-20.0,0.0
-29.0,-10.0,11.0,18.0,90.0,19.0,-29.0,-69.0,-47.0,-44.0,0.0
-43.0,-33.0,-37.0,2.0,108.0,49.0,-25.0,-84.0,-52.0,-65.0,0.0
-30.0,-40.0,-98.0,-2.0,86.0,68.0,-11.0,-73.0,-34.0,-68.0,0.0
-20.0,-20.0,-24.0,22.0,44.0,63.0,2.0,-38.0,-7.0,-46.0,0.0
-4.0,-4.0,-2.0,27.0,6.0,43.0,3.0,-19.0,20.0,-24.0,0.0
24.0,13.0,12.0,-1.0,-47.0,-15.0,5.0,3.0,58.0,4.0,0.0
39.0,9.0,10.0,-4.0,-56.0,-66.0,-3.0,4.0,40.0,8.0,0.0
50.0,12.0,-56.0,-12.0,-56.0,-78.0,-8.0,-3.0,28.0,0.0,0.0
49.0,16.0,-26.0,-27.0,-60.0,-75.0,-5.0,12.0,33.0,11.0,0.0
48.0,5.0,26.0,-36.0,-63.0,-72.0,-7.0,21.0,22.0,15.0,0.0
51.0,3.0,32.0,-30.0,-67.0,-86.0,-22.0,11.0,7.0,4.0,0.0
57.0,6.0,31.0,-6.0,-61.0,-82.0,-42.0,-5.0,11.0,8.0,0.0
61.0,47.0,-3.0,15.0,-42.0,-42.0,-53.0,-4.0,19.0,32.0,0.0
42.0,49.0,-34.0,3.0,-30.0,-35.0,-47.0,6.0,0.0,41.0,0.0
30.0,0.0,15.0,-14.0,-18.0,-21.0,-25.0,27.0,-5.0,30.0,0.0
4.0,-11.0,17.0,-17.0,15.0,11.0,-21.0,23.0,-24.0,12.0,0.0
-17.0,-26.0,5.0,-12.0,52.0,52.0,-32.0,-5.0,-43.0,-15.0,0.0
-29.0,-22.0,26.0,31.0,62.0,80.0,-52.0,-21.0,-74.0,-34.0,0.0
-28.0,-24.0,36.0,44.0,49.0,103.0,-33.0,-19.0,-72.0,-41.0,0.0
-15.0,-7.0,4.0,13.0,11.0,81.0,-10.0,-9.0,-70.0,-26.0,0.0
3.0,0.0,-12.0,-3.0,-14.0,30.0,-16.0,15.0,-58.0,-9.0,0.0
15.0,28.0,-22.0,-12.0,-40.0,-13.0,-5.0,23.0,-28.0,-3.0,0.0
34.0,35.0,-31.0,-6.0,-76.0,-84.0,11.0,28.0,9.0,23.0,0.0
30.0,25.0,-22.0,7.0,-90.0,-96.0,36.0,25.0,35.0,29.0,0.0
11.0,25.0,-28.0,-3.0,-70.0,-78.0,36.0,39.0,39.0,19.0,0.0
15.0,18.0,-85.0,-1.0,-40.0,-83.0,3.0,42.0,54.0,15.0,0.0
12.0,15.0,-23.0,14.0,-35.0,-75.0,-21.0,22.0,70.0,11.0,0.0
19.0,34.0,44.0,23.0,-12.0,-50.0,-24.0,9.0,73.0,9.0,0.0
21.0,46.0,45.0,30.0,3.0,-36.0,-19.0,4.0,79.0,17.0,0.0
17.0,30.0,45.0,36.0,13.0,-34.0,-2.0,7.0,68.0,9.0,0.0
18.0,19.0,40.0,32.0,6.0,-27.0,40.0,-17.0,39.0,-3.0,0.0
13.0,6.0,30.0,28.0,4.0,-9.0,104.0,-12.0,0.0,-9.0,0.0
0.0,-11.0,20.0,18.0,0.0,-1.0,95.0,-17.0,-27.0,-21.0,0.0
-23.0,-18.0,3.0,5.0,-3.0,30.0,76.0,-31.0,-39.0,-46.0,0.0
-40.0,-34.0,1.0,-4.0,3.0,35.0,39.0,-23.0,-39.0,-54.0,0.0
-35.0,-20.0,4.0,-1.0,13.0,32.0,13.0,-9.0,-33.0,-47.0,0.0
-22.0,-29.0,7.0,5.0,10.0,32.0,16.0,3.0,-30.0,-29.0,0.0
-20.0,-13.0,4.0,17.0,13.0,28.0,18.0,19.0,-24.0,-10.0,0.0
-14.0,-3.0,13.0,14.0,5.0,11.0,25.0,16.0,-24.0,7.0,0.0
-18.0,13.0,19.0,4.0,-17.0,-25.0,33.0,19.0,-14.0,26.0,0.0
0.0,22.0,21.0,0.0,-16.0,-58.0,50.0,24.0,-10.0,36.0,0.0
6.0,0.0,24.0,10.0,-4.0,-47.0,42.0,14.0,-22.0,19.0,0.0
6.0,-8.0,25.0,20.0,-4.0,-41.0,27.0,7.0,-40.0,11.0,0.0
17.0,-5.0,14.0,13.0,0.0,-49.0,6.0,2.0,-49.0,10.0,0.0
19.0,-3.0,-2.0,9.0,8.0,-36.0,15.0,-8.0,-49.0,1.0,0.0
15.0,-2.0,-77.0,5.0,4.0,-10.0,58.0,-3.0,-31.0,-11.0,0.0
4.0,-10.0,-51.0,0.0,7.0,-1.0,48.0,-5.0,-30.0,-12.0,0.0
1.0,-22.0,-3.0,-7.0,4.0,-1.0,31.0,-4.0,-30.0,-13.0,0.0
8.0,-16.0,10.0,-7.0,15.0,0.0,-1.0,-13.0,-17.0,-6.0,0.0
-1.0,3.0,21.0,15.0,31.0,25.0,-22.0,-17.0,3.0,-22.0,0.0
-19.0,9.0,32.0,23.0,39.0,45.0,7.0,-32.0,12.0,-30.0,0.0
-7.0,15.0,38.0,7.0,25.0,56.0,22.0,-47.0,3.0,-29.0,0.0
-4.0,17.0,34.0,-1.0,22.0,62.0,26.0,-47.0,10.0,-16.0,0.0
8.0,14.0,22.0,-2.0,20.0,49.0,2.0,-39.0,17.0,-7.0,0.0
7.0,26.0,19.0,1.0,7.0,46.0,-16.0,-17.0,33.0,0.0,0.0
0.0,12.0,12.0,2.0,0.0,34.0,1.0,7.0,46.0,-1.0,0.0
6.0,0.0,-13.0,1.0,7.0,7.0,27.0,27.0,40.0,-7.0,0.0
13.0,9.0,-82.0,-4.0,5.0,-16.0,45.0,42.0,35.0,-8.0,0.0
12.0,-1.0,-14.0,-6.0,-11.0,-48.0,65.0,40.0,45.0,-1.0,0.0
5.0,12.0,15.0,-15.0,-35.0,-91.0,40.0,26.0,44.0,-9.0,0.0
-9.0,20.0,8.0,-23.0,-38.0,-62.0,36.0,15.0,17.0,-18.0,0.0
-27.0,-9.0,4.0,-26.0,-29.0,-39.0,34.0,20.0,2.0,-25.0,0.0
-40.0,-4.0,9.0,-22.0,-23.0,-56.0,32.0,9.0,5.0,-29.0,0.0
-31.0,-6.0,-26.0,-6.0,-2.0,-48.0,14.0,2.0,-5.0,-28.0,0.0
-14.0,-5.0,-75.0,1.0,18.0,-19.0,9.0,0.0,-31.0,-30.0,0.0
-19.0,-2.0,5.0,-6.0,41.0,3.0,10.0,-8.0,-39.0,-29.0,0.0
-34.0,-14.0,24.0,-10.0,63.0,29.0,3.0,-22.0,-44.0,-27.0,0.0
-40.0,-20.0,24.0,-7.0,72.0,49.0,-14.0,-34.0,-64.0,-40.0,0.0
-37.0,-17.0,32.0,-17.0,62.0,55.0,-42.0,-24.0,-77.0,-42.0,0.0
-26.0,0.0,35.0,-15.0,36.0,39.0,-56.0,-21.0,-70.0,-30.0,0.0
-30.0,-2.0,34.0,-17.0,4.0,22.0,-50.0,-17.0,-59.0,-21.0,0.0
-15.0,17.0,40.0,-12.0,-3.0,-2.0,-48.0,-16.0,-63.0,-11.0,0.0
-12.0,21.0,43.0,0.0,7.0,-20.0,-42.0,-10.0,-59.0,0.0,0.0
-13.0,-4.0,34.0,0.0,2.0,-29.0,-47.0,-7.0,-42.0,4.0,0.0
-3.0,-4.0,33.0,2.0,-12.0,-50.0,-48.0,1.0,-27.0,17.0,0.0
-6.0,3.0,10.0,-3.0,-20.0,-63.0,-25.0,9.0,-24.0,19.0,0.0
-20.0,17.0,-84.0,-6.0,-27.0,-53.0,-20.0,6.0,-6.0,21.0,0.0
-17.0,30.0,-135.0,-6.0,-13.0,-26.0,-29.0,10.0,10.0,18.0,0.0
-1.0,15.0,-45.0,1.0,-17.0,-4.0,-24.0,19.0,25.0,14.0,0.0
-11.0,2.0,31.0,9.0,-9.0,-1.0,-5.0,13.0,26.0,8.0,0.0
-3.0,-2.0,33.0,1.0,-9.0,1.0,12.0,7.0,33.0,0.0,0.0
15.0,-10.0,22.0,3.0,-12.0,-11.0,-5.0,7.0,33.0,0.0,0.0
24.0,6.0,12.0,23.0,3.0,7.0,-14.0,6.0,27.0,-11.0,0.0
9.0,-5.0,15.0,23.0,15.0,50.0,-28.0,-5.0,17.0,-16.0,0.0
0.0,-11.0,18.0,18.0,13.0,81.0,-41.0,-3.0,8.0,-26.0,0.0
-6.0,-16.0,21.0,32.0,32.0,98.0,-33.0,-1.0,8.0,-19.0,0.0
-8.0,-20.0,18.0,3.0,36.0,75.0,-27.0,8.0,0.0,-6.0,0.0
9.0,-7.0,11.0,-17.0,24.0,32.0,-49.0,21.0,4.0,9.0,0.0
24.0,-2.0,20.0,-16.0,16.0,-9.0,-58.0,20.0,-2.0,11.0,0.0
27.0,-2.0,21.0,-6.0,14.0,-28.0,-24.0,19.0,-13.0,21.0,0.0
32.0,-16.0,15.0,-1.0,4.0,-15.0,20.0,39.0,-20.0,12.0,0.0
22.0,-8.0,7.0,10.0,28.0,15.0,34.0,29.0,-45.0,-12.0,0.0
2.0,-28.0,-10.0,11.0,39.0,62.0,61.0,19.0,-68.0,-28.0,0.0
-11.0,-43.0,-18.0,16.0,22.0,69.0,70.0,25.0,-54.0,-28.0,0.0
0.0,-29.0,-10.0,16.0,-18.0,22.0,33.0,41.0,-23.0,-5.0,0.0
2.0,2.0,-7.0,6.0,-41.0,-25.0,55.0,44.0,-1.0,16.0,0.0
-3.0,-11.0,-29.0,0.0,-31.0,-44.0,50.0,26.0,-1.0,24.0,0.0
-8.0,-12.0,-25.0,-29.0,-40.0,-57.0,14.0,25.0,0.0,19.0,0.0
-5.0,-19.0,-11.0,-31.0,-62.0,-29.0,9.0,33.0,-10.0,22.0,0.0
9.0,0.0,6.0,-9.0,-36.0,4.0,13.0,19.0,-17.0,31.0,0.0
7.0,4.0,34.0,13.0,-15.0,18.0,-8.0,-4.0,-15.0,37.0,0.0
-3.0,-14.0,-4.0,-5.0,-12.0,46.0,-12.0,0.0,-18.0,11.0,0.0
4.0,-15.0,-125.0,-40.0,-23.0,37.0,11.0,11.0,-13.0,9.0,0.0
12.0,-18.0,-186.0,-27.0,-5.0,36.0,22.0,7.0,-8.0,21.0,0.0
18.0,-10.0,-117.0,-5.0,-4.0,33.0,26.0,8.0,1.0,28.0,0.0
28.0,24.0,14.0,3.0,-33.0,-16.0,17.0,20.0,15.0,45.0,0.0
34.0,52.0,36.0,-7.0,-53.0,-72.0,13.0,26.0,40.0,70.0,0.0
39.0,63.0,43.0,-9.0,-61.0,-101.0,-9.0,16.0,50.0,77.0,0.0
31.0,49.0,44.0,4.0,-37.0,-80.0,5.0,-2.0,40.0,40.0,0.0
18.0,33.0,32.0,8.0,-19.0,-44.0,21.0,0.0,47.0,15.0,0.0
12.0,29.0,25.0,-5.0,-30.0,-16.0,25.0,3.0,49.0,16.0,0.0
-2.0,1.0,10.0,-11.0,-7.0,10.0,58.0,11.0,30.0,12.0,0.0
-28.0,1.0,-30.0,-2.0,5.0,15.0,104.0,12.0,50.0,12.0,0.0
-13.0,14.0,5.0,0.0,12.0,11.0,74.0,11.0,65.0,29.0,0.0
-11.0,11.0,20.0,-7.0,33.0,22.0,29.0,1.0,52.0,35.0,0.0
-33.0,1.0,24.0,3.0,55.0,50.0,6.0,-12.0,17.0,9.0,0.0
-53.0,-9.0,22.0,7.0,59.0,75.0,4.0,-12.0,-12.0,-14.0,0.0
-49.0,-15.0,14.0,19.0,58.0,88.0,-12.0,-29.0,-6.0,-8.0,0.0
-42.0,-16.0,-20.0,33.0,70.0,77.0,-18.0,-40.0,-2.0,-4.0,0.0
-37.0,-26.0,-47.0,16.0,63.0,72.0,-22.0,-29.0,-3.0,-10.0,0.0
-34.0,-18.0,-19.0,-2.0,46.0,72.0,-9.0,-11.0,0.0,-9.0,0.0
-17.0,-14.0,-6.0,-10.0,34.0,56.0,5.0,1.0,3.0,-5.0,0.0
-1.0,9.0,-55.0,-1.0,0.0,1.0,0.0,5.0,12.0,6.0,0.0
-5.0,15.0,0.0,-4.0,-29.0,-35.0,-6.0,12.0,15.0,23.0,0.0
3.0,17.0,46.0,-15.0,-47.0,-33.0,-9.0,21.0,10.0,31.0,0.0
4.0,14.0,42.0,-14.0,-35.0,-19.0,21.0,34.0,5.0,24.0,0.0
-3.0,-4.0,32.0,-6.0,-24.0,-11.0,18.0,20.0,0.0,19.0,0.0
-8.0,5.0,19.0,7.0,6.0,2.0,8.0,-8.0,-6.0,23.0,0.0
-1.0,9.0,-24.0,8.0,24.0,0.0,0.0,-10.0,-1.0,14.0,0.0
10.0,15.0,-38.0,18.0,3.0,-45.0,-35.0,0.0,12.0,14.0,0.0
30.0,36.0,-54.0,10.0,-22.0,-82.0,-64.0,15.0,42.0,32.0,0.0
21.0,32.0,26.0,17.0,0.0,-69.0,-86.0,9.0,33.0,27.0,0.0
3.0,6.0,-7.0,28.0,36.0,-16.0,-91.0,-15.0,0.0,17.0,0.0
-23.0,-20.0,-37.0,0.0,22.0,84.0,23.0,-22.0,-20.0,-10.0,0.0
-54.0,-36.0,-1.0,-32.0,-4.0,136.0,126.0,-15.0,-29.0,-35.0,0.0
-46.0,-22.0,8.0,-30.0,7.0,115.0,83.0,-15.0,-2.0,-25.0,0.0
-5.0,15.0,49.0,2.0,17.0,65.0,-10.0,-16.0,31.0,0.0,0.0
16.0,14.0,47.0,16.0,10.0,35.0,-20.0,-6.0,62.0,18.0,0.0
0.0,7.0,23.0,-4.0,-10.0,25.0,78.0,35.0,30.0,7.0,0.0
-2.0,0.0,19.0,-7.0,-17.0,-20.0,86.0,49.0,22.0,4.0,0.0
26.0,15.0,28.0,-4.0,-18.0,-59.0,30.0,43.0,60.0,16.0,0.0
19.0,27.0,27.0,-10.0,1.0,-57.0,32.0,30.0,73.0,13.0,0.0
7.0,15.0,27.0,-14.0,19.0,-45.0,9.0,7.0,50.0,6.0,0.0
0.0,7.0,30.0,-6.0,14.0,-28.0,12.0,-8.0,50.0,11.0,0.0
5.0,16.0,10.0,-10.0,-1.0,-7.0,20.0,-22.0,43.0,8.0,0.0
14.0,27.0,18.0,-10.0,-31.0,-30.0,21.0,-22.0,52.0,11.0,0.0
21.0,12.0,30.0,0.0,-60.0,-77.0,-18.0,-19.0,22.0,10.0,0.0
15.0,-1.0,20.0,-1.0,-51.0,-67.0,-7.0,-31.0,-16.0,-3.0,0.0
0.0,-14.0,-12.0,-35.0,-60.0,-29.0,40.0,-11.0,-15.0,-14.0,0.0
-12.0,-23.0,-18.0,-31.0,-28.0,8.0,25.0,-6.0,-5.0,-13.0,0.0
-20.0,-11.0,-2.0,-15.0,12.0,36.0,-12.0,-19.0,-20.0,-7.0,0.0
-32.0,-13.0,19.0,5.0,45.0,41.0,-38.0,-22.0,-41.0,-18.0,0.0
-35.0,-11.0,17.0,6.0,82.0,38.0,-32.0,-4.0,-36.0,-19.0,0.0
-28.0,-17.0,0.0,-20.0,63.0,31.0,-24.0,16.0,-19.0,-1.0,0.0
-15.0,-8.0,0.0,-21.0,55.0,20.0,-43.0,17.0,-19.0,4.0,0.0
4.0,11.0,3.0,-11.0,50.0,-8.0,-49.0,11.0,-18.0,0.0,0.0
9.0,18.0,-26.0,-4.0,28.0,-30.0,-50.0,0.0,4.0,17.0,0.0
30.0,21.0,-119.0,-10.0,-6.0,-51.0,-50.0,5.0,28.0,31.0,0.0
41.0,44.0,-74.0,-15.0,-70.0,-68.0,-66.0,0.0,17.0,30.0,0.0
49.0,52.0,19.0,-29.0,-144.0,-78.0,-53.0,6.0,21.0,39.0,0.0
31.0,28.0,34.0,-20.0,-149.0,-66.0,-41.0,0.0,42.0,32.0,0.0
31.0,10.0,24.0,-6.0,-110.0,-77.0,-52.0,-14.0,8.0,31.0,0.0
24.0,12.0,17.0,-1.0,-70.0,-51.0,-26.0,-27.0,-4.0,19.0,0.0
7.0,-10.0,-4.0,-3.0,-43.0,-13.0,14.0,-13.0,4.0,-4.0,0.0
-19.0,-17.0,-1.0,-3.0,-19.0,-6.0,-4.0,0.0,15.0,-5.0,0.0
-39.0,0.0,8.0,18.0,22.0,16.0,-21.0,-15.0,-2.0,-9.0,0.0
-48.0,-16.0,-33.0,29.0,67.0,54.0,-22.0,-31.0,-23.0,-36.0,0.0
-32.0,-20.0,-35.0,23.0,85.0,81.0,-17.0,-58.0,-31.0,-50.0,0.0
-27.0,-26.0,9.0,8.0,75.0,98.0,-6.0,-53.0,-25.0,-44.0,0.0
-6.0,-7.0,24.0,3.0,40.0,89.0,11.0,-17.0,-1.0,-15.0,0.0
12.0,16.0,34.0,2.0,-7.0,58.0,6.0,6.0,38.0,11.0,0.0
11.0,20.0,31.0,-3.0,-34.0,-4.0,-15.0,-6.0,35.0,16.0,0.0
12.0,21.0,3.0,-13.0,-45.0,-22.0,-17.0,-19.0,-7.0,10.0,0.0
22.0,30.0,-33.0,-19.0,-54.0,-36.0,-7.0,-16.0,-13.0,18.0,0.0
28.0,27.0,0.0,-21.0,-45.0,-44.0,6.0,25.0,26.0,32.0,0.0
9.0,0.0,0.0,-30.0,-43.0,-31.0,16.0,64.0,43.0,44.0,0.0
-4.0,-10.0,-32.0,-31.0,0.0,-3.0,23.0,52.0,19.0,32.0,0.0
3.0,-6.0,-98.0,-11.0,32.0,11.0,24.0,24.0,0.0,14.0,0.0
10.0,-4.0,-19.0,4.0,17.0,-8.0,-3.0,2.0,-16.0,11.0,0.0
19.0,16.0,42.0,8.0,-10.0,-63.0,-47.0,-28.0,-32.0,9.0,0.0
19.0,13.0,33.0,-3.0,-38.0,-82.0,-70.0,-37.0,-37.0,1.0,0.0
-1.0,-13.0,8.0,-22.0,-37.0,-33.0,-53.0,-21.0,-23.0,-7.0,0.0
-8.0,-23.0,-43.0,-36.0,-38.0,6.0,-23.0,1.0,-25.0,-15.0,0.0
-12.0,-25.0,-39.0,-17.0,-3.0,31.0,-18.0,-5.0,-34.0,-17.0,0.0
-18.0,-22.0,9.0,-3.0,13.0,44.0,-24.0,-13.0,-50.0,-22.0,0.0
-14.0,-17.0,-13.0,-5.0,18.0,48.0,2.0,1.0,-53.0,-14.0,0.0
-8.0,-22.0,-111.0,-11.0,13.0,37.0,23.0,7.0,-40.0,-15.0,0.0
-2.0,-13.0,-135.0,-4.0,9.0,10.0,39.0,6.0,-22.0,-16.0,0.0
20.0,12.0,-31.0,0.0,-8.0,-40.0,21.0,6.0,-8.0,1.0,0.0
25.0,15.0,50.0,-5.0,-19.0,-65.0,8.0,6.0,-4.0,19.0,0.0
15.0,6.0,43.0,-11.0,-18.0,-45.0,22.0,13.0,14.0,28.0,0.0
12.0,-18.0,25.0,-8.0,-20.0,-25.0,48.0,12.0,18.0,8.0,0.0
11.0,-11.0,22.0,-15.0,-15.0,-27.0,60.0,-6.0,15.0,-5.0,0.0
2.0,12.0,27.0,-9.0,-10.0,-35.0,26.0,-15.0,32.0,2.0,0.0
-2.0,14.0,19.0,8.0,-10.0,-41.0,0.0,-15.0,38.0,5.0,0.0
-3.0,2.0,-16.0,19.0,-4.0,-25.0,-17.0,-12.0,27.0,1.0,0.0
-9.0,0.0,16.0,25.0,2.0,-4.0,0.0,-12.0,25.0,-1.0,0.0
-13.0,-7.0,17.0,19.0,16.0,11.0,28.0,-8.0,24.0,0.0,0.0
-21.0,-11.0,21.0,10.0,38.0,30.0,45.0,-13.0,1.0,-4.0,0.0
-28.0,-14.0,26.0,15.0,50.0,47.0,26.0,-12.0,-14.0,-11.0,0.0
-30.0,-10.0,23.0,14.0,54.0,49.0,-11.0,-21.0,-20.0,-26.0,0.0
-30.0,18.0,29.0,14.0,49.0,51.0,-4.0,-24.0,-16.0,-33.0,0.0
-25.0,9.0,29.0,22.0,43.0,66.0,31.0,-20.0,-21.0,-42.0,0.0
-14.0,-16.0,25.0,16.0,41.0,88.0,29.0,-16.0,-18.0,-37.0,0.0
-2.0,-11.0,11.0,11.0,18.0,67.0,26.0,3.0,-3.0,-7.0,0.0
27.0,0.0,34.0,-1.0,-16.0,-6.0,8.0,16.0,2.0,18.0,0.0
26.0,11.0,34.0,5.0,-16.0,-38.0,-14.0,0.0,-22.0,30.0,0.0
7.0,21.0,20.0,16.0,6.0,-26.0,-9.0,-4.0,-52.0,13.0,0.0
3.0,14.0,8.0,11.0,11.0,-21.0,-4.0,-7.0,-36.0,-2.0,0.0
25.0,14.0,10.0,3.0,1.0,-31.0,-15.0,-18.0,-21.0,1.0,0.0
31.0,27.0,20.0,11.0,-14.0,-64.0,-47.0,-27.0,-29.0,8.0,0.0
22.0,26.0,21.0,6.0,-17.0,-62.0,-59.0,-13.0,-25.0,15.0,0.0
8.0,1.0,6.0,-9.0,-17.0,-29.0,-49.0,-5.0,-5.0,4.0,0.0
5.0,-13.0,-5.0,-10.0,-11.0,-4.0,-68.0,-14.0,-12.0,2.0,0.0
-1.0,6.0,-3.0,5.0,-1.0,11.0,-70.0,-12.0,-24.0,2.0,0.0
-13.0,-14.0,-28.0,13.0,26.0,33.0,-64.0,-20.0,-31.0,-13.0,0.0
-28.0,-21.0,-22.0,12.0,55.0,64.0,-61.0,-30.0,-18.0,-26.0,0.0
-33.0,-23.0,1.0,15.0,72.0,66.0,-53.0,-13.0,-9.0,-4.0,0.0
-33.0,-20.0,-6.0,13.0,60.0,83.0,-5.0,13.0,-2.0,-12.0,0.0
-30.0,-23.0,-71.0,6.0,40.0,104.0,65.0,20.0,4.0,-28.0,0.0
-24.0,-30.0,-23.0,0.0,21.0,89.0,76.0,7.0,9.0,-41.0,0.0
-7.0,0.0,23.0,12.0,8.0,59.0,43.0,7.0,4.0,-29.0,0.0
-4.0,-3.0,0.0,-2.0,-6.0,13.0,42.0,18.0,21.0,-2.0,0.0
-4.0,-12.0,6.0,-41.0,-36.0,-37.0,41.0,41.0,70.0,15.0,0.0
22.0,0.0,7.0,-49.0,-51.0,-81.0,33.0,45.0,99.0,33.0,0.0
25.0,18.0,23.0,-22.0,-22.0,-95.0,1.0,2.0,59.0,12.0,0.0
11.0,28.0,22.0,0.0,4.0,-75.0,-14.0,-24.0,14.0,6.0,0.0
0.0,28.0,20.0,14.0,27.0,-42.0,-5.0,-23.0,16.0,3.0,0.0
-5.0,9.0,33.0,26.0,41.0,-32.0,-34.0,-32.0,8.0,-11.0,0.0
-26.0,-16.0,22.0,17.0,37.0,-6.0,-27.0,-30.0,-5.0,-18.0,0.0
-12.0,-25.0,19.0,-5.0,14.0,23.0,-3.0,-2.0,-8.0,-8.0,0.0
-17.0,-28.0,5.0,5.0,11.0,33.0,16.0,16.0,-4.0,-1.0,0.0
-32.0,-26.0,12.0,8.0,18.0,34.0,3.0,5.0,-8.0,-3.0,0.0
-46.0,-27.0,12.0,0.0,33.0,48.0,-16.0,-18.0,-28.0,-16.0,0.0
-62.0,-35.0,-2.0,-5.0,36.0,84.0,-12.0,-26.0,-49.0,-21.0,0.0
-52.0,-30.0,2.0,14.0,25.0,84.0,-19.0,-33.0,-52.0,-6.0,0.0
-26.0,0.0,12.0,20.0,-20.0,23.0,-39.0,-28.0,-25.0,10.0,0.0
-22.0,-15.0,-58.0,-27.0,-66.0,-1.0,0.0,20.0,10.0,21.0,0.0
-12.0,-11.0,-41.0,-50.0,-58.0,-25.0,1.0,20.0,9.0,26.0,0.0
4.0,2.0,5.0,-27.0,-56.0,-81.0,-16.0,-2.0,15.0,42.0,0.0
0.0,8.0,9.0,-13.0,-41.0,-91.0,-18.0,-1.0,21.0,38.0,0.0
-6.0,-4.0,-11.0,-17.0,-36.0,-80.0,-4.0,0.0,9.0,22.0,0.0
-1.0,-14.0,-82.0,-14.0,-42.0,-69.0,5.0,-1.0,0.0,12.0,0.0
7.0,15.0,-52.0,-3.0,-38.0,-68.0,3.0,-2.0,17.0,18.0,0.0
14.0,15.0,12.0,-7.0,-26.0,-70.0,10.0,-6.0,10.0,18.0,0.0
17.0,7.0,11.0,-20.0,-14.0,-67.0,-34.0,-10.0,-16.0,17.0,0.0
3.0,5.0,1.0,-21.0,-7.0,-25.0,-22.0,-4.0,-25.0,7.0,0.0
0.0,-12.0,6.0,-19.0,9.0,10.0,14.0,-16.0,-16.0,1.0,0.0
-1.0,-11.0,-4.0,1.0,24.0,27.0,3.0,-21.0,-8.0,-16.0,0.0
-9.0,-17.0,-14.0,18.0,25.0,36.0,-22.0,-27.0,-9.0,-27.0,0.0
-6.0,-29.0,9.0,8.0,23.0,55.0,-27.0,-16.0,3.0,-35.0,0.0
-4.0,-35.0,13.0,9.0,25.0,66.0,-34.0,-22.0,22.0,-31.0,0.0
-1.0,-23.0,-13.0,21.0,47.0,60.0,-37.0,-27.0,18.0,-37.0,0.0
0.0,-34.0,-37.0,13.0,49.0,68.0,-15.0,-8.0,12.0,-37.0,0.0
0.0,-27.0,-69.0,15.0,54.0,57.0,0.0,1.0,38.0,-23.0,0.0
4.0,-2.0,3.0,32.0,67.0,18.0,-23.0,-23.0,42.0,-15.0,0.0
18.0,12.0,25.0,38.0,50.0,-9.0,-2.0,-21.0,38.0,-31.0,0.0
0.0,0.0,21.0,22.0,12.0,-8.0,39.0,15.0,19.0,-46.0,0.0
-16.0,-18.0,-3.0,16.0,24.0,-3.0,34.0,36.0,3.0,-51.0,0.0
15.0,-24.0,12.0,21.0,43.0,-22.0,18.0,36.0,-6.0,-43.0,0.0
33.0,-2.0,23.0,9.0,26.0,-56.0,27.0,33.0,9.0,-11.0,0.0
22.0,0.0,18.0,12.0,18.0,-65.0,16.0,17.0,28.0,0.0,0.0
14.0,4.0,-10.0,19.0,35.0,-20.0,14.0,-5.0,-8.0,-12.0,0.0
1.0,-2.0,-32.0,27.0,32.0,-4.0,23.0,-25.0,-26.0,-23.0,0.0
12.0,1.0,-4.0,19.0,-17.0,-24.0,36.0,-12.0,-18.0,-5.0,0.0
13.0,-2.0,-49.0,3.0,-51.0,-12.0,52.0,6.0,14.0,9.0,0.0
5.0,-3.0,-18.0,-6.0,-45.0,11.0,30.0,2.0,10.0,5.0,0.0
6.0,0.0,0.0,-9.0,-48.0,27.0,28.0,-16.0,-14.0,-8.0,0.0
-7.0,-12.0,-21.0,-25.0,-40.0,62.0,46.0,0.0,-33.0,-20.0,0.0
-13.0,3.0,-75.0,-22.0,-34.0,62.0,48.0,20.0,-12.0,-11.0,0.0
-4.0,-7.0,-22.0,-10.0,-1.0,38.0,40.0,39.0,-5.0,-17.0,0.0
-5.0,-17.0,-22.0,-15.0,24.0,35.0,59.0,38.0,-14.0,-15.0,0.0
4.0,-26.0,-11.0,-4.0,25.0,19.0,29.0,19.0,-10.0,-13.0,0.0
31.0,13.0,26.0,16.0,-8.0,-9.0,-12.0,2.0,5.0,4.0,0.0
62.0,49.0,44.0,14.0,-55.0,-71.0,-24.0,8.0,14.0,40.0,0.0
76.0,48.0,-5.0,0.0,-108.0,-153.0,-49.0,27.0,10.0,43.0,0.0
74.0,48.0,-39.0,-13.0,-125.0,-152.0,-43.0,31.0,12.0,49.0,0.0
75.0,46.0,21.0,-24.0,-108.0,-118.0,-26.0,18.0,18.0,52.0,0.0
61.0,29.0,22.0,-27.0,-94.0,-93.0,-30.0,11.0,9.0,44.0,0.0
40.0,19.0,23.0,-12.0,-53.0,-68.0,-34.0,10.0,0.0,41.0,0.0
24.0,-1.0,16.0,4.0,-6.0,-15.0,-28.0,8.0,-7.0,19.0,0.0
10.0,-7.0,12.0,19.0,22.0,28.0,-13.0,2.0,0.0,4.0,0.0
-15.0,0.0,13.0,23.0,45.0,62.0,0.0,8.0,12.0,-4.0,0.0
-25.0,-9.0,16.0,41.0,74.0,100.0,12.0,4.0,26.0,-6.0,0.0
-23.0,1.0,-4.0,32.0,62.0,120.0,4.0,10.0,34.0,-1.0,0.0
-7.0,16.0,-99.0,9.0,29.0,89.0,-6.0,19.0,54.0,7.0,0.0
8.0,11.0,-114.0,10.0,-9.0,42.0,-2.0,18.0,63.0,8.0,0.0
1.0,0.0,-22.0,4.0,-16.0,21.0,23.0,18.0,62.0,-2.0,0.0
7.0,-14.0,0.0,-4.0,-22.0,-28.0,28.0,19.0,37.0,-6.0,0.0
42.0,-5.0,-4.0,-1.0,-39.0,-46.0,18.0,19.0,45.0,9.0,0.0
42.0,0.0,33.0,2.0,-29.0,0.0,25.0,12.0,19.0,9.0,0.0
44.0,6.0,42.0,4.0,-22.0,10.0,21.0,8.0,-4.0,8.0,0.0
35.0,13.0,35.0,-15.0,-43.0,-25.0,11.0,30.0,18.0,37.0,0.0
28.0,13.0,46.0,-1.0,-54.0,-68.0,-30.0,16.0,9.0,23.0,0.0
34.0,24.0,29.0,5.0,-60.0,-91.0,-45.0,-10.0,-14.0,6.0,0.0
32.0,28.0,26.0,-5.0,-55.0,-76.0,-54.0,-20.0,-19.0,9.0,0.0
24.0,15.0,38.0,-4.0,-33.0,-58.0,-58.0,-22.0,-7.0,6.0,0.0
31.0,17.0,22.0,1.0,-11.0,-49.0,-85.0,-34.0,-11.0,5.0,0.0
11.0,7.0,31.0,-1.0,2.0,-31.0,-77.0,-32.0,-18.0,0.0,0.0
-5.0,-15.0,31.0,-2.0,15.0,-16.0,-74.0,-23.0,-40.0,-20.0,0.0
-41.0,-36.0,25.0,-1.0,35.0,49.0,-16.0,-14.0,-60.0,-43.0,0.0
-51.0,-52.0,-3.0,-8.0,33.0,99.0,62.0,4.0,-69.0,-59.0,0.0
-16.0,-30.0,-94.0,-7.0,34.0,67.0,19.0,-1.0,-48.0,-37.0,0.0
-21.0,-22.0,-130.0,-8.0,38.0,44.0,19.0,-1.0,-42.0,-31.0,0.0
-11.0,-6.0,-41.0,-8.0,34.0,16.0,29.0,-4.0,-47.0,-21.0,0.0
3.0,-5.0,27.0,10.0,8.0,-12.0,9.0,0.0,-40.0,-5.0,0.0
9.0,1.0,-23.0,14.0,-16.0,-24.0,12.0,8.0,-30.0,2.0,0.0
13.0,23.0,-90.0,23.0,-27.0,-52.0,-4.0,-2.0,-21.0,7.0,0.0
10.0,13.0,-9.0,38.0,-25.0,-61.0,-35.0,-18.0,-29.0,10.0,0.0
9.0,3.0,25.0,19.0,-5.0,-25.0,-34.0,-8.0,-28.0,12.0,0.0
-3.0,-17.0,22.0,19.0,29.0,-9.0,-23.0,-17.0,-46.0,0.0,0.0
-1.0,-11.0,27.0,13.0,46.0,-8.0,-21.0,-33.0,-55.0,-15.0,0.0
-13.0,-25.0,-1.0,-11.0,17.0,-31.0,40.0,8.0,-33.0,-23.0,0.0
-10.0,-22.0,-7.0,-17.0,18.0,-18.0,72.0,27.0,-31.0,-20.0,0.0
-22.0,-3.0,16.0,0.0,35.0,14.0,60.0,22.0,-24.0,-13.0,0.0
-26.0,-2.0,35.0,17.0,20.0,43.0,39.0,7.0,-11.0,-28.0,0.0
-22.0,6.0,34.0,28.0,-2.0,50.0,13.0,-8.0,-12.0,-32.0,0.0
-21.0,-8.0,30.0,34.0,-16.0,45.0,-3.0,-27.0,-4.0,-24.0,0.0
-21.0,-2.0,19.0,19.0,9.0,64.0,-1.0,-28.0,10.0,-25.0,0.0
-14.0,-12.0,14.0,18.0,9.0,70.0,-4.0,-34.0,14.0,-31.0,0.0
0.0,7.0,16.0,21.0,-27.0,36.0,-17.0,-37.0,20.0,-17.0,0.0
1.0,18.0,6.0,-1.0,-44.0,4.0,-4.0,-22.0,18.0,2.0,0.0
15.0,20.0,-6.0,-17.0,-27.0,-25.0,39.0,2.0,31.0,19.0,0.0
35.0,39.0,4.0,-7.0,28.0,-45.0,71.0,16.0,42.0,18.0,0.0
36.0,38.0,7.0,0.0,46.0,-49.0,52.0,7.0,24.0,8.0,0.0
20.0,21.0,0.0,-9.0,25.0,-38.0,26.0,-3.0,11.0,2.0,0.0
15.0,31.0,-18.0,-18.0,10.0,-34.0,18.0,-7.0,2.0,-4.0,0.0
-2.0,31.0,-19.0,-13.0,12.0,-27.0,23.0,2.0,1.0,-6.0,0.0
-9.0,14.0,-19.0,1.0,18.0,-16.0,24.0,2.0,0.0,-2.0,0.0
15.0,5.0,-36.0,-2.0,-18.0,-13.0,18.0,9.0,-10.0,-5.0,0.0
25.0,16.0,-43.0,-7.0,-54.0,-13.0,-2.0,21.0,-3.0,0.0,0.0
5.0,1.0,-14.0,-4.0,-30.0,10.0,-23.0,8.0,-10.0,-9.0,0.0
-16.0,-13.0,0.0,-15.0,-8.0,38.0,-42.0,-2.0,-34.0,-14.0,0.0
-30.0,-30.0,1.0,-23.0,-18.0,44.0,-58.0,-2.0,-56.0,-27.0,0.0
-27.0,-48.0,-28.0,-20.0,-15.0,25.0,-62.0,3.0,-46.0,-34.0,0.0
-26.0,-48.0,-76.0,-9.0,12.0,28.0,-61.0,-13.0,-54.0,-40.0,0.0
-11.0,-19.0,9.0,0.0,38.0,35.0,-59.0,-10.0,-52.0,-38.0,0.0
15.0,-2.0,28.0,-4.0,38.0,47.0,-29.0,11.0,-36.0,1.0,0.0
37.0,10.0,11.0,-8.0,4.0,0.0,-31.0,23.0,-17.0,24.0,0.0
47.0,31.0,12.0,-17.0,-19.0,-55.0,-44.0,17.0,3.0,20.0,0.0
44.0,23.0,26.0,0.0,-12.0,-72.0,-32.0,12.0,31.0,7.0,0.0
27.0,9.0,29.0,13.0,0.0,-45.0,9.0,9.0,37.0,-6.0,0.0
25.0,14.0,26.0,2.0,-45.0,-38.0,29.0,4.0,39.0,8.0,0.0
29.0,0.0,18.0,-5.0,-80.0,-50.0,12.0,3.0,45.0,6.0,0.0
9.0,7.0,25.0,6.0,-53.0,-51.0,-1.0,-3.0,30.0,6.0,0.0
0.0,9.0,4.0,3.0,-29.0,-23.0,-13.0,-7.0,17.0,12.0,0.0
-2.0,-13.0,-85.0,-7.0,-17.0,5.0,-38.0,-11.0,6.0,16.0,0.0
-11.0,-7.0,-138.0,-3.0,-4.0,29.0,-34.0,-10.0,2.0,15.0,0.0
-13.0,-5.0,-43.0,5.0,18.0,50.0,-29.0,-8.0,-12.0,4.0,0.0
-34.0,-10.0,-2.0,2.0,37.0,78.0,-2.0,-8.0,-12.0,-10.0,0.0
-31.0,-17.0,-47.0,1.0,43.0,88.0,0.0,-17.0,-13.0,-14.0,0.0
-17.0,-22.0,10.0,4.0,30.0,87.0,-8.0,-27.0,-24.0,-23.0,0.0
-20.0,-21.0,33.0,-5.0,22.0,72.0,-3.0,-18.0,-37.0,-35.0,0.0
-19.0,-5.0,39.0,-11.0,11.0,42.0,-3.0,-8.0,-19.0,-18.0,0.0
-15.0,18.0,32.0,-6.0,7.0,18.0,-4.0,-1.0,-11.0,1.0,0.0
0.0,17.0,21.0,0.0,7.0,-5.0,0.0,2.0,-14.0,2.0,0.0
-10.0,8.0,-4.0,-10.0,13.0,-18.0,5.0,8.0,-21.0,8.0,0.0
-32.0,-4.0,-28.0,-13.0,24.0,-19.0,19.0,11.0,-29.0,5.0,0.0
-15.0,-14.0,11.0,-12.0,19.0,-50.0,-8.0,2.0,-43.0,0.0,0.0
-4.0,-9.0,11.0,-22.0,7.0,-66.0,-27.0,14.0,-34.0,17.0,0.0
-3.0,-18.0,5.0,-33.0,3.0,-36.0,-8.0,20.0,-22.0,28.0,0.0
-1.0,4.0,23.0,-13.0,21.0,-2.0,-4.0,-8.0,-34.0,27.0,0.0
-19.0,8.0,60.0,18.0,63.0,16.0,-3.0,-42.0,-68.0,1.0,0.0
-47.0,-8.0,49.0,39.0,88.0,34.0,13.0,-29.0,-56.0,-12.0,0.0
-45.0,-17.0,15.0,32.0,81.0,36.0,4.0,0.0,3.0,-15.0,0.0
-45.0,-30.0,-43.0,25.0,71.0,41.0,3.0,6.0,33.0,-26.0,0.0
-56.0,-30.0,-53.0,34.0,85.0,83.0,19.0,-16.0,20.0,-42.0,0.0
-52.0,-31.0,-72.0,17.0,75.0,109.0,41.0,2.0,11.0,-43.0,0.0
-18.0,-3.0,-35.0,12.0,36.0,50.0,9.0,-3.0,18.0,-25.0,0.0
2.0,17.0,30.0,20.0,22.0,1.0,-29.0,-12.0,10.0,-14.0,0.0
13.0,41.0,36.0,19.0,7.0,-20.0,-50.0,-9.0,0.0,0.0,0.0
20.0,36.0,31.0,22.0,-11.0,-49.0,-62.0,-13.0,3.0,17.0,0.0
29.0,33.0,-6.0,14.0,-32.0,-95.0,-46.0,-13.0,18.0,24.0,0.0
7.0,26.0,-30.0,5.0,-40.0,-84.0,2.0,15.0,27.0,25.0,0.0
-18.0,17.0,-4.0,-14.0,-60.0,-40.0,38.0,49.0,27.0,3.0,0.0
-8.0,9.0,8.0,-17.0,-64.0,-35.0,46.0,55.0,41.0,4.0,0.0
-4.0,19.0,38.0,0.0,-32.0,-40.0,28.0,42.0,28.0,9.0,0.0
-14.0,12.0,36.0,17.0,-10.0,-42.0,5.0,20.0,6.0,1.0,0.0
-18.0,-12.0,21.0,4.0,-8.0,-23.0,41.0,6.0,-17.0,-4.0,0.0
-27.0,-18.0,19.0,-4.0,-22.0,3.0,100.0,9.0,-27.0,-4.0,0.0
-51.0,-23.0,25.0,27.0,24.0,32.0,82.0,-4.0,-39.0,-24.0,0.0
-49.0,-15.0,16.0,31.0,84.0,49.0,23.0,-13.0,-39.0,-23.0,0.0
-42.0,-32.0,-12.0,6.0,90.0,52.0,5.0,8.0,-35.0,-14.0,0.0
-49.0,-40.0,-21.0,-9.0,104.0,77.0,-8.0,12.0,-23.0,-28.0,0.0
-46.0,-21.0,7.0,27.0,108.0,78.0,-43.0,-31.0,-50.0,-40.0,0.0
-25.0,-1.0,34.0,48.0,47.0,44.0,-53.0,-45.0,-61.0,-22.0,0.0
-6.0,-19.0,0.0,-20.0,-33.0,34.0,-20.0,-15.0,-52.0,-10.0,0.0
11.0,3.0,-32.0,-76.0,-91.0,6.0,20.0,10.0,-4.0,19.0,0.0
27.0,12.0,-7.0,-73.0,-101.0,-33.0,26.0,36.0,40.0,48.0,0.0
39.0,24.0,-1.0,-51.0,-83.0,-94.0,0.0,44.0,59.0,58.0,0.0
39.0,36.0,7.0,-17.0,-62.0,-124.0,-20.0,16.0,50.0,50.0,0.0
41.0,24.0,2.0,4.0,-32.0,-124.0,-26.0,3.0,48.0,49.0,0.0
34.0,14.0,-6.0,6.0,-4.0,-96.0,-33.0,-7.0,43.0,27.0,0.0
19.0,11.0,6.0,15.0,8.0,-44.0,-13.0,-14.0,43.0,10.0,0.0
9.0,-3.0,13.0,20.0,0.0,-7.0,0.0,-7.0,39.0,-1.0,0.0
2.0,-3.0,3.0,13.0,-21.0,-7.0,-11.0,-12.0,66.0,-7.0,0.0
8.0,-3.0,-14.0,5.0,-34.0,-3.0,-7.0,-19.0,58.0,0.0,0.0
-1.0,-21.0,-27.0,-2.0,-33.0,25.0,11.0,-22.0,27.0,-12.0,0.0
1.0,-10.0,-23.0,1.0,-19.0,54.0,27.0,-8.0,13.0,-23.0,0.0
-4.0,-14.0,-37.0,1.0,-16.0,87.0,42.0,11.0,31.0,-3.0,0.0
-11.0,-4.0,5.0,-4.0,-5.0,121.0,40.0,25.0,44.0,-1.0,0.0
2.0,-12.0,-6.0,-16.0,-13.0,93.0,37.0,25.0,34.0,0.0,0.0
14.0,0.0,-1.0,-14.0,-12.0,58.0,32.0,16.0,10.0,3.0,0.0
8.0,-9.0,-54.0,-19.0,-18.0,31.0,56.0,16.0,4.0,15.0,0.0
6.0,-4.0,-15.0,-21.0,-14.0,-7.0,31.0,4.0,-6.0,5.0,0.0
7.0,-13.0,8.0,-19.0,5.0,-42.0,-18.0,-17.0,-17.0,-11.0,0.0
0.0,-15.0,5.0,-9.0,11.0,-50.0,-33.0,-22.0,-24.0,-22.0,0.0
3.0,-8.0,11.0,6.0,14.0,-33.0,-42.0,-25.0,-9.0,3.0,0.0
23.0,2.0,25.0,14.0,-10.0,-80.0,-58.0,-35.0,4.0,19.0,0.0
25.0,-10.0,18.0,0.0,-24.0,-79.0,-34.0,-28.0,0.0,2.0,0.0
15.0,-33.0,-7.0,-29.0,-39.0,-42.0,6.0,0.0,-30.0,-5.0,0.0
18.0,-30.0,-30.0,-43.0,-44.0,-57.0,12.0,3.0,-19.0,5.0,0.0
12.0,-23.0,-37.0,-18.0,-21.0,-63.0,1.0,-22.0,-9.0,5.0,0.0
0.0,-11.0,-115.0,2.0,0.0,-41.0,-1.0,-26.0,2.0,3.0,0.0
-3.0,-2.0,-137.0,7.0,21.0,-19.0,0.0,-25.0,13.0,-5.0,0.0
-15.0,-13.0,-17.0,22.0,52.0,18.0,-5.0,-19.0,29.0,-17.0,0.0
-24.0,-28.0,54.0,36.0,74.0,69.0,-5.0,-24.0,42.0,-24.0,0.0
-28.0,-37.0,34.0,22.0,67.0,87.0,10.0,-13.0,40.0,-34.0,0.0
-19.0,-14.0,-28.0,7.0,45.0,65.0,16.0,-2.0,53.0,-23.0,0.0
13.0,-4.0,-87.0,4.0,18.0,43.0,23.0,4.0,61.0,-1.0,0.0
33.0,10.0,-101.0,2.0,10.0,17.0,28.0,2.0,53.0,11.0,0.0
38.0,11.0,-21.0,-4.0,5.0,-7.0,25.0,6.0,56.0,26.0,0.0
45.0,29.0,51.0,-6.0,-3.0,-10.0,29.0,22.0,46.0,36.0,0.0
53.0,36.0,82.0,-3.0,-8.0,-19.0,20.0,9.0,30.0,41.0,0.0
50.0,34.0,80.0,8.0,-17.0,-48.0,-2.0,-5.0,10.0,49.0,0.0
32.0,35.0,34.0,3.0,-8.0,-71.0,-6.0,-5.0,-23.0,45.0,0.0
21.0,33.0,-65.0,9.0,-10.0,-49.0,0.0,0.0,-26.0,38.0,0.0
25.0,26.0,-65.0,-7.0,-17.0,-35.0,-14.0,3.0,-20.0,37.0,0.0
23.0,22.0,-46.0,-17.0,-28.0,-45.0,-1.0,12.0,-8.0,37.0,0.0
12.0,22.0,-47.0,-10.0,-32.0,-26.0,13.0,23.0,0.0,33.0,0.0
8.0,10.0,39.0,0.0,-4.0,23.0,17.0,14.0,4.0,22.0,0.0
-13.0,3.0,50.0,12.0,16.0,46.0,11.0,0.0,-5.0,10.0,0.0
-50.0,2.0,46.0,16.0,24.0,56.0,-5.0,-13.0,-49.0,-10.0,0.0
-77.0,-7.0,-16.0,7.0,37.0,83.0,6.0,-21.0,-65.0,-33.0,0.0
-81.0,-2.0,-62.0,5.0,42.0,94.0,10.0,-25.0,-72.0,-39.0,0.0
-52.0,-6.0,36.0,-2.0,37.0,73.0,1.0,-17.0,-74.0,-29.0,0.0
0.0,13.0,57.0,-22.0,2.0,23.0,-8.0,-3.0,-57.0,-1.0,0.0
26.0,17.0,46.0,-30.0,-13.0,-5.0,-10.0,5.0,-23.0,18.0,0.0
30.0,13.0,35.0,-29.0,-19.0,-11.0,11.0,-1.0,-36.0,21.0,0.0
25.0,22.0,40.0,-13.0,-32.0,-40.0,23.0,-4.0,-38.0,23.0,0.0
12.0,4.0,28.0,-15.0,-32.0,-41.0,21.0,0.0,-18.0,22.0,0.0
4.0,7.0,29.0,-12.0,-37.0,-28.0,22.0,4.0,8.0,17.0,0.0
17.0,28.0,27.0,-19.0,-39.0,-22.0,25.0,17.0,37.0,19.0,0.0
25.0,15.0,25.0,-33.0,-38.0,-11.0,35.0,19.0,58.0,23.0,0.0
22.0,4.0,12.0,-12.0,-19.0,5.0,49.0,14.0,70.0,14.0,0.0
22.0,22.0,10.0,-4.0,-12.0,14.0,41.0,10.0,56.0,13.0,0.0
16.0,13.0,24.0,0.0,-8.0,23.0,46.0,-1.0,40.0,18.0,0.0
1.0,3.0,26.0,11.0,17.0,45.0,22.0,-15.0,9.0,-3.0,0.0
-16.0,-6.0,23.0,20.0,34.0,59.0,25.0,-24.0,0.0,-32.0,0.0
-22.0,-26.0,20.0,-4.0,27.0,62.0,45.0,-16.0,9.0,-47.0,0.0
-30.0,-13.0,9.0,-10.0,20.0,70.0,51.0,-10.0,-2.0,-41.0,0.0
-17.0,-17.0,-3.0,7.0,18.0,73.0,34.0,-10.0,-3.0,-29.0,0.0
-3.0,1.0,-84.0,8.0,19.0,43.0,26.0,-2.0,3.0,-14.0,0.0
0.0,12.0,-135.0,0.0,9.0,18.0,30.0,6.0,12.0,2.0,0.0
5.0,4.0,-80.0,-14.0,3.0,-10.0,11.0,12.0,10.0,3.0,0.0
17.0,15.0,8.0,-14.0,-12.0,-34.0,-24.0,19.0,2.0,16.0,0.0
17.0,13.0,2.0,-10.0,-35.0,-47.0,-26.0,28.0,0.0,31.0,0.0
-1.0,-8.0,-24.0,-13.0,-35.0,-46.0,-7.0,46.0,-3.0,28.0,0.0
-22.0,-17.0,-49.0,-13.0,-15.0,-30.0,-6.0,52.0,-2.0,18.0,0.0
-27.0,-8.0,4.0,-16.0,11.0,-32.0,-19.0,34.0,-7.0,22.0,0.0
-23.0,0.0,13.0,-5.0,22.0,-32.0,-38.0,15.0,-17.0,12.0,0.0
-20.0,-9.0,19.0,1.0,35.0,-19.0,-58.0,21.0,-33.0,0.0,0.0
-16.0,-3.0,30.0,8.0,26.0,-7.0,-45.0,25.0,-25.0,-3.0,0.0
-24.0,20.0,30.0,21.0,22.0,-6.0,-33.0,15.0,-27.0,-7.0,0.0
-17.0,8.0,37.0,31.0,15.0,-8.0,-46.0,12.0,-37.0,-13.0,0.0
-21.0,3.0,39.0,31.0,22.0,15.0,-46.0,7.0,-27.0,-20.0,0.0
-25.0,-2.0,11.0,29.0,19.0,35.0,-25.0,0.0,-36.0,-18.0,0.0
-22.0,-25.0,0.0,12.0,8.0,52.0,23.0,-1.0,-33.0,-17.0,0.0
-24.0,-16.0,-10.0,16.0,23.0,60.0,54.0,-4.0,-20.0,-29.0,0.0
-23.0,-12.0,4.0,23.0,20.0,39.0,17.0,-6.0,0.0,-36.0,0.0
-5.0,15.0,16.0,24.0,6.0,5.0,-12.0,6.0,34.0,-4.0,0.0
12.0,30.0,6.0,16.0,-22.0,-37.0,-33.0,19.0,72.0,33.0,0.0
18.0,13.0,20.0,3.0,-46.0,-50.0,-54.0,4.0,59.0,37.0,0.0
20.0,14.0,26.0,4.0,-42.0,-37.0,-47.0,-22.0,22.0,25.0,0.0
21.0,15.0,46.0,22.0,-39.0,-40.0,-46.0,-44.0,-15.0,20.0,0.0
8.0,-1.0,45.0,34.0,-30.0,-53.0,-47.0,-30.0,-23.0,11.0,0.0
-2.0,8.0,41.0,27.0,-35.0,-72.0,-23.0,-8.0,-14.0,-5.0,0.0
-9.0,-4.0,31.0,12.0,-22.0,-33.0,81.0,0.0,-4.0,-22.0,0.0
-28.0,-20.0,-1.0,8.0,0.0,-7.0,127.0,3.0,-19.0,-25.0,0.0
-14.0,-4.0,-13.0,22.0,-3.0,-47.0,67.0,-3.0,-26.0,-13.0,0.0
-3.0,-10.0,-7.0,21.0,12.0,-55.0,17.0,-20.0,-26.0,-17.0,0.0
-21.0,-10.0,-3.0,18.0,39.0,7.0,-8.0,-24.0,-47.0,-28.0,0.0
-35.0,-28.0,4.0,23.0,42.0,54.0,10.0,-15.0,-55.0,-39.0,0.0
-45.0,-39.0,-19.0,9.0,41.0,126.0,68.0,1.0,-42.0,-53.0,0.0
-55.0,-35.0,-26.0,4.0,47.0,115.0,65.0,10.0,-29.0,-37.0,0.0
-36.0,-26.0,0.0,3.0,46.0,63.0,38.0,-6.0,-25.0,-27.0,0.0
-21.0,-17.0,14.0,-1.0,26.0,28.0,15.0,-6.0,-26.0,-6.0,0.0
0.0,1.0,7.0,1.0,2.0,-22.0,-3.0,3.0,-8.0,11.0,0.0
19.0,0.0,7.0,4.0,-3.0,-46.0,-21.0,11.0,-9.0,20.0,0.0
24.0,7.0,23.0,17.0,-8.0,-49.0,-30.0,13.0,-5.0,21.0,0.0
23.0,8.0,15.0,11.0,-24.0,-50.0,-33.0,18.0,0.0,9.0,0.0
10.0,-2.0,2.0,-10.0,-50.0,-80.0,-46.0,17.0,11.0,9.0,0.0
3.0,13.0,-23.0,4.0,-59.0,-74.0,-69.0,6.0,15.0,20.0,0.0
-1.0,-6.0,-18.0,0.0,-41.0,-48.0,-47.0,0.0,4.0,-7.0,0.0
-5.0,-5.0,-45.0,-4.0,-29.0,-39.0,-21.0,0.0,14.0,-17.0,0.0
13.0,17.0,-1.0,9.0,-21.0,5.0,-4.0,15.0,40.0,-4.0,0.0
20.0,16.0,25.0,16.0,-12.0,51.0,35.0,27.0,32.0,10.0,0.0
15.0,17.0,7.0,6.0,-1.0,75.0,30.0,21.0,12.0,2.0,0.0
7.0,-4.0,-3.0,7.0,40.0,120.0,24.0,-1.0,-25.0,-26.0,0.0
-26.0,-22.0,-2.0,31.0,96.0,186.0,19.0,-42.0,-72.0,-58.0,0.0
-43.0,-28.0,-4.0,43.0,142.0,193.0,-8.0,-61.0,-85.0,-61.0,0.0
-33.0,-19.0,-14.0,19.0,108.0,101.0,-10.0,-14.0,-32.0,-39.0,0.0
-30.0,-16.0,-24.0,-3.0,87.0,30.0,-38.0,7.0,-24.0,-33.0,0.0
-18.0,0.0,1.0,22.0,109.0,1.0,-78.0,-28.0,-57.0,-39.0,0.0
11.0,31.0,43.0,29.0,43.0,-46.0,-70.0,-10.0,-37.0,-9.0,0.0
44.0,51.0,39.0,18.0,-37.0,-83.0,-58.0,20.0,0.0,24.0,0.0
57.0,42.0,24.0,14.0,-75.0,-105.0,-72.0,18.0,19.0,39.0,0.0
51.0,47.0,27.0,-3.0,-107.0,-121.0,-55.0,22.0,26.0,52.0,0.0
37.0,30.0,-8.0,-52.0,-151.0,-93.0,3.0,52.0,37.0,56.0,0.0
26.0,-4.0,-46.0,-60.0,-149.0,-64.0,80.0,63.0,33.0,35.0,0.0
30.0,-2.0,-45.0,-42.0,-111.0,-46.0,35.0,55.0,18.0,26.0,0.0
22.0,15.0,2.0,-26.0,-74.0,-36.0,-1.0,49.0,12.0,28.0,0.0
22.0,5.0,8.0,-21.0,-62.0,-49.0,-7.0,52.0,19.0,33.0,0.0
24.0,13.0,16.0,-16.0,-62.0,-79.0,-19.0,59.0,26.0,47.0,0.0
5.0,5.0,15.0,-1.0,-37.0,-38.0,-9.0,45.0,19.0,22.0,0.0
-17.0,-25.0,-19.0,1.0,2.0,20.0,5.0,37.0,19.0,-4.0,0.0
-33.0,-15.0,-85.0,2.0,30.0,59.0,14.0,39.0,30.0,-15.0,0.0
-24.0,-16.0,-15.0,-2.0,23.0,47.0,7.0,30.0,30.0,-13.0,0.0
-12.0,8.0,24.0,-5.0,-8.0,15.0,-11.0,7.0,13.0,-9.0,0.0
-5.0,3.0,18.0,-25.0,-18.0,8.0,-6.0,12.0,10.0,-9.0,0.0
21.0,-9.0,21.0,-33.0,-9.0,-9.0,1.0,14.0,37.0,2.0,0.0
45.0,17.0,21.0,-14.0,10.0,-45.0,-4.0,13.0,72.0,7.0,0.0
60.0,17.0,31.0,0.0,5.0,-65.0,-19.0,14.0,78.0,14.0,0.0
50.0,10.0,42.0,-5.0,-7.0,-49.0,-13.0,17.0,84.0,9.0,0.0
37.0,24.0,42.0,-13.0,-48.0,-37.0,-5.0,17.0,57.0,13.0,0.0
19.0,15.0,36.0,-20.0,-74.0,-50.0,0.0,10.0,41.0,7.0,0.0
4.0,-3.0,28.0,-14.0,-59.0,-54.0,-5.0,6.0,15.0,1.0,0.0
-3.0,12.0,19.0,-15.0,-44.0,-43.0,-11.0,1.0,0.0,9.0,0.0
-19.0,-3.0,19.0,-15.0,-28.0,-37.0,-5.0,-5.0,-23.0,-2.0,0.0
-32.0,-12.0,33.0,-2.0,-4.0,-21.0,15.0,5.0,-30.0,-8.0,0.0
-35.0,-11.0,25.0,0.0,32.0,21.0,24.0,3.0,-25.0,1.0,0.0
-34.0,-23.0,7.0,-2.0,62.0,59.0,19.0,-12.0,-29.0,-14.0,0.0
-42.0,-11.0,12.0,1.0,78.0,89.0,26.0,-18.0,-29.0,-23.0,0.0
-40.0,-13.0,19.0,14.0,67.0,104.0,9.0,-20.0,-2.0,-18.0,0.0
-24.0,0.0,22.0,15.0,68.0,92.0,-9.0,-21.0,3.0,-6.0,0.0
-27.0,2.0,18.0,2.0,56.0,52.0,-22.0,-18.0,-35.0,-11.0,0.0
-33.0,-3.0,-1.0,8.0,40.0,10.0,-29.0,-31.0,-57.0,-19.0,0.0
-25.0,17.0,-83.0,2.0,14.0,-23.0,-40.0,-36.0,-51.0,-2.0,0.0
2.0,48.0,-103.0,-6.0,-21.0,-55.0,-6.0,-28.0,-22.0,17.0,0.0
21.0,54.0,1.0,-25.0,-35.0,-74.0,11.0,-14.0,4.0,22.0,0.0
24.0,32.0,25.0,-46.0,-30.0,-59.0,23.0,4.0,5.0,19.0,0.0
20.0,14.0,32.0,-38.0,-27.0,-45.0,22.0,9.0,-10.0,5.0,0.0
13.0,24.0,16.0,-27.0,-3.0,-35.0,8.0,12.0,-21.0,1.0,0.0
0.0,20.0,14.0,-29.0,2.0,-27.0,24.0,12.0,-24.0,-6.0,0.0
-11.0,-3.0,13.0,-30.0,8.0,-15.0,44.0,13.0,-23.0,-8.0,0.0
-3.0,-7.0,13.0,-32.0,13.0,-21.0,42.0,0.0,-36.0,-4.0,0.0
24.0,13.0,25.0,-16.0,9.0,-21.0,19.0,-16.0,-29.0,0.0,0.0
32.0,2.0,16.0,-11.0,4.0,-5.0,0.0,-15.0,-16.0,-4.0,0.0
10.0,-3.0,2.0,-4.0,18.0,38.0,32.0,-13.0,-28.0,-13.0,0.0
0.0,-7.0,-5.0,0.0,34.0,78.0,46.0,-19.0,-13.0,-20.0,0.0
1.0,-12.0,5.0,1.0,31.0,92.0,37.0,-22.0,0.0,-14.0,0.0
10.0,-8.0,-12.0,10.0,26.0,87.0,31.0,-18.0,11.0,-16.0,0.0
10.0,0.0,-26.0,22.0,9.0,54.0,47.0,-21.0,24.0,-9.0,0.0
24.0,6.0,13.0,27.0,-3.0,8.0,37.0,-10.0,41.0,2.0,0.0
38.0,15.0,22.0,29.0,7.0,-21.0,38.0,-9.0,49.0,17.0,0.0
29.0,21.0,22.0,16.0,0.0,-50.0,40.0,-5.0,49.0,26.0,0.0
19.0,17.0,-43.0,10.0,-1.0,-49.0,32.0,-15.0,38.0,29.0,0.0
19.0,7.0,-67.0,3.0,-5.0,-29.0,16.0,-21.0,42.0,32.0,0.0
1.0,4.0,16.0,-5.0,-8.0,-17.0,15.0,-11.0,51.0,29.0,0.0
11.0,4.0,35.0,1.0,-6.0,-15.0,14.0,-4.0,47.0,25.0,0.0
16.0,-9.0,37.0,10.0,0.0,-19.0,9.0,-10.0,23.0,15.0,0.0
12.0,1.0,19.0,15.0,-4.0,-31.0,-6.0,-4.0,1.0,14.0,0.0
-3.0,-1.0,11.0,8.0,-7.0,-7.0,-1.0,0.0,-10.0,-6.0,0.0
-15.0,-29.0,2.0,-5.0,-7.0,7.0,-1.0,7.0,-32.0,-20.0,0.0
-14.0,-10.0,3.0,-4.0,2.0,20.0,-20.0,-2.0,-19.0,-12.0,0.0
-11.0,-12.0,8.0,-11.0,28.0,48.0,-32.0,-14.0,-14.0,-20.0,0.0
-12.0,-24.0,15.0,-15.0,43.0,68.0,-21.0,-9.0,-26.0,-31.0,0.0
-14.0,-17.0,16.0,-8.0,55.0,64.0,-5.0,-6.0,-41.0,-28.0,0.0
-7.0,-16.0,-5.0,-6.0,74.0,44.0,4.0,0.0,-45.0,-38.0,0.0
0.0,2.0,-96.0,4.0,78.0,21.0,2.0,9.0,-42.0,-21.0,0.0
17.0,9.0,-87.0,21.0,50.0,-17.0,-61.0,5.0,-29.0,3.0,0.0
34.0,0.0,-9.0,24.0,7.0,-44.0,-87.0,-1.0,-38.0,6.0,0.0
47.0,11.0,2.0,27.0,-33.0,-82.0,-76.0,-4.0,-44.0,6.0,0.0
45.0,18.0,10.0,13.0,-69.0,-90.0,-23.0,-11.0,-20.0,13.0,0.0
56.0,-2.0,7.0,-14.0,-98.0,-69.0,12.0,3.0,-2.0,4.0,0.0
60.0,-4.0,13.0,-19.0,-96.0,-67.0,2.0,6.0,5.0,-3.0,0.0
44.0,8.0,-10.0,-7.0,-81.0,-52.0,-12.0,-9.0,-6.0,6.0,0.0
17.0,0.0,-5.0,2.0,-66.0,-33.0,-13.0,-3.0,14.0,3.0,0.0
-12.0,-4.0,8.0,13.0,-25.0,-21.0,-23.0,-3.0,17.0,-10.0,0.0
-27.0,-16.0,4.0,5.0,20.0,-2.0,-27.0,-10.0,9.0,-22.0,0.0
-36.0,-22.0,-4.0,1.0,66.0,16.0,-33.0,-29.0,13.0,-28.0,0.0
-43.0,-11.0,-24.0,22.0,72.0,35.0,-41.0,-39.0,1.0,-35.0,0.0
-50.0,-24.0,-46.0,36.0,65.0,57.0,-40.0,-33.0,-9.0,-44.0,0.0
-57.0,-28.0,-2.0,26.0,67.0,107.0,2.0,-12.0,-8.0,-58.0,0.0
-48.0,-31.0,-5.0,29.0,55.0,134.0,39.0,-4.0,-12.0,-46.0,0.0
-20.0,-9.0,13.0,33.0,23.0,88.0,10.0,3.0,-7.0,-15.0,0.0
2.0,4.0,41.0,26.0,3.0,29.0,-28.0,-4.0,1.0,1.0,0.0
0.0,-11.0,26.0,6.0,-13.0,-7.0,-17.0,12.0,12.0,7.0,0.0
8.0,2.0,-26.0,-10.0,-46.0,-47.0,6.0,44.0,19.0,24.0,0.0
13.0,-9.0,-44.0,-24.0,-44.0,-61.0,4.0,47.0,31.0,33.0,0.0
15.0,-6.0,-4.0,-38.0,-19.0,-55.0,10.0,21.0,16.0,18.0,0.0
32.0,9.0,29.0,-10.0,-12.0,-52.0,14.0,-8.0,-6.0,7.0,0.0
20.0,-8.0,-18.0,19.0,-15.0,-63.0,1.0,-20.0,-14.0,-5.0,0.0
2.0,-12.0,-89.0,-2.0,-16.0,-44.0,11.0,-8.0,2.0,2.0,0.0
3.0,-23.0,-12.0,-15.0,-44.0,-18.0,11.0,1.0,10.0,13.0,0.0
3.0,3.0,31.0,-9.0,-35.0,-20.0,-12.0,-3.0,-11.0,6.0,0.0
-7.0,10.0,48.0,0.0,7.0,-7.0,-12.0,-8.0,-20.0,-6.0,0.0
-16.0,-16.0,10.0,-3.0,24.0,35.0,-11.0,14.0,-23.0,-18.0,0.0
-15.0,-8.0,-70.0,-6.0,34.0,60.0,-30.0,13.0,-25.0,-6.0,0.0
-9.0,-13.0,-7.0,6.0,36.0,88.0,-47.0,1.0,-10.0,0.0,0.0
-11.0,-13.0,26.0,5.0,24.0,107.0,-21.0,-9.0,-16.0,3.0,0.0
-14.0,-32.0,-10.0,-15.0,2.0,78.0,15.0,-8.0,-16.0,-5.0,0.0
-14.0,-18.0,-7.0,-26.0,-15.0,40.0,15.0,8.0,22.0,-4.0,0.0
-6.0,-10.0,2.0,-17.0,-16.0,5.0,0.0,11.0,44.0,15.0,0.0
-13.0,0.0,20.0,1.0,1.0,-13.0,-5.0,14.0,49.0,17.0,0.0
-13.0,16.0,3.0,2.0,10.0,-7.0,21.0,33.0,64.0,7.0,0.0
-13.0,-14.0,-34.0,-15.0,24.0,15.0,42.0,37.0,54.0,-4.0,0.0
-15.0,-15.0,-15.0,-7.0,38.0,31.0,43.0,12.0,31.0,-18.0,0.0
-26.0,-20.0,9.0,21.0,75.0,52.0,16.0,-31.0,-2.0,-38.0,0.0
-35.0,-21.0,18.0,36.0,102.0,68.0,-1.0,-45.0,-14.0,-46.0,0.0
-34.0,-39.0,10.0,22.0,84.0,49.0,0.0,-16.0,5.0,-33.0,0.0
-16.0,-45.0,2.0,-7.0,30.0,0.0,-11.0,9.0,40.0,-6.0,0.0
10.0,-11.0,12.0,-11.0,-54.0,-58.0,-41.0,13.0,51.0,9.0,0.0
15.0,16.0,15.0,-30.0,-109.0,-54.0,-34.0,23.0,52.0,33.0,0.0
12.0,6.0,10.0,-54.0,-97.0,3.0,-8.0,30.0,34.0,24.0,0.0
3.0,7.0,17.0,-43.0,-57.0,42.0,-20.0,16.0,32.0,10.0,0.0
-4.0,-11.0,6.0,-14.0,-11.0,63.0,-62.0,4.0,26.0,4.0,0.0
12.0,5.0,12.0,-8.0,-2.0,30.0,-101.0,-2.0,1.0,24.0,0.0
27.0,11.0,26.0,1.0,-6.0,0.0,-121.0,-33.0,-22.0,29.0,0.0
26.0,10.0,41.0,15.0,-13.0,38.0,-64.0,-46.0,-47.0,0.0,0.0
17.0,25.0,0.0,5.0,-39.0,16.0,-28.0,-19.0,-25.0,5.0,0.0
30.0,18.0,-112.0,-18.0,-90.0,-75.0,-24.0,8.0,19.0,37.0,0.0
21.0,15.0,-100.0,-22.0,-86.0,-70.0,28.0,5.0,9.0,34.0,0.0
1.0,1.0,-20.0,-28.0,-68.0,1.0,160.0,19.0,-9.0,9.0,0.0
-9.0,-16.0,2.0,-22.0,-49.0,1.0,159.0,20.0,-31.0,-7.0,0.0
-11.0,-11.0,3.0,-11.0,-36.0,-15.0,78.0,13.0,-41.0,-3.0,0.0
-5.0,-13.0,3.0,-13.0,-19.0,-31.0,43.0,0.0,-17.0,15.0,0.0
8.0,5.0,6.0,-14.0,7.0,-31.0,-26.0,-20.0,-13.0,25.0,0.0
20.0,5.0,17.0,0.0,25.0,-30.0,-67.0,-37.0,-18.0,20.0,0.0
4.0,3.0,20.0,-3.0,11.0,-13.0,-18.0,-16.0,-7.0,1.0,0.0
-8.0,6.0,11.0,-3.0,3.0,13.0,2.0,0.0,21.0,-4.0,0.0
-5.0,-1.0,12.0,13.0,20.0,35.0,-35.0,-5.0,7.0,-10.0,0.0
-11.0,-6.0,1.0,13.0,20.0,62.0,-28.0,-7.0,-8.0,-13.0,0.0
-20.0,-18.0,-25.0,1.0,21.0,67.0,8.0,-3.0,-8.0,-19.0,0.0
-19.0,4.0,3.0,11.0,31.0,63.0,29.0,7.0,0.0,-14.0,0.0
-15.0,3.0,37.0,35.0,53.0,73.0,46.0,4.0,-5.0,-10.0,0.0
-16.0,14.0,41.0,35.0,56.0,55.0,40.0,1.0,-8.0,1.0,0.0
-4.0,18.0,29.0,10.0,40.0,-8.0,13.0,13.0,17.0,20.0,0.0
12.0,13.0,22.0,-12.0,3.0,-72.0,-7.0,23.0,33.0,28.0,0.0
20.0,28.0,33.0,11.0,22.0,-57.0,-40.0,-25.0,-10.0,-4.0,0.0
11.0,20.0,36.0,26.0,55.0,-9.0,-38.0,-29.0,-18.0,-16.0,0.0
11.0,10.0,36.0,18.0,29.0,-15.0,-55.0,-2.0,-3.0,0.0,0.0
4.0,3.0,11.0,-14.0,-18.0,-18.0,-18.0,28.0,-2.0,5.0,0.0
-17.0,-26.0,-68.0,-22.0,-39.0,14.0,73.0,43.0,-13.0,-8.0,0.0
-25.0,-22.0,-79.0,-17.0,-33.0,-8.0,54.0,30.0,-14.0,-8.0,0.0
-40.0,-27.0,3.0,-3.0,-19.0,-17.0,-6.0,17.0,-8.0,2.0,0.0
-41.0,-18.0,24.0,-8.0,-20.0,-4.0,-23.0,-2.0,10.0,0.0,0.0
-24.0,-16.0,33.0,6.0,0.0,8.0,-43.0,-16.0,14.0,-16.0,0.0
-25.0,-5.0,48.0,34.0,39.0,25.0,-34.0,-17.0,13.0,-25.0,0.0
-35.0,-25.0,38.0,22.0,48.0,49.0,6.0,-11.0,16.0,-28.0,0.0
-29.0,-32.0,20.0,0.0,51.0,43.0,18.0,-16.0,16.0,-30.0,0.0
-24.0,-34.0,16.0,-10.0,41.0,48.0,25.0,-26.0,3.0,-27.0,0.0
-19.0,-11.0,9.0,-14.0,28.0,50.0,34.0,-23.0,1.0,-11.0,0.0
-4.0,-5.0,7.0,-7.0,17.0,43.0,57.0,9.0,7.0,19.0,0.0
6.0,16.0,16.0,2.0,12.0,49.0,66.0,25.0,12.0,39.0,0.0
23.0,5.0,23.0,5.0,1.0,7.0,63.0,16.0,22.0,43.0,0.0
35.0,-1.0,28.0,16.0,13.0,-33.0,41.0,14.0,12.0,40.0,0.0
26.0,-9.0,28.0,17.0,29.0,-24.0,21.0,-8.0,-24.0,28.0,0.0
28.0,-2.0,14.0,20.0,51.0,-3.0,10.0,-21.0,-42.0,16.0,0.0
25.0,-9.0,8.0,14.0,60.0,-8.0,3.0,-25.0,-31.0,16.0,0.0
20.0,-21.0,13.0,-4.0,28.0,-36.0,-1.0,-23.0,-32.0,23.0,0.0
14.0,-8.0,13.0,-14.0,10.0,-35.0,-19.0,-28.0,-48.0,21.0,0.0
-3.0,-1.0,5.0,-16.0,13.0,-12.0,12.0,-9.0,-26.0,24.0,0.0
-2.0,2.0,1.0,-9.0,15.0,5.0,14.0,-5.0,-8.0,25.0,0.0
0.0,18.0,8.0,-17.0,-3.0,30.0,-29.0,-37.0,-42.0,11.0,0.0
-2.0,24.0,-2.0,-24.0,-21.0,49.0,-59.0,-41.0,-50.0,-1.0,0.0
-1.0,0.0,-47.0,-12.0,-10.0,52.0,-61.0,-35.0,-50.0,-5.0,0.0
-10.0,-5.0,-35.0,-9.0,-2.0,53.0,-59.0,-21.0,-25.0,-7.0,0.0
-4.0,-21.0,-131.0,-21.0,-14.0,43.0,-35.0,-1.0,-7.0,-9.0,0.0
-10.0,-16.0,-94.0,-28.0,-37.0,31.0,-15.0,12.0,4.0,-2.0,0.0
1.0,2.0,-48.0,-9.0,-53.0,7.0,-8.0,10.0,18.0,4.0,0.0
27.0,30.0,-56.0,-11.0,-60.0,-23.0,-17.0,8.0,47.0,25.0,0.0
22.0,30.0,9.0,-5.0,-64.0,-42.0,-19.0,11.0,64.0,33.0,0.0
26.0,22.0,22.0,8.0,-58.0,-50.0,-24.0,8.0,59.0,32.0,0.0
25.0,27.0,20.0,15.0,-40.0,-47.0,-21.0,19.0,51.0,28.0,0.0
14.0,22.0,2.0,10.0,-23.0,-45.0,-29.0,21.0,31.0,24.0,0.0
4.0,15.0,-14.0,11.0,-8.0,-27.0,-48.0,-7.0,17.0,21.0,0.0
-5.0,5.0,6.0,2.0,-7.0,-12.0,-49.0,-17.0,0.0,12.0,0.0
-4.0,-3.0,9.0,4.0,-9.0,10.0,-22.0,-22.0,-12.0,11.0,0.0
5.0,-15.0,19.0,0.0,0.0,49.0,1.0,-23.0,-13.0,5.0,0.0
1.0,-16.0,27.0,-3.0,1.0,74.0,-18.0,-39.0,-21.0,6.0,0.0
-22.0,-13.0,24.0,2.0,35.0,70.0,-23.0,-45.0,-31.0,-7.0,0.0
-40.0,-28.0,13.0,-2.0,61.0,83.0,-22.0,-41.0,-31.0,-7.0,0.0
-35.0,-35.0,12.0,-14.0,56.0,76.0,-1.0,-31.0,-44.0,-8.0,0.0
-31.0,-30.0,15.0,-12.0,56.0,45.0,24.0,-21.0,-52.0,-11.0,0.0
-31.0,-21.0,18.0,8.0,66.0,27.0,14.0,-18.0,-48.0,-10.0,0.0
-14.0,-9.0,24.0,21.0,60.0,10.0,-4.0,0.0,-33.0,1.0,0.0
-4.0,1.0,12.0,25.0,39.0,-14.0,0.0,2.0,-9.0,20.0,0.0
3.0,12.0,-7.0,30.0,-9.0,-42.0,23.0,3.0,-10.0,35.0,0.0
-2.0,28.0,31.0,36.0,-43.0,-47.0,27.0,0.0,-18.0,31.0,0.0
-11.0,4.0,36.0,26.0,-44.0,-39.0,32.0,4.0,-16.0,26.0,0.0
0.0,12.0,28.0,16.0,-70.0,-66.0,20.0,20.0,-2.0,18.0,0.0
3.0,-3.0,12.0,-7.0,-84.0,-73.0,28.0,38.0,-2.0,18.0,0.0
0.0,-10.0,18.0,-5.0,-89.0,-74.0,25.0,31.0,2.0,-11.0,0.0
-6.0,-9.0,11.0,-12.0,-81.0,-46.0,10.0,39.0,23.0,-10.0,0.0
-5.0,-1.0,-44.0,-21.0,-60.0,-13.0,3.0,37.0,45.0,-2.0,0.0
-8.0,3.0,-101.0,-14.0,-29.0,1.0,-3.0,27.0,44.0,1.0,0.0
-12.0,12.0,3.0,7.0,-6.0,7.0,-33.0,-9.0,28.0,-7.0,0.0
-19.0,7.0,38.0,16.0,11.0,34.0,-24.0,-32.0,6.0,-21.0,0.0
-34.0,-11.0,17.0,-2.0,15.0,87.0,40.0,-27.0,-1.0,-38.0,0.0
-42.0,-19.0,7.0,-12.0,10.0,86.0,44.0,-12.0,-8.0,-49.0,0.0
-17.0,-18.0,4.0,-17.0,7.0,53.0,26.0,7.0,4.0,-37.0,0.0
0.0,4.0,10.0,-5.0,-9.0,2.0,-9.0,8.0,16.0,-11.0,0.0
-14.0,0.0,10.0,-11.0,-6.0,-41.0,-21.0,0.0,-2.0,-6.0,0.0
-18.0,0.0,4.0,-22.0,-7.0,-56.0,-9.0,2.0,-19.0,3.0,0.0
-11.0,8.0,-9.0,-9.0,-12.0,-58.0,3.0,-9.0,-15.0,12.0,0.0
8.0,9.0,-13.0,-11.0,-21.0,-63.0,-15.0,-3.0,-10.0,17.0,0.0
23.0,18.0,19.0,-29.0,-37.0,-89.0,-32.0,9.0,1.0,21.0,0.0
2.0,27.0,16.0,-7.0,-28.0,-84.0,-33.0,-4.0,-11.0,15.0,0.0
0.0,34.0,-44.0,1.0,-15.0,-58.0,-37.0,-20.0,-30.0,11.0,0.0
12.0,23.0,-133.0,-19.0,-26.0,-40.0,-32.0,-1.0,-7.0,14.0,0.0
11.0,22.0,-74.0,-11.0,-18.0,-7.0,-10.0,10.0,-4.0,8.0,0.0
5.0,31.0,18.0,8.0,37.0,17.0,-11.0,1.0,-8.0,5.0,0.0
0.0,14.0,21.0,13.0,107.0,43.0,-12.0,-5.0,1.0,-4.0,0.0
-21.0,1.0,19.0,1.0,129.0,94.0,-7.0,-12.0,4.0,-18.0,0.0
-26.0,-9.0,-13.0,6.0,124.0,124.0,-18.0,-19.0,9.0,-25.0,0.0
-28.0,-14.0,-103.0,27.0,136.0,131.0,-20.0,-35.0,12.0,-42.0,0.0
-35.0,-4.0,-44.0,36.0,130.0,114.0,-12.0,-34.0,11.0,-56.0,0.0
-32.0,-9.0,19.0,17.0,84.0,81.0,-18.0,-14.0,6.0,-32.0,0.0
-18.0,19.0,24.0,7.0,0.0,42.0,-20.0,11.0,23.0,-1.0,0.0
19.0,37.0,61.0,14.0,-74.0,-39.0,-40.0,19.0,33.0,19.0,0.0
26.0,35.0,66.0,15.0,-71.0,-65.0,-40.0,15.0,20.0,23.0,0.0
9.0,39.0,43.0,-9.0,-53.0,-31.0,-19.0,19.0,16.0,19.0,0.0
21.0,42.0,29.0,-30.0,-76.0,-37.0,-7.0,29.0,20.0,21.0,0.0
26.0,30.0,21.0,-32.0,-98.0,-82.0,-2.0,42.0,21.0,29.0,0.0
18.0,17.0,17.0,-25.0,-88.0,-98.0,3.0,34.0,20.0,21.0,0.0
24.0,36.0,47.0,-18.0,-78.0,-74.0,12.0,13.0,1.0,17.0,0.0
36.0,37.0,47.0,-21.0,-82.0,-86.0,-9.0,18.0,6.0,33.0,0.0
30.0,0.0,42.0,-42.0,-103.0,-128.0,-24.0,28.0,28.0,49.0,0.0
10.0,8.0,50.0,-25.0,-83.0,-89.0,-8.0,4.0,5.0,22.0,0.0
6.0,23.0,38.0,-11.0,-41.0,-39.0,10.0,-12.0,-21.0,2.0,0.0
0.0,2.0,20.0,-15.0,-9.0,11.0,-14.0,-24.0,-45.0,-7.0,0.0
6.0,-7.0,21.0,-25.0,5.0,30.0,-32.0,-24.0,-25.0,-11.0,0.0
2.0,5.0,22.0,-30.0,8.0,21.0,-37.0,-15.0,-10.0,-8.0,0.0
0.0,-1.0,2.0,-35.0,0.0,20.0,-25.0,-9.0,15.0,-11.0,0.0
4.0,-4.0,-40.0,-40.0,6.0,23.0,16.0,3.0,60.0,-7.0,0.0
7.0,1.0,15.0,-31.0,-5.0,-6.0,36.0,-5.0,71.0,0.0,0.0
16.0,4.0,22.0,-22.0,-15.0,-52.0,12.0,-22.0,40.0,11.0,0.0
23.0,9.0,-21.0,-14.0,-11.0,-74.0,5.0,-3.0,28.0,12.0,0.0
13.0,14.0,-4.0,-1.0,-1.0,-50.0,31.0,8.0,38.0,14.0,0.0
13.0,1.0,23.0,14.0,3.0,-17.0,37.0,0.0,40.0,31.0,0.0
5.0,-3.0,23.0,13.0,14.0,-15.0,34.0,-10.0,19.0,11.0,0.0
-1.0,2.0,0.0,9.0,3.0,-33.0,20.0,0.0,6.0,-8.0,0.0
1.0,-18.0,8.0,0.0,-2.0,-28.0,32.0,10.0,1.0,0.0,0.0
5.0,-15.0,-19.0,1.0,10.0,-11.0,45.0,-4.0,-27.0,-16.0,0.0
-1.0,-9.0,-32.0,24.0,27.0,-20.0,24.0,-6.0,-29.0,-18.0,0.0
-7.0,-8.0,-60.0,23.0,23.0,-8.0,11.0,-3.0,-40.0,-31.0,0.0
-20.0,-16.0,-28.0,13.0,22.0,30.0,7.0,-14.0,-39.0,-42.0,0.0
-42.0,-49.0,13.0,12.0,44.0,47.0,3.0,-37.0,-59.0,-53.0,0.0
-49.0,-62.0,0.0,14.0,50.0,65.0,14.0,-42.0,-80.0,-51.0,0.0
-44.0,-44.0,-30.0,10.0,45.0,101.0,20.0,-24.0,-61.0,-36.0,0.0
-18.0,-15.0,-116.0,5.0,8.0,119.0,3.0,-7.0,-35.0,-15.0,0.0
16.0,-13.0,-78.0,0.0,-4.0,80.0,-6.0,13.0,-10.0,5.0,0.0
21.0,-11.0,12.0,-7.0,12.0,39.0,-10.0,24.0,20.0,17.0,0.0
25.0,0.0,40.0,3.0,14.0,12.0,-12.0,2.0,23.0,19.0,0.0
20.0,5.0,38.0,14.0,16.0,3.0,-17.0,-13.0,13.0,9.0,0.0
26.0,-4.0,39.0,14.0,8.0,-29.0,-25.0,-17.0,20.0,12.0,0.0
37.0,16.0,17.0,21.0,-15.0,-89.0,-42.0,-7.0,44.0,29.0,0.0
34.0,22.0,-22.0,20.0,-35.0,-101.0,-16.0,7.0,64.0,31.0,0.0
15.0,0.0,-62.0,20.0,-26.0,-91.0,25.0,10.0,67.0,3.0,0.0
15.0,0.0,11.0,6.0,10.0,-63.0,28.0,16.0,73.0,4.0,0.0
3.0,-8.0,35.0,23.0,43.0,-25.0,-9.0,23.0,73.0,11.0,0.0
-3.0,-9.0,25.0,23.0,43.0,8.0,-39.0,25.0,47.0,7.0,0.0
-2.0,-20.0,-37.0,15.0,39.0,35.0,-52.0,21.0,35.0,-7.0,0.0
0.0,-14.0,-21.0,38.0,35.0,31.0,-48.0,5.0,22.0,-15.0,0.0
-7.0,0.0,34.0,36.0,16.0,24.0,-23.0,-14.0,-12.0,-16.0,0.0
-9.0,-6.0,8.0,0.0,-8.0,23.0,-1.0,-32.0,-39.0,-18.0,0.0
-37.0,-7.0,-77.0,-21.0,-9.0,51.0,71.0,-29.0,-50.0,-28.0,0.0
-41.0,-31.0,-36.0,-51.0,-18.0,63.0,88.0,-10.0,-57.0,-40.0,0.0
-21.0,-15.0,-2.0,-40.0,-26.0,-4.0,1.0,-18.0,-59.0,-36.0,0.0
10.0,4.0,25.0,-23.0,-19.0,-67.0,-63.0,-20.0,-52.0,-25.0,0.0
28.0,22.0,4.0,-7.0,-15.0,-84.0,-73.0,-11.0,-41.0,-8.0,0.0
8.0,8.0,-67.0,1.0,-4.0,-81.0,-24.0,-2.0,-34.0,-13.0,0.0
-8.0,-8.0,-11.0,-2.0,-8.0,-58.0,-4.0,3.0,-35.0,-19.0,0.0
-13.0,-10.0,5.0,11.0,4.0,-25.0,-27.0,-10.0,-36.0,-20.0,0.0
-24.0,-21.0,13.0,13.0,26.0,-8.0,-4.0,2.0,-43.0,-18.0,0.0
-13.0,-1.0,37.0,17.0,6.0,-11.0,32.0,15.0,-19.0,-5.0,0.0
13.0,3.0,41.0,28.0,-7.0,-15.0,37.0,1.0,-4.0,-3.0,0.0
0.0,1.0,24.0,20.0,2.0,2.0,29.0,0.0,5.0,-19.0,0.0
-18.0,-16.0,6.0,14.0,7.0,51.0,47.0,17.0,18.0,-23.0,0.0
-19.0,-16.0,-21.0,3.0,17.0,93.0,53.0,35.0,21.0,-19.0,0.0
-6.0,-14.0,6.0,28.0,42.0,106.0,22.0,13.0,5.0,-25.0,0.0
10.0,-8.0,31.0,42.0,48.0,73.0,22.0,-6.0,7.0,-31.0,0.0
12.0,-15.0,13.0,14.0,31.0,46.0,15.0,11.0,17.0,-13.0,0.0
0.0,-19.0,6.0,20.0,42.0,62.0,6.0,15.0,5.0,-12.0,0.0
5.0,-5.0,19.0,42.0,37.0,52.0,-2.0,0.0,-6.0,-12.0,0.0
10.0,12.0,-1.0,17.0,-7.0,9.0,-3.0,11.0,20.0,6.0,0.0
6.0,12.0,-23.0,-18.0,-43.0,-9.0,-3.0,26.0,26.0,19.0,0.0
22.0,2.0,-48.0,-28.0,-67.0,-24.0,-8.0,39.0,25.0,33.0,0.0
31.0,14.0,-54.0,-18.0,-59.0,-33.0,15.0,69.0,30.0,32.0,0.0
32.0,-3.0,5.0,-9.0,-51.0,-21.0,65.0,90.0,38.0,37.0,0.0
34.0,7.0,-20.0,-23.0,-74.0,-53.0,56.0,67.0,35.0,56.0,0.0
37.0,11.0,-11.0,-22.0,-76.0,-71.0,63.0,41.0,25.0,47.0,0.0
19.0,-10.0,11.0,-28.0,-51.0,-34.0,101.0,27.0,-3.0,28.0,0.0
-7.0,-3.0,1.0,-27.0,-31.0,-10.0,103.0,7.0,-24.0,11.0,0.0
-17.0,-14.0,-6.0,-12.0,-1.0,8.0,60.0,-9.0,-29.0,-2.0,0.0
-9.0,-2.0,-63.0,-3.0,11.0,18.0,36.0,-22.0,-38.0,-9.0,0.0
-9.0,-9.0,-51.0,2.0,17.0,44.0,-7.0,-36.0,-47.0,-14.0,0.0
-17.0,-25.0,-28.0,8.0,24.0,71.0,-27.0,-43.0,-52.0,-24.0,0.0
-20.0,-25.0,12.0,0.0,20.0,56.0,-20.0,-12.0,-40.0,-14.0,0.0
-4.0,-15.0,16.0,0.0,18.0,23.0,3.0,11.0,-9.0,5.0,0.0
-1.0,-15.0,36.0,-3.0,15.0,25.0,-2.0,16.0,0.0,15.0,0.0
1.0,3.0,33.0,-9.0,-4.0,16.0,4.0,24.0,14.0,26.0,0.0
9.0,5.0,20.0,-6.0,-7.0,-20.0,2.0,20.0,28.0,25.0,0.0
19.0,18.0,20.0,-9.0,-8.0,-57.0,-14.0,25.0,56.0,29.0,0.0
20.0,9.0,7.0,-7.0,1.0,-64.0,-16.0,23.0,62.0,19.0,0.0
-7.0,2.0,-11.0,16.0,28.0,-53.0,-21.0,13.0,33.0,0.0,0.0
-7.0,-2.0,-60.0,24.0,44.0,-22.0,-5.0,-1.0,35.0,-11.0,0.0
0.0,-6.0,-51.0,9.0,45.0,-1.0,6.0,-6.0,44.0,-16.0,0.0
-10.0,-29.0,-48.0,-7.0,43.0,28.0,37.0,-1.0,26.0,-17.0,0.0
3.0,-29.0,-58.0,-10.0,49.0,33.0,72.0,-3.0,6.0,-9.0,0.0
27.0,-3.0,-23.0,-9.0,66.0,17.0,48.0,-19.0,-15.0,0.0,0.0
54.0,30.0,12.0,-9.0,50.0,-1.0,25.0,-21.0,-4.0,9.0,0.0
43.0,13.0,-40.0,-12.0,43.0,12.0,-3.0,-29.0,-8.0,19.0,0.0
36.0,-10.0,-76.0,-20.0,35.0,19.0,-1.0,-31.0,-11.0,18.0,0.0
33.0,-14.0,27.0,-26.0,10.0,33.0,15.0,-16.0,-5.0,10.0,0.0
25.0,-6.0,60.0,-29.0,1.0,42.0,27.0,2.0,-12.0,11.0,0.0
21.0,-6.0,52.0,-28.0,-16.0,33.0,20.0,20.0,-23.0,9.0,0.0
30.0,-7.0,44.0,-32.0,-41.0,7.0,7.0,23.0,-37.0,4.0,0.0
45.0,14.0,59.0,-33.0,-48.0,-40.0,-14.0,14.0,-20.0,23.0,0.0
56.0,15.0,46.0,-29.0,-51.0,-87.0,6.0,20.0,-12.0,44.0,0.0
64.0,37.0,25.0,-16.0,-41.0,-80.0,21.0,32.0,-11.0,54.0,0.0
53.0,29.0,42.0,-15.0,-34.0,-58.0,13.0,23.0,-20.0,43.0,0.0
50.0,22.0,38.0,-9.0,-25.0,-61.0,-10.0,21.0,-8.0,29.0,0.0
46.0,25.0,19.0,12.0,-32.0,-57.0,-3.0,26.0,6.0,32.0,0.0
37.0,4.0,19.0,18.0,-38.0,-33.0,2.0,24.0,8.0,23.0,0.0
27.0,-3.0,30.0,16.0,-22.0,-14.0,-7.0,25.0,13.0,14.0,0.0
23.0,-19.0,34.0,9.0,-2.0,-5.0,-15.0,16.0,24.0,13.0,0.0
26.0,-2.0,37.0,0.0,12.0,14.0,-14.0,10.0,39.0,12.0,0.0
19.0,4.0,32.0,15.0,23.0,41.0,-26.0,7.0,37.0,4.0,0.0
2.0,4.0,2.0,33.0,31.0,77.0,-47.0,-18.0,3.0,5.0,0.0
0.0,28.0,14.0,22.0,33.0,68.0,-67.0,-43.0,-12.0,1.0,0.0
2.0,8.0,34.0,1.0,35.0,65.0,-33.0,-34.0,-7.0,-11.0,0.0
-18.0,-16.0,16.0,-23.0,23.0,64.0,-4.0,8.0,-34.0,-14.0,0.0
-26.0,-29.0,0.0,-50.0,0.0,30.0,-11.0,20.0,-55.0,10.0,0.0
-14.0,-13.0,-3.0,-46.0,-22.0,16.0,1.0,37.0,-27.0,1.0,0.0
7.0,0.0,-12.0,-9.0,-32.0,-13.0,9.0,50.0,-8.0,7.0,0.0
17.0,17.0,-85.0,11.0,-42.0,-59.0,3.0,52.0,-12.0,15.0,0.0
14.0,19.0,-141.0,0.0,-41.0,-68.0,-5.0,50.0,-18.0,8.0,0.0
8.0,4.0,-136.0,-5.0,-31.0,-44.0,-15.0,38.0,-22.0,-1.0,0.0
2.0,4.0,-43.0,3.0,-26.0,-23.0,-21.0,31.0,-4.0,1.0,0.0
-9.0,-8.0,23.0,1.0,-21.0,-4.0,-16.0,40.0,0.0,3.0,0.0
-3.0,5.0,14.0,8.0,-14.0,0.0,-4.0,24.0,-21.0,-7.0,0.0
7.0,10.0,12.0,22.0,-3.0,3.0,0.0,9.0,-27.0,-13.0,0.0
11.0,10.0,-56.0,22.0,-10.0,2.0,-10.0,14.0,-5.0,0.0,0.0
-4.0,22.0,4.0,24.0,-21.0,-9.0,-18.0,24.0,27.0,7.0,0.0
-8.0,4.0,38.0,27.0,0.0,14.0,-6.0,16.0,39.0,-12.0,0.0
-6.0,10.0,38.0,28.0,17.0,53.0,1.0,17.0,29.0,-19.0,0.0
-18.0,14.0,45.0,26.0,22.0,71.0,22.0,15.0,0.0,-14.0,0.0
-19.0,-9.0,49.0,21.0,20.0,50.0,19.0,15.0,-19.0,-21.0,0.0
-19.0,-4.0,35.0,25.0,26.0,52.0,16.0,8.0,-3.0,-15.0,0.0
-26.0,-9.0,34.0,32.0,20.0,37.0,-11.0,9.0,16.0,-15.0,0.0
-23.0,16.0,35.0,35.0,9.0,2.0,-24.0,6.0,30.0,-1.0,0.0
-5.0,8.0,28.0,26.0,0.0,-52.0,-20.0,2.0,38.0,3.0,0.0
9.0,-5.0,5.0,13.0,3.0,-91.0,-42.0,-7.0,38.0,-4.0,0.0
-3.0,-4.0,11.0,9.0,10.0,-75.0,-54.0,-23.0,14.0,-15.0,0.0
-2.0,-21.0,16.0,7.0,10.0,-47.0,-45.0,-23.0,15.0,-20.0,0.0
1.0,-16.0,7.0,-4.0,-8.0,-32.0,-38.0,-3.0,47.0,-12.0,0.0
7.0,-10.0,15.0,-7.0,-12.0,-7.0,-31.0,6.0,49.0,8.0,0.0
26.0,19.0,41.0,8.0,-14.0,-17.0,-19.0,-16.0,38.0,0.0,0.0
9.0,4.0,-5.0,4.0,-4.0,-7.0,1.0,-8.0,21.0,-6.0,0.0
-18.0,-18.0,-124.0,-5.0,10.0,30.0,32.0,-2.0,0.0,-13.0,0.0
-20.0,-14.0,-83.0,9.0,28.0,57.0,16.0,-27.0,-32.0,-36.0,0.0
-24.0,5.0,32.0,30.0,49.0,81.0,-31.0,-45.0,-63.0,-58.0,0.0
-16.0,10.0,42.0,36.0,47.0,90.0,-38.0,-57.0,-77.0,-52.0,0.0
-11.0,-14.0,36.0,9.0,22.0,74.0,-30.0,-52.0,-54.0,-10.0,0.0
-3.0,-4.0,25.0,-12.0,6.0,52.0,-4.0,-17.0,-23.0,23.0,0.0
4.0,-4.0,11.0,-9.0,9.0,30.0,0.0,-6.0,0.0,-11.0,0.0
11.0,12.0,25.0,3.0,13.0,5.0,-26.0,-11.0,-3.0,-5.0,0.0
10.0,9.0,18.0,5.0,-5.0,-19.0,-27.0,-7.0,-6.0,10.0,0.0
0.0,10.0,7.0,0.0,-10.0,-30.0,8.0,6.0,8.0,14.0,0.0
-6.0,6.0,-18.0,-10.0,-4.0,-23.0,43.0,36.0,19.0,2.0,0.0
-28.0,-10.0,-20.0,-16.0,6.0,-6.0,58.0,43.0,16.0,-7.0,0.0
-46.0,-5.0,-10.0,3.0,49.0,16.0,50.0,14.0,3.0,-22.0,0.0
-38.0,-8.0,10.0,11.0,53.0,2.0,16.0,-13.0,-6.0,-22.0,0.0
-28.0,2.0,-30.0,8.0,19.0,-24.0,-3.0,-10.0,-8.0,-11.0,0.0
-31.0,-17.0,-55.0,-15.0,-1.0,-49.0,-15.0,-6.0,19.0,-2.0,0.0
-24.0,-21.0,-48.0,-9.0,-14.0,-65.0,-28.0,-15.0,38.0,5.0,0.0
-15.0,0.0,-42.0,0.0,-16.0,-69.0,-34.0,-12.0,39.0,10.0,0.0
-7.0,11.0,28.0,-4.0,-31.0,-61.0,-37.0,-1.0,34.0,19.0,0.0
-8.0,8.0,31.0,4.0,-2.0,-11.0,-34.0,-22.0,7.0,17.0,0.0
-17.0,-13.0,15.0,-3.0,38.0,41.0,-23.0,-32.0,-13.0,2.0,0.0
-38.0,0.0,5.0,-4.0,34.0,35.0,-27.0,-32.0,-13.0,0.0,0.0
-42.0,-4.0,2.0,5.0,13.0,20.0,-3.0,-1.0,-7.0,0.0,0.0
-25.0,13.0,-22.0,5.0,23.0,5.0,-3.0,6.0,-1.0,4.0,0.0
-7.0,25.0,13.0,14.0,20.0,-22.0,4.0,-2.0,-7.0,4.0,0.0
-14.0,18.0,14.0,8.0,-1.0,-27.0,34.0,7.0,-23.0,5.0,0.0
-10.0,13.0,-9.0,-23.0,-38.0,-66.0,15.0,9.0,-38.0,4.0,0.0
9.0,24.0,2.0,-18.0,-48.0,-102.0,-26.0,-10.0,-52.0,22.0,0.0
20.0,43.0,12.0,-2.0,-41.0,-76.0,-40.0,-15.0,-43.0,27.0,0.0
4.0,42.0,2.0,-7.0,-29.0,-51.0,-29.0,-5.0,-38.0,7.0,0.0
-10.0,-4.0,-17.0,-41.0,-27.0,-13.0,0.0,12.0,-31.0,-3.0,0.0
-9.0,-11.0,-17.0,-42.0,-41.0,0.0,19.0,10.0,-27.0,-8.0,0.0
-13.0,7.0,-21.0,-14.0,-31.0,-1.0,23.0,-8.0,-51.0,-10.0,0.0
-21.0,-4.0,-16.0,0.0,-22.0,0.0,12.0,-1.0,-42.0,-21.0,0.0
-22.0,1.0,-14.0,8.0,-25.0,-3.0,-2.0,2.0,-36.0,-19.0,0.0
-43.0,-14.0,-10.0,4.0,-7.0,29.0,6.0,8.0,2.0,-22.0,0.0
-51.0,-18.0,-36.0,0.0,36.0,73.0,25.0,-6.0,24.0,-30.0,0.0
-55.0,-15.0,-100.0,-1.0,47.0,97.0,31.0,-25.0,5.0,-50.0,0.0
-46.0,-10.0,-72.0,8.0,60.0,114.0,54.0,-27.0,10.0,-38.0,0.0
-37.0,1.0,5.0,19.0,46.0,75.0,37.0,-13.0,31.0,-24.0,0.0
-31.0,5.0,-22.0,21.0,24.0,23.0,22.0,-17.0,30.0,-13.0,0.0
-5.0,31.0,-39.0,15.0,-2.0,-16.0,24.0,-11.0,41.0,5.0,0.0
12.0,29.0,5.0,-9.0,-38.0,-43.0,-3.0,8.0,64.0,19.0,0.0
25.0,14.0,-1.0,-11.0,-31.0,-43.0,-26.0,6.0,47.0,32.0,0.0
24.0,12.0,-15.0,-8.0,5.0,-32.0,-24.0,15.0,19.0,19.0,0.0
15.0,0.0,-23.0,-19.0,7.0,-41.0,-28.0,15.0,16.0,7.0,0.0
23.0,13.0,2.0,-31.0,-8.0,-42.0,-35.0,18.0,13.0,1.0,0.0
18.0,26.0,-19.0,-11.0,1.0,-11.0,-17.0,20.0,19.0,-4.0,0.0
18.0,12.0,-111.0,-3.0,17.0,7.0,2.0,2.0,16.0,-4.0,0.0
20.0,-5.0,-83.0,3.0,5.0,7.0,2.0,-2.0,8.0,0.0,0.0
23.0,8.0,-45.0,8.0,-25.0,15.0,-5.0,13.0,3.0,0.0,0.0
22.0,-8.0,-10.0,12.0,-29.0,27.0,-25.0,1.0,-6.0,-12.0,0.0
4.0,-36.0,14.0,9.0,29.0,43.0,-57.0,-27.0,-48.0,-30.0,0.0
-9.0,-43.0,2.0,10.0,82.0,59.0,-75.0,-60.0,-83.0,-46.0,0.0
-14.0,-18.0,-68.0,25.0,81.0,73.0,-55.0,-67.0,-87.0,-34.0,0.0
-2.0,-15.0,-36.0,54.0,69.0,74.0,-40.0,-55.0,-80.0,-17.0,0.0
21.0,9.0,54.0,38.0,19.0,27.0,-15.0,-24.0,-54.0,6.0,0.0
47.0,19.0,47.0,-19.0,-51.0,-14.0,40.0,24.0,2.0,32.0,0.0
47.0,2.0,17.0,-61.0,-105.0,-29.0,103.0,53.0,23.0,37.0,0.0
44.0,25.0,21.0,-51.0,-105.0,-69.0,77.0,32.0,29.0,41.0,0.0
31.0,47.0,12.0,-32.0,-57.0,-94.0,28.0,6.0,50.0,38.0,0.0
17.0,23.0,19.0,-28.0,-34.0,-76.0,-11.0,-3.0,41.0,33.0,0.0
1.0,7.0,29.0,-12.0,-10.0,-64.0,-40.0,-22.0,26.0,20.0,0.0
-10.0,14.0,-9.0,-13.0,-10.0,-67.0,-33.0,-25.0,25.0,13.0,0.0
-7.0,9.0,-11.0,4.0,-21.0,-58.0,-19.0,-12.0,32.0,22.0,0.0
1.0,6.0,23.0,22.0,-21.0,-39.0,11.0,0.0,55.0,12.0,0.0
-9.0,8.0,8.0,20.0,-12.0,-14.0,27.0,4.0,57.0,8.0,0.0
-19.0,-4.0,34.0,11.0,0.0,-7.0,29.0,11.0,54.0,14.0,0.0
-25.0,-5.0,20.0,9.0,16.0,4.0,44.0,-3.0,37.0,12.0,0.0
-35.0,1.0,25.0,7.0,39.0,44.0,27.0,-17.0,19.0,0.0,0.0
-39.0,-4.0,30.0,6.0,61.0,59.0,12.0,-36.0,-7.0,-23.0,0.0
-44.0,-6.0,14.0,2.0,72.0,76.0,-1.0,-41.0,-15.0,-20.0,0.0
-31.0,-15.0,18.0,4.0,69.0,77.0,-9.0,-22.0,-10.0,-9.0,0.0
-24.0,-24.0,26.0,5.0,76.0,63.0,-22.0,-32.0,-11.0,-15.0,0.0
-6.0,-10.0,31.0,13.0,68.0,35.0,-27.0,-45.0,-8.0,-7.0,0.0
11.0,-9.0,29.0,2.0,27.0,-22.0,-28.0,-41.0,-13.0,3.0,0.0
23.0,8.0,8.0,-12.0,-33.0,-67.0,-38.0,-11.0,-13.0,33.0,0.0
27.0,2.0,16.0,-11.0,-34.0,-74.0,-2.0,-19.0,-9.0,27.0,0.0
14.0,-1.0,15.0,-18.0,-17.0,-82.0,12.0,-29.0,-7.0,15.0,0.0
8.0,-8.0,15.0,-23.0,-17.0,-57.0,21.0,-24.0,-17.0,16.0,0.0
0.0,-24.0,15.0,-8.0,-9.0,-32.0,40.0,-21.0,-36.0,8.0,0.0
-8.0,-8.0,17.0,7.0,-19.0,-28.0,55.0,-11.0,-26.0,1.0,0.0
-13.0,-10.0,6.0,-17.0,-34.0,-5.0,74.0,19.0,2.0,-1.0,0.0
-6.0,0.0,-2.0,-37.0,-48.0,2.0,62.0,20.0,-9.0,1.0,0.0
-10.0,-5.0,3.0,-17.0,-30.0,9.0,-2.0,-2.0,-37.0,-4.0,0.0
-18.0,-9.0,0.0,-6.0,21.0,39.0,-20.0,-13.0,-43.0,-19.0,0.0
-20.0,-15.0,3.0,0.0,80.0,75.0,-1.0,-16.0,-25.0,-22.0,0.0
-21.0,-9.0,12.0,3.0,77.0,98.0,7.0,-6.0,-14.0,-18.0,0.0
-8.0,2.0,23.0,9.0,46.0,84.0,0.0,3.0,-21.0,-11.0,0.0
-5.0,-9.0,20.0,9.0,34.0,58.0,-13.0,11.0,-23.0,-14.0,0.0
-14.0,-15.0,11.0,-8.0,14.0,37.0,-1.0,20.0,10.0,0.0,0.0
-8.0,-10.0,-6.0,-18.0,-16.0,7.0,19.0,26.0,38.0,20.0,0.0
12.0,5.0,10.0,-10.0,-29.0,-22.0,19.0,13.0,53.0,26.0,0.0
27.0,6.0,10.0,13.0,-18.0,-35.0,10.0,-5.0,58.0,13.0,0.0
44.0,8.0,7.0,26.0,-24.0,-36.0,3.0,-6.0,43.0,9.0,0.0
57.0,22.0,7.0,22.0,-45.0,-52.0,-9.0,1.0,49.0,25.0,0.0
67.0,24.0,13.0,15.0,-51.0,-60.0,-4.0,1.0,53.0,27.0,0.0
60.0,16.0,15.0,20.0,-38.0,-45.0,-11.0,-11.0,17.0,13.0,0.0
71.0,20.0,13.0,20.0,-11.0,-33.0,-58.0,-25.0,14.0,15.0,0.0
66.0,20.0,19.0,24.0,11.0,-21.0,-89.0,-33.0,13.0,12.0,0.0
32.0,0.0,-11.0,22.0,37.0,-2.0,-103.0,-42.0,2.0,2.0,0.0
29.0,2.0,-75.0,27.0,49.0,28.0,-99.0,-38.0,-22.0,-18.0,0.0
20.0,5.0,-4.0,31.0,57.0,56.0,-105.0,-36.0,-35.0,-24.0,0.0
7.0,-4.0,30.0,33.0,52.0,64.0,-73.0,-48.0,-38.0,-30.0,0.0
-21.0,-15.0,7.0,13.0,13.0,117.0,82.0,-18.0,-73.0,-45.0,0.0
-51.0,-37.0,-20.0,-22.0,-16.0,96.0,170.0,20.0,-52.0,-35.0,0.0
-53.0,-19.0,-31.0,-33.0,-13.0,30.0,106.0,0.0,-42.0,-10.0,0.0
-42.0,-17.0,-25.0,-16.0,9.0,20.0,52.0,-10.0,-59.0,5.0,0.0
-23.0,-1.0,-7.0,-10.0,-9.0,0.0,31.0,15.0,-40.0,15.0,0.0
-15.0,-4.0,4.0,-3.0,-2.0,-22.0,22.0,18.0,-26.0,27.0,0.0
-20.0,0.0,2.0,10.0,33.0,0.0,12.0,-4.0,-53.0,21.0,0.0
-27.0,-2.0,-6.0,23.0,35.0,15.0,0.0,-10.0,-55.0,13.0,0.0
-18.0,-9.0,-11.0,5.0,0.0,-26.0,-6.0,0.0,-36.0,17.0,0.0
-20.0,-7.0,-27.0,-33.0,-50.0,-55.0,14.0,20.0,-10.0,24.0,0.0
-21.0,-28.0,-21.0,-10.0,-50.0,-68.0,9.0,16.0,-25.0,18.0,0.0
-18.0,-26.0,-28.0,-17.0,-53.0,-82.0,6.0,28.0,-31.0,21.0,0.0
-13.0,-29.0,-36.0,-15.0,-34.0,-41.0,-2.0,24.0,2.0,19.0,0.0
-26.0,-18.0,-40.0,-10.0,-12.0,-4.0,-2.0,27.0,22.0,20.0,0.0
-9.0,-12.0,-31.0,2.0,-1.0,15.0,-22.0,21.0,33.0,31.0,0.0
0.0,11.0,-7.0,22.0,10.0,22.0,-49.0,1.0,22.0,9.0,0.0
-7.0,-9.0,-31.0,18.0,18.0,24.0,-40.0,14.0,40.0,3.0,0.0
-6.0,5.0,-70.0,17.0,12.0,30.0,-32.0,5.0,44.0,0.0,0.0
4.0,-6.0,-55.0,26.0,-5.0,30.0,5.0,21.0,51.0,-17.0,0.0
-7.0,-3.0,-9.0,-3.0,-33.0,0.0,28.0,37.0,67.0,-8.0,0.0
1.0,-8.0,-4.0,-19.0,-37.0,-13.0,55.0,48.0,54.0,6.0,0.0
8.0,-3.0,-18.0,-17.0,-31.0,-12.0,101.0,44.0,43.0,11.0,0.0
13.0,14.0,2.0,-6.0,-38.0,-34.0,77.0,20.0,50.0,23.0,0.0
39.0,18.0,-26.0,0.0,-39.0,-54.0,29.0,-1.0,21.0,22.0,0.0
45.0,22.0,-67.0,-1.0,-35.0,-66.0,-10.0,11.0,9.0,19.0,0.0
33.0,22.0,-73.0,0.0,-26.0,-56.0,-29.0,17.0,3.0,21.0,0.0
22.0,8.0,-28.0,0.0,-11.0,-29.0,-35.0,16.0,-6.0,20.0,0.0
13.0,2.0,36.0,9.0,9.0,9.0,-17.0,18.0,-7.0,5.0,0.0
9.0,-11.0,15.0,13.0,39.0,46.0,24.0,11.0,-3.0,-9.0,0.0
-1.0,-12.0,16.0,19.0,62.0,49.0,29.0,7.0,-24.0,-26.0,0.0
-19.0,-25.0,-1.0,17.0,63.0,44.0,7.0,9.0,-27.0,-16.0,0.0
-33.0,-21.0,-3.0,10.0,56.0,61.0,-19.0,-12.0,-32.0,-22.0,0.0
-24.0,-23.0,40.0,16.0,41.0,97.0,-30.0,-33.0,-48.0,-37.0,0.0
-25.0,-18.0,37.0,-3.0,19.0,78.0,-45.0,-38.0,-69.0,-44.0,0.0
-26.0,-21.0,31.0,-10.0,5.0,23.0,-40.0,-37.0,-54.0,-27.0,0.0
-30.0,-8.0,-31.0,-23.0,-17.0,12.0,-13.0,-12.0,-38.0,-6.0,0.0
-25.0,-8.0,-3.0,-19.0,-25.0,-7.0,3.0,8.0,-5.0,7.0,0.0
-19.0,18.0,38.0,5.0,-15.0,-50.0,-16.0,-2.0,6.0,20.0,0.0
-7.0,26.0,58.0,39.0,0.0,-82.0,-28.0,-16.0,18.0,5.0,0.0
-31.0,12.0,36.0,36.0,10.0,-76.0,-21.0,-26.0,14.0,-11.0,0.0
-41.0,4.0,-20.0,21.0,18.0,-31.0,-11.0,-42.0,19.0,-37.0,0.0
-33.0,-9.0,-27.0,12.0,20.0,-1.0,-3.0,-41.0,29.0,-52.0,0.0
-17.0,11.0,-26.0,-3.0,4.0,28.0,30.0,-17.0,47.0,-28.0,0.0
7.0,29.0,-115.0,-20.0,-61.0,24.0,70.0,15.0,64.0,6.0,0.0
3.0,29.0,-130.0,-29.0,-81.0,-10.0,89.0,33.0,63.0,23.0,0.0
-6.0,36.0,-50.0,-24.0,-52.0,-9.0,106.0,38.0,50.0,16.0,0.0
0.0,29.0,41.0,-21.0,-28.0,18.0,87.0,34.0,53.0,20.0,0.0
-6.0,14.0,45.0,-16.0,0.0,49.0,70.0,18.0,31.0,5.0,0.0
-31.0,16.0,8.0,-1.0,34.0,91.0,56.0,8.0,4.0,-1.0,0.0
-39.0,-6.0,-85.0,2.0,57.0,100.0,58.0,-3.0,-5.0,3.0,0.0
-30.0,0.0,-45.0,2.0,51.0,52.0,30.0,-12.0,-16.0,22.0,0.0
-12.0,21.0,50.0,-3.0,22.0,-15.0,-20.0,-10.0,-25.0,24.0,0.0
-12.0,-1.0,58.0,-10.0,-3.0,-37.0,-41.0,-8.0,-38.0,18.0,0.0
-12.0,-4.0,46.0,-30.0,-8.0,-50.0,-55.0,0.0,-22.0,16.0,0.0
2.0,7.0,54.0,-22.0,-14.0,-80.0,-38.0,33.0,-8.0,39.0,0.0
22.0,13.0,56.0,-8.0,-29.0,-108.0,-4.0,45.0,6.0,47.0,0.0
14.0,25.0,38.0,-10.0,-17.0,-99.0,-1.0,33.0,-3.0,44.0,0.0
8.0,16.0,18.0,-19.0,-12.0,-101.0,1.0,12.0,-10.0,28.0,0.0
11.0,0.0,17.0,-14.0,-5.0,-77.0,16.0,23.0,1.0,7.0,0.0
0.0,-3.0,24.0,-7.0,-6.0,-57.0,8.0,27.0,2.0,9.0,0.0
0.0,-9.0,28.0,-18.0,-7.0,-48.0,6.0,21.0,4.0,3.0,0.0
-12.0,-2.0,24.0,-10.0,-16.0,-25.0,32.0,24.0,17.0,14.0,0.0
-15.0,-1.0,-36.0,-10.0,-19.0,8.0,52.0,24.0,23.0,8.0,0.0
-17.0,-12.0,-53.0,-5.0,-1.0,38.0,46.0,21.0,38.0,5.0,0.0
-29.0,-12.0,-3.0,0.0,18.0,57.0,34.0,15.0,44.0,-6.0,0.0
-31.0,-19.0,8.0,9.0,38.0,78.0,17.0,5.0,42.0,-30.0,0.0
-31.0,-7.0,4.0,12.0,40.0,103.0,8.0,4.0,36.0,-34.0,0.0
-19.0,-11.0,2.0,8.0,28.0,109.0,31.0,21.0,24.0,-15.0,0.0
-15.0,2.0,15.0,10.0,37.0,67.0,32.0,12.0,10.0,-1.0,0.0
-9.0,-5.0,12.0,11.0,25.0,25.0,-6.0,3.0,15.0,4.0,0.0
9.0,0.0,10.0,14.0,15.0,-5.0,-53.0,-1.0,12.0,13.0,0.0
35.0,23.0,38.0,28.0,0.0,-33.0,-93.0,-26.0,4.0,6.0,0.0
61.0,19.0,57.0,34.0,-5.0,-43.0,-76.0,-42.0,4.0,1.0,0.0
58.0,14.0,54.0,17.0,-14.0,-46.0,-39.0,-34.0,12.0,5.0,0.0
46.0,20.0,38.0,5.0,-38.0,-61.0,-36.0,-6.0,4.0,14.0,0.0
30.0,0.0,19.0,8.0,-29.0,-78.0,-48.0,-6.0,-18.0,15.0,0.0
25.0,-3.0,17.0,9.0,-4.0,-71.0,-8.0,-13.0,-23.0,11.0,0.0
-2.0,-19.0,12.0,-10.0,12.0,-52.0,23.0,-18.0,-39.0,-15.0,0.0
-14.0,-29.0,10.0,0.0,21.0,-25.0,21.0,-25.0,-36.0,-29.0,0.0
-6.0,-22.0,5.0,17.0,32.0,0.0,5.0,-24.0,-48.0,-24.0,0.0
0.0,-14.0,25.0,30.0,34.0,0.0,-15.0,-29.0,-42.0,-28.0,0.0
-22.0,0.0,35.0,42.0,41.0,41.0,-21.0,-28.0,-28.0,-31.0,0.0
-40.0,-23.0,32.0,24.0,37.0,75.0,-15.0,-26.0,-27.0,-44.0,0.0
-28.0,-13.0,15.0,0.0,-4.0,45.0,-27.0,-16.0,-14.0,-36.0,0.0
-24.0,-16.0,5.0,-1.0,-29.0,13.0,-55.0,4.0,8.0,-11.0,0.0
-18.0,-8.0,21.0,-4.0,-25.0,14.0,-55.0,17.0,38.0,6.0,0.0
-12.0,-13.0,26.0,1.0,-27.0,10.0,-25.0,31.0,42.0,3.0,0.0
20.0,4.0,24.0,-2.0,-41.0,-13.0,-7.0,36.0,52.0,7.0,0.0
34.0,0.0,22.0,6.0,-35.0,-24.0,12.0,32.0,53.0,11.0,0.0
45.0,3.0,-2.0,12.0,-33.0,-24.0,36.0,22.0,57.0,8.0,0.0
58.0,19.0,-60.0,11.0,-32.0,-51.0,11.0,5.0,47.0,1.0,0.0
43.0,-5.0,-2.0,13.0,-37.0,-61.0,10.0,10.0,37.0,-7.0,0.0
7.0,-7.0,-47.0,-5.0,-47.0,-44.0,37.0,13.0,28.0,-31.0,0.0
-4.0,-21.0,-16.0,-19.0,-34.0,-39.0,43.0,24.0,18.0,-41.0,0.0
-4.0,-17.0,20.0,-12.0,-5.0,-34.0,35.0,19.0,2.0,-29.0,0.0
-7.0,-8.0,21.0,1.0,16.0,-23.0,29.0,-10.0,-15.0,-16.0,0.0
-12.0,-5.0,41.0,12.0,42.0,3.0,19.0,-23.0,-46.0,-22.0,0.0
-11.0,8.0,54.0,16.0,45.0,35.0,9.0,-33.0,-38.0,-23.0,0.0
-11.0,14.0,53.0,21.0,49.0,22.0,-17.0,-38.0,-18.0,-20.0,0.0
-15.0,14.0,46.0,20.0,42.0,-1.0,-21.0,-20.0,-28.0,-19.0,0.0
-27.0,-11.0,27.0,-1.0,71.0,22.0,-9.0,-13.0,-47.0,-26.0,0.0
-34.0,-24.0,-12.0,-23.0,81.0,58.0,11.0,-10.0,-52.0,-31.0,0.0
-33.0,-40.0,-59.0,-31.0,83.0,90.0,40.0,-9.0,-50.0,-41.0,0.0
-12.0,-42.0,6.0,-31.0,59.0,55.0,32.0,2.0,-25.0,-40.0,0.0
12.0,-10.0,47.0,-18.0,19.0,-18.0,-32.0,-11.0,-5.0,-22.0,0.0
16.0,0.0,39.0,-19.0,1.0,-31.0,-52.0,-21.0,-2.0,-11.0,0.0
9.0,-11.0,17.0,-27.0,-16.0,-26.0,-42.0,-8.0,-3.0,-1.0,0.0
46.0,14.0,14.0,-33.0,-88.0,-76.0,-63.0,-11.0,-4.0,9.0,0.0
67.0,15.0,-12.0,-26.0,-108.0,-86.0,-63.0,-1.0,0.0,28.0,0.0
55.0,29.0,-3.0,-14.0,-74.0,-59.0,-20.0,15.0,8.0,24.0,0.0
58.0,39.0,40.0,-14.0,-51.0,-54.0,-21.0,19.0,33.0,12.0,0.0
41.0,16.0,44.0,-20.0,-46.0,-67.0,-33.0,22.0,36.0,7.0,0.0
37.0,26.0,43.0,-13.0,-27.0,-39.0,-16.0,1.0,49.0,-4.0,0.0
25.0,17.0,19.0,-12.0,-4.0,35.0,27.0,-10.0,54.0,-24.0,0.0
4.0,-6.0,-6.0,-7.0,9.0,75.0,39.0,-18.0,38.0,-43.0,0.0
-4.0,-1.0,-92.0,-2.0,10.0,92.0,40.0,-41.0,27.0,-36.0,0.0
0.0,-3.0,-41.0,1.0,6.0,90.0,31.0,-31.0,37.0,-21.0,0.0
2.0,9.0,13.0,-16.0,-8.0,65.0,26.0,-9.0,55.0,-1.0,0.0
4.0,2.0,7.0,-22.0,-5.0,56.0,40.0,-8.0,38.0,6.0,0.0
10.0,10.0,12.0,-6.0,-4.0,44.0,19.0,-14.0,26.0,1.0,0.0
6.0,15.0,19.0,-4.0,-3.0,7.0,-13.0,0.0,11.0,3.0,0.0
17.0,1.0,14.0,-29.0,-20.0,-19.0,-2.0,16.0,18.0,12.0,0.0
24.0,11.0,13.0,-30.0,-26.0,-12.0,14.0,9.0,34.0,26.0,0.0
11.0,4.0,14.0,0.0,-9.0,-15.0,-23.0,-6.0,18.0,34.0,0.0
0.0,8.0,17.0,16.0,7.0,-35.0,-58.0,-22.0,3.0,26.0,0.0
-21.0,14.0,29.0,37.0,31.0,-21.0,-55.0,-36.0,-17.0,0.0,0.0
-36.0,-16.0,22.0,24.0,14.0,-8.0,-34.0,-15.0,-22.0,-10.0,0.0
-30.0,-14.0,-3.0,-7.0,-22.0,-16.0,-14.0,19.0,-19.0,25.0,0.0
-26.0,-24.0,-7.0,-6.0,7.0,17.0,-10.0,10.0,-33.0,14.0,0.0
-25.0,-8.0,-1.0,-1.0,52.0,48.0,-7.0,-14.0,-41.0,-20.0,0.0
-6.0,-6.0,-48.0,-5.0,52.0,68.0,-29.0,-31.0,-48.0,-15.0,0.0
18.0,-2.0,-68.0,-3.0,23.0,73.0,-57.0,-29.0,-38.0,-2.0,0.0
13.0,-4.0,-10.0,-4.0,22.0,77.0,-39.0,-9.0,-39.0,-5.0,0.0
14.0,5.0,2.0,4.0,26.0,72.0,-19.0,-4.0,-25.0,-9.0,0.0
11.0,31.0,1.0,7.0,13.0,47.0,4.0,12.0,11.0,-2.0,0.0
1.0,4.0,-7.0,-3.0,1.0,30.0,29.0,35.0,34.0,-10.0,0.0
0.0,-2.0,-19.0,-1.0,14.0,1.0,14.0,39.0,41.0,-11.0,0.0
4.0,10.0,-10.0,6.0,26.0,-6.0,5.0,35.0,63.0,8.0,0.0
6.0,2.0,-64.0,7.0,19.0,-31.0,7.0,32.0,67.0,20.0,0.0
2.0,15.0,-116.0,20.0,31.0,-45.0,33.0,25.0,21.0,0.0,0.0
-25.0,-14.0,-46.0,24.0,60.0,4.0,116.0,-4.0,-41.0,-31.0,0.0
-37.0,-15.0,-27.0,20.0,50.0,-8.0,44.0,-53.0,-76.0,-52.0,0.0
-19.0,-7.0,-20.0,18.0,7.0,-68.0,-45.0,-70.0,-83.0,-38.0,0.0
3.0,12.0,18.0,26.0,-33.0,-85.0,-45.0,-51.0,-51.0,-18.0,0.0
-2.0,14.0,1.0,-5.0,-49.0,-10.0,24.0,0.0,-30.0,-8.0,0.0
6.0,0.0,-11.0,-28.0,-51.0,28.0,43.0,29.0,2.0,7.0,0.0
20.0,18.0,-4.0,-21.0,-58.0,-1.0,9.0,28.0,-1.0,10.0,0.0
13.0,20.0,10.0,-23.0,-39.0,5.0,5.0,15.0,-10.0,10.0,0.0
-11.0,8.0,-19.0,-11.0,-16.0,47.0,26.0,-1.0,-26.0,-7.0,0.0
-21.0,9.0,-66.0,-2.0,4.0,88.0,41.0,-7.0,-36.0,-31.0,0.0
-13.0,8.0,-50.0,2.0,18.0,105.0,26.0,-10.0,-42.0,-32.0,0.0
-3.0,2.0,-24.0,1.0,27.0,83.0,-2.0,-12.0,-43.0,-12.0,0.0
1.0,12.0,-20.0,7.0,13.0,47.0,-4.0,-6.0,-31.0,13.0,0.0
17.0,19.0,-91.0,25.0,-24.0,-30.0,-20.0,-7.0,-21.0,31.0,0.0
29.0,29.0,-133.0,22.0,-47.0,-85.0,-33.0,-3.0,-9.0,41.0,0.0
29.0,37.0,-123.0,8.0,-49.0,-82.0,-36.0,6.0,26.0,42.0,0.0
26.0,29.0,-113.0,-1.0,-36.0,-71.0,-7.0,12.0,42.0,41.0,0.0
19.0,15.0,-85.0,5.0,-24.0,-61.0,14.0,7.0,43.0,27.0,0.0
14.0,16.0,24.0,1.0,-20.0,-41.0,61.0,8.0,45.0,16.0,0.0
12.0,33.0,57.0,4.0,-16.0,-24.0,57.0,2.0,57.0,20.0,0.0
2.0,20.0,56.0,10.0,-6.0,-14.0,31.0,0.0,54.0,18.0,0.0
-5.0,3.0,66.0,21.0,3.0,0.0,18.0,-9.0,43.0,10.0,0.0
-3.0,12.0,71.0,13.0,-3.0,-7.0,8.0,-12.0,6.0,-3.0,0.0
0.0,7.0,61.0,6.0,-9.0,3.0,10.0,-5.0,-19.0,-7.0,0.0
3.0,-13.0,51.0,12.0,7.0,44.0,22.0,-15.0,-20.0,-12.0,0.0
-2.0,-18.0,39.0,17.0,33.0,76.0,22.0,-16.0,-25.0,-22.0,0.0
-7.0,-17.0,35.0,21.0,39.0,79.0,24.0,-26.0,-25.0,-24.0,0.0
-7.0,-17.0,7.0,17.0,45.0,75.0,11.0,-36.0,-35.0,-22.0,0.0
-9.0,-6.0,-13.0,15.0,24.0,64.0,12.0,-24.0,-31.0,-15.0,0.0
-8.0,-10.0,39.0,11.0,-12.0,19.0,4.0,0.0,-28.0,-8.0,0.0
14.0,1.0,45.0,14.0,-20.0,-21.0,-24.0,12.0,-20.0,-6.0,0.0
14.0,-3.0,-3.0,10.0,1.0,-32.0,-28.0,6.0,-28.0,2.0,0.0
26.0,3.0,-48.0,2.0,4.0,-56.0,-33.0,9.0,-24.0,5.0,0.0
41.0,26.0,39.0,1.0,-19.0,-79.0,-34.0,16.0,-14.0,11.0,0.0
39.0,22.0,65.0,7.0,-25.0,-71.0,-27.0,18.0,2.0,5.0,0.0
34.0,0.0,60.0,5.0,-5.0,-72.0,22.0,13.0,10.0,3.0,0.0
25.0,6.0,58.0,0.0,5.0,-65.0,26.0,6.0,5.0,1.0,0.0
13.0,18.0,49.0,-7.0,21.0,-38.0,-2.0,5.0,19.0,1.0,0.0
13.0,3.0,29.0,-10.0,29.0,-14.0,-24.0,6.0,45.0,-15.0,0.0
12.0,5.0,29.0,-8.0,29.0,4.0,-37.0,1.0,38.0,-10.0,0.0
-5.0,1.0,25.0,-5.0,39.0,40.0,-25.0,-7.0,23.0,-12.0,0.0
-23.0,-20.0,11.0,6.0,46.0,69.0,-13.0,-7.0,26.0,-33.0,0.0
-25.0,-11.0,4.0,19.0,46.0,65.0,-19.0,-14.0,11.0,-39.0,0.0
-20.0,9.0,-18.0,38.0,39.0,66.0,-7.0,-6.0,5.0,-26.0,0.0
-11.0,-1.0,-21.0,40.0,37.0,61.0,8.0,2.0,4.0,-19.0,0.0
-14.0,10.0,-13.0,34.0,28.0,47.0,7.0,5.0,2.0,-10.0,0.0
-12.0,21.0,2.0,30.0,2.0,-1.0,15.0,0.0,-3.0,-4.0,0.0
-5.0,1.0,-3.0,22.0,12.0,-19.0,26.0,-3.0,-20.0,0.0,0.0
3.0,-2.0,0.0,13.0,26.0,-28.0,9.0,-3.0,-13.0,-2.0,0.0
21.0,21.0,8.0,22.0,19.0,-55.0,-29.0,-21.0,-7.0,5.0,0.0
31.0,23.0,35.0,46.0,13.0,-79.0,-74.0,-30.0,-15.0,18.0,0.0
36.0,11.0,32.0,47.0,-8.0,-76.0,-86.0,-28.0,-42.0,13.0,0.0
15.0,-9.0,6.0,17.0,-4.0,-43.0,-58.0,-2.0,-51.0,-7.0,0.0
1.0,-21.0,-17.0,-20.0,-13.0,-9.0,-7.0,30.0,-44.0,-10.0,0.0
5.0,-17.0,-12.0,-30.0,-37.0,-16.0,6.0,33.0,-29.0,-7.0,0.0
7.0,3.0,1.0,-8.0,-29.0,-4.0,7.0,14.0,-19.0,-7.0,0.0
8.0,-14.0,5.0,18.0,5.0,19.0,0.0,-4.0,-37.0,-12.0,0.0
2.0,-18.0,8.0,28.0,32.0,26.0,-27.0,-33.0,-60.0,-14.0,0.0
0.0,-2.0,-15.0,14.0,25.0,34.0,-51.0,-42.0,-52.0,1.0,0.0
3.0,-16.0,-22.0,4.0,14.0,35.0,-61.0,-31.0,-46.0,3.0,0.0
-1.0,0.0,1.0,-1.0,27.0,50.0,-45.0,-24.0,-43.0,-4.0,0.0
6.0,14.0,28.0,11.0,46.0,55.0,-43.0,-13.0,-26.0,-2.0,0.0
6.0,-3.0,24.0,-3.0,30.0,32.0,-21.0,16.0,-10.0,23.0,0.0
15.0,3.0,10.0,-13.0,2.0,1.0,7.0,37.0,25.0,38.0,0.0
17.0,32.0,21.0,0.0,-11.0,-20.0,17.0,27.0,37.0,39.0,0.0
25.0,35.0,38.0,13.0,-19.0,-57.0,16.0,9.0,43.0,36.0,0.0
10.0,18.0,11.0,8.0,-37.0,-64.0,41.0,8.0,35.0,26.0,0.0
6.0,5.0,-86.0,-13.0,-42.0,-40.0,58.0,13.0,33.0,20.0,0.0
8.0,28.0,-72.0,-17.0,-36.0,-28.0,9.0,11.0,50.0,31.0,0.0
1.0,31.0,-69.0,-14.0,-43.0,-22.0,-36.0,-2.0,35.0,39.0,0.0
2.0,20.0,11.0,-2.0,-49.0,-37.0,-53.0,-11.0,39.0,23.0,0.0
-3.0,15.0,26.0,-2.0,-39.0,-26.0,-42.0,0.0,54.0,13.0,0.0
-5.0,21.0,21.0,-6.0,-25.0,0.0,1.0,16.0,44.0,14.0,0.0
-13.0,-5.0,12.0,-12.0,-2.0,41.0,68.0,23.0,36.0,-14.0,0.0
-32.0,-38.0,11.0,-2.0,16.0,73.0,39.0,0.0,20.0,-30.0,0.0
-40.0,-29.0,14.0,17.0,29.0,99.0,4.0,-15.0,5.0,-17.0,0.0
-48.0,-14.0,-14.0,19.0,34.0,86.0,5.0,-19.0,6.0,-4.0,0.0
-30.0,-4.0,4.0,3.0,16.0,42.0,-1.0,-19.0,10.0,29.0,0.0
0.0,26.0,27.0,7.0,1.0,27.0,-40.0,-34.0,-4.0,26.0,0.0
11.0,51.0,44.0,15.0,19.0,5.0,-81.0,-56.0,-15.0,20.0,0.0
31.0,52.0,47.0,-1.0,21.0,-38.0,-98.0,-68.0,-14.0,29.0,0.0
25.0,16.0,24.0,-22.0,7.0,-28.0,-21.0,-46.0,-19.0,11.0,0.0
-7.0,-13.0,-2.0,-34.0,0.0,-21.0,0.0,-27.0,-35.0,-9.0,0.0
-2.0,-3.0,5.0,-20.0,-30.0,-17.0,14.0,-4.0,-47.0,-7.0,0.0
4.0,19.0,16.0,-16.0,-62.0,-22.0,70.0,20.0,-38.0,-6.0,0.0
10.0,15.0,15.0,-10.0,-66.0,-41.0,73.0,23.0,-2.0,-1.0,0.0
11.0,1.0,8.0,13.0,-63.0,-59.0,12.0,23.0,17.0,-1.0,0.0
9.0,10.0,6.0,16.0,-62.0,-50.0,-17.0,17.0,22.0,5.0,0.0
6.0,28.0,-13.0,4.0,-53.0,-26.0,-18.0,5.0,23.0,11.0,0.0
-5.0,32.0,0.0,4.0,-39.0,18.0,13.0,14.0,44.0,7.0,0.0
-12.0,12.0,25.0,15.0,-15.0,47.0,24.0,12.0,40.0,-8.0,0.0
-20.0,0.0,13.0,11.0,0.0,58.0,17.0,-3.0,35.0,-14.0,0.0
-27.0,1.0,6.0,4.0,7.0,69.0,15.0,-4.0,36.0,-8.0,0.0
-35.0,7.0,4.0,5.0,6.0,76.0,12.0,-1.0,11.0,-19.0,0.0
-28.0,-8.0,9.0,-6.0,9.0,66.0,7.0,-2.0,2.0,-18.0,0.0
-9.0,-12.0,9.0,-6.0,8.0,38.0,5.0,-12.0,0.0,-13.0,0.0
0.0,-5.0,3.0,-9.0,-1.0,21.0,23.0,-3.0,-7.0,-11.0,0.0
0.0,-9.0,0.0,-4.0,-2.0,3.0,37.0,7.0,-13.0,-4.0,0.0
4.0,-17.0,4.0,1.0,-12.0,-28.0,30.0,15.0,2.0,12.0,0.0
14.0,0.0,7.0,0.0,-5.0,-31.0,14.0,9.0,11.0,14.0,0.0
0.0,26.0,3.0,14.0,9.0,-15.0,-12.0,-9.0,-3.0,17.0,0.0
7.0,32.0,-8.0,29.0,34.0,-23.0,-25.0,-22.0,-29.0,14.0,0.0
-2.0,5.0,-24.0,25.0,49.0,-27.0,-31.0,-18.0,-48.0,3.0,0.0
-21.0,-18.0,-24.0,21.0,27.0,-34.0,-18.0,-7.0,-64.0,-4.0,0.0
-11.0,-12.0,-17.0,-2.0,7.0,-36.0,-17.0,-14.0,-58.0,-5.0,0.0
-15.0,-8.0,-19.0,-3.0,-1.0,-20.0,-11.0,-15.0,-45.0,-15.0,0.0
-2.0,-7.0,-46.0,10.0,-15.0,0.0,-6.0,-7.0,-33.0,-5.0,0.0
-4.0,0.0,-50.0,-8.0,-12.0,51.0,-4.0,-17.0,-36.0,4.0,0.0
-17.0,2.0,-24.0,-27.0,-11.0,82.0,-15.0,-13.0,-16.0,2.0,0.0
-19.0,-7.0,-13.0,-31.0,-16.0,47.0,-17.0,-11.0,14.0,0.0,0.0
-13.0,-8.0,-45.0,-25.0,-4.0,10.0,-21.0,-14.0,33.0,-14.0,0.0
-18.0,-10.0,-154.0,-24.0,-4.0,10.0,29.0,-4.0,11.0,-19.0,0.0
-34.0,-9.0,-117.0,-41.0,-20.0,-17.0,85.0,-2.0,18.0,-9.0,0.0
-8.0,-5.0,-25.0,-49.0,-23.0,-41.0,69.0,4.0,50.0,10.0,0.0
16.0,1.0,-75.0,-30.0,7.0,-36.0,32.0,12.0,56.0,22.0,0.0
13.0,9.0,-51.0,-22.0,62.0,2.0,19.0,-5.0,49.0,5.0,0.0
13.0,-4.0,-2.0,1.0,92.0,35.0,47.0,-34.0,17.0,-11.0,0.0
8.0,-25.0,20.0,6.0,70.0,14.0,40.0,-22.0,7.0,-8.0,0.0
0.0,-2.0,32.0,6.0,23.0,-31.0,9.0,11.0,26.0,8.0,0.0
7.0,39.0,56.0,26.0,-1.0,-42.0,-7.0,2.0,37.0,6.0,0.0
0.0,31.0,65.0,36.0,-20.0,-27.0,2.0,0.0,20.0,2.0,0.0
8.0,-10.0,-6.0,-19.0,-53.0,5.0,39.0,46.0,23.0,6.0,0.0
21.0,-8.0,-38.0,-30.0,-67.0,3.0,60.0,71.0,40.0,27.0,0.0
13.0,10.0,34.0,-12.0,-41.0,8.0,33.0,56.0,22.0,12.0,0.0
-12.0,6.0,30.0,-5.0,-5.0,37.0,19.0,34.0,-14.0,0.0,0.0
-15.0,-6.0,11.0,-16.0,2.0,41.0,-2.0,13.0,-32.0,9.0,0.0
-9.0,-13.0,10.0,-43.0,-9.0,-3.0,-20.0,-15.0,-41.0,2.0,0.0
-6.0,-6.0,-3.0,-49.0,-18.0,-24.0,-35.0,-26.0,-59.0,-11.0,0.0
3.0,-2.0,-38.0,-37.0,-22.0,-34.0,-24.0,-16.0,-51.0,0.0,0.0
8.0,-3.0,20.0,-24.0,-7.0,-69.0,-13.0,-25.0,-53.0,3.0,0.0
9.0,0.0,32.0,-24.0,-4.0,-85.0,-39.0,-28.0,-52.0,-7.0,0.0
15.0,2.0,-6.0,-15.0,-24.0,-90.0,-32.0,-4.0,-23.0,9.0,0.0
15.0,-15.0,-56.0,-17.0,-61.0,-101.0,0.0,31.0,12.0,21.0,0.0
2.0,-11.0,1.0,-23.0,-50.0,-82.0,-8.0,27.0,18.0,21.0,0.0
4.0,15.0,6.0,0.0,-18.0,-8.0,5.0,15.0,23.0,24.0,0.0
11.0,11.0,-9.0,17.0,0.0,29.0,14.0,16.0,43.0,20.0,0.0
14.0,-5.0,13.0,-1.0,-4.0,3.0,22.0,5.0,56.0,17.0,0.0
-8.0,-10.0,-31.0,2.0,6.0,-5.0,21.0,4.0,64.0,-6.0,0.0
-20.0,-7.0,-34.0,20.0,18.0,10.0,0.0,3.0,57.0,-17.0,0.0
-15.0,-26.0,29.0,17.0,19.0,31.0,2.0,3.0,51.0,-17.0,0.0
0.0,-27.0,43.0,24.0,19.0,39.0,-7.0,-20.0,18.0,-17.0,0.0
-1.0,-22.0,41.0,24.0,13.0,52.0,3.0,-34.0,28.0,-9.0,0.0
-2.0,-26.0,8.0,18.0,11.0,71.0,24.0,-24.0,35.0,-7.0,0.0
-4.0,-3.0,-90.0,14.0,16.0,66.0,23.0,-16.0,20.0,-8.0,0.0
4.0,2.0,-82.0,28.0,7.0,48.0,-14.0,-22.0,1.0,-6.0,0.0
6.0,-19.0,13.0,31.0,0.0,32.0,-16.0,-10.0,9.0,0.0,0.0
10.0,-22.0,11.0,18.0,2.0,21.0,22.0,9.0,21.0,11.0,0.0
15.0,-11.0,-66.0,23.0,12.0,2.0,55.0,20.0,15.0,0.0,0.0
15.0,-15.0,-22.0,13.0,11.0,-4.0,41.0,36.0,4.0,4.0,0.0
13.0,-14.0,32.0,-5.0,12.0,-27.0,8.0,32.0,8.0,-1.0,0.0
10.0,-21.0,39.0,2.0,21.0,-46.0,-28.0,2.0,11.0,-8.0,0.0
9.0,-13.0,45.0,20.0,24.0,-40.0,-38.0,-6.0,9.0,0.0,0.0
11.0,-1.0,50.0,29.0,6.0,-26.0,-44.0,-7.0,-3.0,8.0,0.0
19.0,-7.0,54.0,30.0,-7.0,-26.0,-19.0,-1.0,1.0,5.0,0.0
16.0,-15.0,47.0,15.0,-2.0,-19.0,-18.0,10.0,-13.0,0.0,0.0
2.0,-23.0,28.0,-8.0,34.0,13.0,-18.0,0.0,-27.0,-1.0,0.0
-7.0,-23.0,17.0,-5.0,30.0,27.0,-33.0,-7.0,-23.0,0.0,0.0
-11.0,-32.0,-4.0,-4.0,35.0,65.0,-22.0,-4.0,0.0,8.0,0.0
-14.0,-47.0,-81.0,-1.0,54.0,122.0,7.0,11.0,5.0,-8.0,0.0
-2.0,-18.0,-44.0,4.0,55.0,126.0,-2.0,-11.0,2.0,-15.0,0.0
17.0,-7.0,18.0,10.0,13.0,64.0,-40.0,-28.0,1.0,-6.0,0.0
29.0,13.0,33.0,0.0,-42.0,9.0,-28.0,-9.0,36.0,17.0,0.0
37.0,14.0,33.0,4.0,-79.0,-20.0,-12.0,6.0,67.0,32.0,0.0
38.0,11.0,34.0,4.0,-91.0,-43.0,-9.0,11.0,57.0,45.0,0.0
44.0,25.0,37.0,-1.0,-94.0,-54.0,25.0,8.0,56.0,55.0,0.0
50.0,40.0,21.0,-11.0,-80.0,-53.0,38.0,22.0,63.0,64.0,0.0
41.0,38.0,16.0,1.0,-60.0,-46.0,2.0,14.0,52.0,48.0,0.0
25.0,19.0,21.0,3.0,-44.0,-37.0,-1.0,0.0,29.0,34.0,0.0
22.0,0.0,14.0,-15.0,-37.0,-18.0,30.0,-7.0,10.0,15.0,0.0
12.0,1.0,6.0,-25.0,-29.0,-9.0,43.0,1.0,0.0,1.0,0.0
3.0,-31.0,1.0,-44.0,-27.0,-14.0,20.0,5.0,-153.0,-4.0,0.0
4.0,-32.0,-1.0,-31.0,-12.0,-8.0,-6.0,0.0,-141.0,-10.0,0.0
-8.0,-17.0,-8.0,-1.0,1.0,25.0,31.0,10.0,0.0,0.0,0.0
-20.0,-27.0,-15.0,-7.0,18.0,54.0,31.0,0.0,7.0,-13.0,0.0
-47.0,-13.0,2.0,-6.0,33.0,93.0,6.0,-23.0,-16.0,-35.0,0.0
-56.0,-7.0,27.0,4.0,42.0,90.0,-16.0,-57.0,-49.0,-51.0,0.0
-51.0,-36.0,-66.0,-16.0,9.0,33.0,-36.0,-49.0,-182.0,-29.0,0.0
-37.0,-35.0,-94.0,-31.0,-27.0,5.0,-34.0,-14.0,-146.0,-5.0,0.0
-13.0,-12.0,5.0,-13.0,-11.0,15.0,-13.0,-10.0,12.0,-9.0,0.0
-11.0,1.0,27.0,-16.0,0.0,12.0,-2.0,0.0,23.0,-9.0,0.0
-14.0,-3.0,18.0,-16.0,15.0,-6.0,4.0,14.0,18.0,-5.0,0.0
-1.0,-4.0,4.0,-19.0,34.0,-6.0,8.0,15.0,15.0,-9.0,0.0
-14.0,-5.0,0.0,-6.0,65.0,-6.0,32.0,4.0,37.0,-18.0,0.0
-12.0,-2.0,37.0,10.0,64.0,-15.0,40.0,2.0,47.0,-23.0,0.0
-8.0,-5.0,-2.0,-22.0,-36.0,-13.0,-1.0,4.0,32.0,-21.0,0.0
-38.0,-12.0,3.0,-19.0,-32.0,21.0,-2.0,4.0,15.0,-24.0,0.0
-46.0,-12.0,21.0,-19.0,-6.0,49.0,4.0,-4.0,-2.0,-18.0,0.0
-42.0,-19.0,-19.0,-21.0,10.0,49.0,-3.0,-2.0,1.0,-20.0,0.0
-27.0,-9.0,-52.0,-19.0,14.0,48.0,-23.0,-13.0,7.0,-17.0,0.0
-18.0,-12.0,8.0,-15.0,11.0,52.0,-33.0,-10.0,12.0,-8.0,0.0
-8.0,1.0,11.0,-19.0,27.0,40.0,-42.0,-8.0,11.0,-1.0,0.0
2.0,9.0,28.0,8.0,54.0,-13.0,-89.0,-13.0,-8.0,0.0,0.0
3.0,19.0,45.0,32.0,45.0,-62.0,-107.0,-17.0,-25.0,0.0,0.0
13.0,25.0,49.0,16.0,-6.0,-104.0,-70.0,3.0,-23.0,12.0,0.0
-9.0,2.0,27.0,-9.0,-33.0,-97.0,51.0,24.0,-25.0,-1.0,0.0
-33.0,-2.0,-60.0,-13.0,-31.0,-63.0,100.0,27.0,-37.0,-11.0,0.0
-23.0,7.0,-149.0,-12.0,-29.0,-35.0,53.0,19.0,-54.0,-7.0,0.0
-13.0,-5.0,-132.0,-4.0,-26.0,7.0,51.0,33.0,-26.0,0.0,0.0
-7.0,-5.0,-13.0,-4.0,-21.0,34.0,76.0,61.0,10.0,9.0,0.0
-13.0,-9.0,36.0,-11.0,-34.0,14.0,53.0,64.0,33.0,0.0,0.0
-10.0,0.0,32.0,-8.0,-33.0,1.0,-1.0,43.0,30.0,-8.0,0.0
-1.0,19.0,25.0,-7.0,-16.0,5.0,-13.0,20.0,29.0,-8.0,0.0
0.0,3.0,3.0,0.0,8.0,20.0,-19.0,6.0,24.0,-2.0,0.0
-20.0,1.0,-23.0,9.0,13.0,53.0,-34.0,-2.0,8.0,-5.0,0.0
-27.0,6.0,40.0,10.0,26.0,70.0,-31.0,-3.0,1.0,5.0,0.0
-24.0,-2.0,30.0,0.0,48.0,71.0,-15.0,-1.0,3.0,-7.0,0.0
-24.0,7.0,8.0,7.0,50.0,65.0,-9.0,5.0,13.0,-20.0,0.0
15.0,-15.0,-29.0,-4.0,14.0,-5.0,-35.0,7.0,-95.0,-12.0,0.0
28.0,-21.0,-21.0,-19.0,-7.0,-61.0,-62.0,-2.0,-207.0,2.0,0.0
17.0,-16.0,-75.0,-8.0,-18.0,-59.0,-13.0,2.0,-84.0,6.0,0.0
-24.0,-113.0,-119.0,-103.0,-56.0,-140.0,-164.0,-11.0,-700.0,-2.0,0.0
-49.0,-123.0,-29.0,-111.0,-47.0,-140.0,-203.0,-18.0,-806.0,-13.0,0.0
-44.0,-62.0,7.0,-20.0,-10.0,-57.0,-64.0,-3.0,-212.0,-8.0,0.0
-39.0,-37.0,-22.0,-28.0,-21.0,-42.0,-15.0,8.0,-121.0,7.0,0.0
-35.0,-13.0,-58.0,5.0,-17.0,-8.0,29.0,26.0,73.0,5.0,0.0
-30.0,5.0,-51.0,27.0,-3.0,-6.0,15.0,25.0,107.0,12.0,0.0
-30.0,20.0,-113.0,28.0,-2.0,12.0,21.0,17.0,96.0,8.0,0.0
-11.0,16.0,-13.0,16.0,9.0,40.0,57.0,13.0,110.0,6.0,0.0
2.0,21.0,51.0,10.0,13.0,41.0,44.0,12.0,123.0,19.0,0.0
3.0,16.0,33.0,6.0,11.0,34.0,23.0,10.0,117.0,22.0,0.0
10.0,33.0,34.0,21.0,25.0,35.0,-15.0,0.0,108.0,18.0,0.0
15.0,36.0,49.0,35.0,48.0,49.0,-23.0,-13.0,89.0,4.0,0.0
14.0,22.0,12.0,33.0,52.0,67.0,13.0,-4.0,87.0,-1.0,0.0
8.0,35.0,40.0,17.0,59.0,55.0,34.0,3.0,91.0,2.0,0.0
0.0,47.0,52.0,22.0,68.0,30.0,33.0,0.0,87.0,-1.0,0.0
-5.0,40.0,46.0,37.0,68.0,-33.0,31.0,9.0,63.0,-12.0,0.0
2.0,21.0,27.0,27.0,50.0,-90.0,22.0,20.0,65.0,-15.0,0.0
6.0,21.0,26.0,17.0,54.0,-56.0,21.0,12.0,45.0,-15.0,0.0
21.0,38.0,59.0,41.0,28.0,-73.0,-3.0,-16.0,29.0,-15.0,0.0
30.0,56.0,70.0,42.0,-8.0,-90.0,-23.0,-21.0,34.0,-14.0,0.0
20.0,35.0,30.0,0.0,-73.0,-39.0,16.0,22.0,47.0,-4.0,0.0
20.0,24.0,-3.0,-57.0,-125.0,-13.0,53.0,55.0,55.0,22.0,0.0
28.0,21.0,7.0,-59.0,-148.0,-8.0,45.0,71.0,47.0,35.0,0.0
46.0,12.0,20.0,-27.0,-130.0,-30.0,28.0,65.0,32.0,32.0,0.0
35.0,13.0,5.0,-26.0,-94.0,-12.0,4.0,41.0,15.0,24.0,0.0
10.0,13.0,4.0,-29.0,-66.0,27.0,19.0,19.0,-22.0,6.0,0.0
-1.0,-10.0,-2.0,-29.0,-45.0,68.0,13.0,0.0,-47.0,-7.0,0.0
-9.0,-9.0,-4.0,-21.0,-23.0,90.0,-26.0,-22.0,-46.0,-31.0,0.0
-2.0,10.0,0.0,-11.0,-21.0,94.0,-18.0,-22.0,-37.0,-27.0,0.0
18.0,11.0,10.0,3.0,-26.0,80.0,-12.0,-8.0,-22.0,2.0,0.0
31.0,15.0,17.0,15.0,-30.0,25.0,-16.0,0.0,-20.0,17.0,0.0
39.0,21.0,-48.0,0.0,-60.0,-41.0,-16.0,21.0,20.0,36.0,0.0
33.0,24.0,-45.0,-15.0,-81.0,-73.0,-10.0,42.0,39.0,37.0,0.0
25.0,15.0,11.0,-1.0,-35.0,-27.0,-6.0,23.0,21.0,8.0,0.0
21.0,25.0,-38.0,26.0,2.0,1.0,-7.0,2.0,13.0,-9.0,0.0
17.0,42.0,-145.0,29.0,-3.0,-17.0,-8.0,15.0,39.0,0.0,0.0
12.0,43.0,-92.0,10.0,-2.0,-27.0,1.0,38.0,72.0,20.0,0.0
0.0,38.0,12.0,13.0,26.0,0.0,33.0,16.0,73.0,22.0,0.0
4.0,34.0,31.0,10.0,35.0,-2.0,35.0,-7.0,56.0,6.0,0.0
10.0,29.0,17.0,4.0,32.0,-14.0,24.0,-2.0,44.0,-8.0,0.0
6.0,5.0,-40.0,-3.0,13.0,-18.0,30.0,24.0,55.0,-14.0,0.0
5.0,10.0,4.0,-3.0,18.0,-1.0,-16.0,12.0,44.0,-6.0,0.0
-5.0,21.0,39.0,5.0,38.0,33.0,-54.0,-21.0,21.0,-13.0,0.0
-12.0,25.0,47.0,1.0,57.0,69.0,-33.0,-33.0,3.0,-24.0,0.0
-19.0,19.0,32.0,-9.0,62.0,107.0,10.0,-13.0,8.0,-17.0,0.0
-16.0,16.0,39.0,5.0,72.0,109.0,14.0,-18.0,-1.0,-5.0,0.0
-12.0,15.0,41.0,6.0,81.0,91.0,3.0,-17.0,-7.0,0.0,0.0
14.0,31.0,33.0,-8.0,49.0,1.0,-25.0,10.0,13.0,20.0,0.0
31.0,38.0,29.0,-12.0,27.0,-48.0,-17.0,23.0,22.0,25.0,0.0
10.0,17.0,10.0,-15.0,34.0,-45.0,16.0,33.0,10.0,12.0,0.0
3.0,-7.0,5.0,-21.0,24.0,-68.0,-4.0,21.0,-9.0,-6.0,0.0
3.0,-12.0,9.0,-10.0,9.0,-87.0,-11.0,9.0,-10.0,-5.0,0.0
-1.0,4.0,5.0,-1.0,3.0,-62.0,-5.0,9.0,0.0,0.0,0.0
-3.0,13.0,0.0,-25.0,-6.0,-39.0,7.0,7.0,-2.0,0.0,0.0
0.0,10.0,10.0,-31.0,0.0,-43.0,2.0,10.0,11.0,5.0,0.0
5.0,0.0,-18.0,-11.0,-2.0,-52.0,-15.0,18.0,25.0,9.0,0.0
10.0,-9.0,-132.0,3.0,-1.0,-32.0,-12.0,13.0,29.0,11.0,0.0
5.0,-9.0,-156.0,15.0,26.0,9.0,-4.0,5.0,43.0,6.0,0.0
-11.0,-15.0,-55.0,23.0,64.0,66.0,-2.0,5.0,61.0,-2.0,0.0
-19.0,-22.0,30.0,17.0,79.0,109.0,15.0,16.0,55.0,-6.0,0.0
-25.0,-19.0,20.0,-11.0,55.0,124.0,76.0,21.0,34.0,-13.0,0.0
-35.0,-22.0,14.0,-30.0,23.0,108.0,78.0,4.0,-11.0,-21.0,0.0
-32.0,-34.0,4.0,-21.0,27.0,45.0,45.0,-17.0,-61.0,-12.0,0.0
-15.0,-14.0,3.0,-13.0,30.0,0.0,6.0,-40.0,-80.0,0.0,0.0
-9.0,-1.0,9.0,-19.0,9.0,-50.0,-32.0,-52.0,-68.0,1.0,0.0
-8.0,0.0,15.0,-18.0,-11.0,-69.0,-66.0,-63.0,-58.0,0.0,0.0
-4.0,4.0,31.0,-1.0,-9.0,-47.0,-62.0,-57.0,-42.0,3.0,0.0
-8.0,8.0,39.0,7.0,-9.0,-19.0,-61.0,-47.0,-31.0,16.0,0.0
-22.0,1.0,31.0,3.0,9.0,7.0,-43.0,-44.0,-15.0,7.0,0.0
-24.0,-16.0,28.0,3.0,9.0,7.0,-40.0,-44.0,3.0,3.0,0.0
-15.0,-21.0,17.0,14.0,14.0,1.0,-29.0,-37.0,5.0,-8.0,0.0
-20.0,1.0,-17.0,16.0,-3.0,-10.0,3.0,-36.0,6.0,-18.0,0.0
-20.0,15.0,-30.0,18.0,-25.0,-41.0,-5.0,-37.0,28.0,-15.0,0.0
-12.0,17.0,26.0,8.0,-27.0,-30.0,7.0,-22.0,46.0,-6.0,0.0
-8.0,3.0,17.0,2.0,-18.0,11.0,12.0,-19.0,39.0,-10.0,0.0
-9.0,-5.0,23.0,-1.0,4.0,30.0,-18.0,-27.0,-9.0,-13.0,0.0
-5.0,-4.0,13.0,3.0,20.0,27.0,-29.0,-36.0,-32.0,-12.0,0.0
-6.0,-14.0,9.0,7.0,6.0,17.0,-26.0,-39.0,-28.0,-21.0,0.0
-12.0,-13.0,8.0,16.0,-4.0,16.0,-40.0,-42.0,-19.0,-21.0,0.0
-1.0,9.0,19.0,20.0,-8.0,6.0,-34.0,-33.0,0.0,-12.0,0.0
3.0,24.0,19.0,32.0,-19.0,-10.0,15.0,-22.0,15.0,4.0,0.0
8.0,20.0,8.0,29.0,-45.0,-56.0,17.0,-4.0,37.0,15.0,0.0
19.0,5.0,0.0,3.0,-73.0,-93.0,-12.0,10.0,60.0,43.0,0.0
19.0,-5.0,3.0,3.0,-74.0,-89.0,-32.0,13.0,44.0,52.0,0.0
4.0,-3.0,0.0,13.0,-45.0,-60.0,-34.0,9.0,26.0,36.0,0.0
2.0,-11.0,-3.0,11.0,-24.0,-54.0,-24.0,9.0,33.0,17.0,0.0
0.0,-16.0,-12.0,4.0,-13.0,-40.0,0.0,14.0,27.0,12.0,0.0
-3.0,-4.0,-13.0,-2.0,-14.0,-37.0,6.0,10.0,19.0,5.0,0.0
-5.0,-7.0,-15.0,-2.0,2.0,-55.0,-9.0,-11.0,4.0,1.0,0.0
-20.0,-21.0,-18.0,-1.0,3.0,-57.0,-9.0,-14.0,-12.0,-7.0,0.0
-19.0,-15.0,-24.0,12.0,10.0,-23.0,-7.0,-23.0,-40.0,-13.0,0.0
-27.0,-29.0,-36.0,13.0,19.0,23.0,39.0,-33.0,-47.0,-27.0,0.0
-22.0,-29.0,-48.0,0.0,33.0,61.0,25.0,-42.0,-55.0,-31.0,0.0
-3.0,6.0,-4.0,4.0,46.0,101.0,1.0,-32.0,-41.0,-17.0,0.0
1.0,11.0,20.0,19.0,35.0,101.0,4.0,-16.0,-20.0,-9.0,0.0
-12.0,-6.0,13.0,17.0,29.0,65.0,4.0,-6.0,-17.0,-2.0,0.0
1.0,-3.0,-7.0,6.0,46.0,53.0,16.0,0.0,-11.0,4.0,0.0
18.0,18.0,-91.0,-3.0,62.0,49.0,33.0,16.0,12.0,9.0,0.0
13.0,12.0,-51.0,-4.0,60.0,48.0,69.0,28.0,39.0,23.0,0.0
7.0,-13.0,9.0,4.0,58.0,32.0,79.0,29.0,38.0,26.0,0.0
11.0,-14.0,27.0,16.0,49.0,-10.0,29.0,9.0,-79.0,4.0,0.0
20.0,-1.0,41.0,17.0,8.0,-45.0,2.0,-12.0,-159.0,-4.0,0.0
38.0,25.0,37.0,11.0,-14.0,-23.0,49.0,2.0,24.0,6.0,0.0
42.0,12.0,28.0,-8.0,-34.0,-47.0,42.0,14.0,24.0,20.0,0.0
26.0,-4.0,14.0,-9.0,-16.0,-42.0,39.0,7.0,8.0,7.0,0.0
23.0,4.0,19.0,12.0,12.0,-10.0,27.0,-14.0,2.0,-4.0,0.0
25.0,30.0,36.0,38.0,22.0,-6.0,6.0,-32.0,12.0,0.0,0.0
25.0,29.0,45.0,42.0,13.0,6.0,-15.0,-23.0,24.0,3.0,0.0
30.0,0.0,40.0,24.0,11.0,28.0,-31.0,-1.0,44.0,-6.0,0.0
16.0,-9.0,27.0,5.0,17.0,59.0,-20.0,4.0,58.0,-26.0,0.0
9.0,7.0,32.0,9.0,21.0,53.0,-50.0,-1.0,63.0,-19.0,0.0
18.0,20.0,33.0,11.0,18.0,18.0,-64.0,-11.0,58.0,-10.0,0.0
22.0,-2.0,15.0,7.0,12.0,5.0,-38.0,-1.0,45.0,-16.0,0.0
31.0,-7.0,9.0,6.0,-8.0,-13.0,-1.0,17.0,47.0,-16.0,0.0
45.0,15.0,13.0,1.0,-28.0,-27.0,19.0,37.0,36.0,5.0,0.0
37.0,20.0,17.0,19.0,-34.0,-32.0,35.0,45.0,17.0,18.0,0.0
17.0,20.0,14.0,33.0,-25.0,-49.0,5.0,18.0,12.0,20.0,0.0
5.0,4.0,9.0,20.0,-14.0,-76.0,-15.0,-12.0,11.0,12.0,0.0
0.0,-5.0,-40.0,15.0,-9.0,-66.0,-1.0,-9.0,14.0,5.0,0.0
-1.0,-31.0,-85.0,8.0,1.0,-16.0,29.0,11.0,10.0,-7.0,0.0
1.0,-42.0,-26.0,13.0,24.0,3.0,21.0,15.0,-2.0,-18.0,0.0
0.0,-25.0,-1.0,29.0,32.0,-13.0,-7.0,16.0,-9.0,-10.0,0.0
-6.0,-13.0,3.0,24.0,29.0,-7.0,21.0,31.0,4.0,-9.0,0.0
-8.0,-26.0,1.0,-6.0,-2.0,28.0,67.0,42.0,7.0,-17.0,0.0
-28.0,-22.0,-16.0,-10.0,-17.0,70.0,74.0,21.0,-22.0,-27.0,0.0
-37.0,-17.0,-2.0,-9.0,-9.0,98.0,55.0,12.0,-20.0,-18.0,0.0
-24.0,-20.0,3.0,-19.0,-27.0,63.0,23.0,8.0,-19.0,1.0,0.0
0.0,4.0,22.0,2.0,-18.0,19.0,-41.0,-18.0,-47.0,-3.0,0.0
7.0,14.0,26.0,24.0,18.0,12.0,-62.0,-19.0,-31.0,-7.0,0.0
3.0,3.0,7.0,16.0,9.0,-4.0,-62.0,-15.0,-10.0,1.0,0.0
-1.0,3.0,2.0,17.0,8.0,-16.0,-63.0,-17.0,-2.0,3.0,0.0
-7.0,9.0,-17.0,29.0,9.0,-24.0,-55.0,-1.0,10.0,4.0,0.0
1.0,9.0,-1.0,31.0,-3.0,-26.0,-56.0,23.0,45.0,20.0,0.0
12.0,3.0,16.0,9.0,-21.0,-16.0,-19.0,34.0,45.0,31.0,0.0
13.0,-8.0,1.0,-23.0,-48.0,4.0,122.0,51.0,41.0,17.0,0.0
17.0,-20.0,-3.0,-35.0,-30.0,-19.0,172.0,70.0,46.0,22.0,0.0
16.0,-22.0,3.0,-18.0,5.0,-36.0,92.0,55.0,46.0,29.0,0.0
5.0,-18.0,16.0,0.0,31.0,-43.0,42.0,13.0,30.0,19.0,0.0
3.0,1.0,25.0,-2.0,17.0,-70.0,11.0,-8.0,0.0,10.0,0.0
-4.0,-14.0,24.0,-4.0,4.0,-53.0,2.0,-8.0,-20.0,6.0,0.0
-21.0,-21.0,29.0,22.0,48.0,27.0,14.0,-29.0,-41.0,-22.0,0.0
-30.0,-27.0,35.0,30.0,65.0,97.0,20.0,-62.0,-72.0,-47.0,0.0
-34.0,-44.0,-1.0,-15.0,10.0,101.0,36.0,-43.0,-89.0,-46.0,0.0
-25.0,-59.0,-42.0,-86.0,-50.0,35.0,15.0,-1.0,-206.0,-27.0,0.0
-11.0,-59.0,-25.0,-65.0,-45.0,0.0,-35.0,-2.0,-165.0,-22.0,0.0
-5.0,-23.0,-5.0,-16.0,2.0,19.0,-31.0,-19.0,-17.0,-18.0,0.0
6.0,-17.0,-47.0,-12.0,8.0,-9.0,-18.0,-18.0,1.0,-3.0,0.0
27.0,-16.0,-16.0,-10.0,-19.0,-70.0,-51.0,-2.0,-65.0,13.0,0.0
33.0,-9.0,19.0,-28.0,-35.0,-81.0,-76.0,-1.0,-180.0,11.0,0.0
29.0,8.0,23.0,-6.0,-32.0,-35.0,-46.0,2.0,-1.0,19.0,0.0
44.0,14.0,-3.0,-5.0,-54.0,-57.0,-50.0,17.0,40.0,29.0,0.0
29.0,18.0,-6.0,-11.0,-65.0,-75.0,-5.0,32.0,61.0,31.0,0.0
17.0,8.0,12.0,-11.0,-48.0,-69.0,15.0,10.0,24.0,9.0,0.0
8.0,-19.0,4.0,-36.0,-50.0,-64.0,50.0,17.0,-2.0,-13.0,0.0
-5.0,-42.0,-16.0,-65.0,-38.0,-97.0,-6.0,12.0,-183.0,-26.0,0.0
-10.0,-41.0,-54.0,-34.0,14.0,-49.0,-15.0,0.0,-144.0,-40.0,0.0
0.0,-15.0,-60.0,-2.0,34.0,8.0,11.0,3.0,-18.0,-35.0,0.0
6.0,-31.0,22.0,0.0,24.0,30.0,-12.0,-11.0,-50.0,-41.0,0.0
-5.0,-38.0,41.0,-10.0,9.0,15.0,-75.0,-34.0,-234.0,-41.0,0.0
-7.0,-40.0,18.0,-22.0,-2.0,72.0,-12.0,-14.0,-85.0,-33.0,0.0
-1.0,-23.0,-13.0,-25.0,-10.0,97.0,31.0,18.0,24.0,-6.0,0.0
1.0,-8.0,-30.0,-9.0,0.0,71.0,20.0,22.0,43.0,3.0,0.0
1.0,-4.0,-41.0,20.0,11.0,48.0,19.0,18.0,44.0,2.0,0.0
10.0,5.0,1.0,11.0,-2.0,28.0,28.0,16.0,51.0,12.0,0.0
21.0,3.0,-8.0,-6.0,-36.0,-22.0,15.0,36.0,63.0,25.0,0.0
31.0,0.0,5.0,-22.0,-61.0,-61.0,5.0,54.0,62.0,25.0,0.0
21.0,10.0,24.0,-9.0,-39.0,-68.0,-3.0,36.0,55.0,30.0,0.0
5.0,1.0,31.0,-2.0,-21.0,-52.0,-18.0,9.0,46.0,32.0,0.0
8.0,19.0,20.0,6.0,-7.0,-25.0,-14.0,3.0,45.0,20.0,0.0
8.0,3.0,14.0,6.0,5.0,-4.0,-4.0,4.0,46.0,16.0,0.0
12.0,7.0,20.0,-4.0,15.0,18.0,-6.0,0.0,70.0,20.0,0.0
9.0,12.0,15.0,-2.0,28.0,32.0,-31.0,-20.0,75.0,23.0,0.0
4.0,-7.0,11.0,2.0,30.0,15.0,-43.0,-32.0,43.0,18.0,0.0
-14.0,-21.0,9.0,-17.0,7.0,-4.0,-83.0,-48.0,-137.0,16.0,0.0
-42.0,-23.0,-2.0,-21.0,-10.0,23.0,-49.0,-51.0,-98.0,0.0,0.0
-42.0,-17.0,-12.0,-15.0,-13.0,57.0,5.0,-32.0,32.0,-7.0,0.0
-37.0,-26.0,-7.0,-8.0,-1.0,58.0,27.0,-9.0,35.0,-9.0,0.0
-37.0,-4.0,-47.0,0.0,-4.0,56.0,40.0,6.0,30.0,4.0,0.0
-37.0,0.0,-99.0,-3.0,-1.0,67.0,68.0,27.0,26.0,7.0,0.0
-43.0,-16.0,-19.0,-10.0,-2.0,56.0,68.0,37.0,30.0,16.0,0.0
-41.0,-22.0,0.0,-6.0,-5.0,12.0,39.0,34.0,30.0,15.0,0.0
-31.0,-14.0,-1.0,6.0,-3.0,-20.0,8.0,11.0,16.0,6.0,0.0
-14.0,-7.0,-2.0,6.0,-14.0,-25.0,-12.0,0.0,-2.0,4.0,0.0
7.0,-17.0,7.0,5.0,-19.0,-29.0,-38.0,1.0,-17.0,1.0,0.0
31.0,9.0,17.0,6.0,-16.0,-65.0,-44.0,0.0,-6.0,23.0,0.0
35.0,10.0,25.0,11.0,-12.0,-80.0,-36.0,4.0,-7.0,42.0,0.0
12.0,7.0,16.0,1.0,-9.0,-48.0,-2.0,8.0,-16.0,23.0,0.0
-12.0,-17.0,2.0,-15.0,1.0,4.0,27.0,13.0,-6.0,6.0,0.0
-11.0,-12.0,-13.0,-19.0,15.0,28.0,25.0,11.0,2.0,-1.0,0.0
2.0,-4.0,-10.0,-4.0,11.0,25.0,-16.0,-3.0,-1.0,15.0,0.0
7.0,15.0,-16.0,4.0,3.0,17.0,-16.0,-13.0,-2.0,23.0,0.0
2.0,22.0,-6.0,13.0,19.0,31.0,-2.0,-19.0,6.0,31.0,0.0
11.0,7.0,-3.0,19.0,38.0,51.0,-12.0,-38.0,11.0,14.0,0.0
6.0,1.0,-95.0,7.0,41.0,54.0,-33.0,-40.0,-56.0,1.0,0.0
-4.0,-33.0,-136.0,-20.0,31.0,25.0,-69.0,-32.0,-181.0,-10.0,0.0
5.0,6.0,-15.0,7.0,45.0,29.0,-45.0,-20.0,22.0,-5.0,0.0
13.0,23.0,9.0,16.0,41.0,4.0,-50.0,-13.0,68.0,8.0,0.0
8.0,10.0,-82.0,20.0,14.0,-27.0,-52.0,-8.0,60.0,8.0,0.0
16.0,14.0,-127.0,6.0,-5.0,-50.0,-44.0,-17.0,47.0,7.0,0.0
15.0,14.0,-97.0,-1.0,-9.0,-55.0,-39.0,-10.0,27.0,3.0,0.0
0.0,12.0,0.0,1.0,-14.0,-30.0,-27.0,0.0,24.0,4.0,0.0
2.0,46.0,42.0,6.0,-15.0,-2.0,-1.0,29.0,44.0,25.0,0.0
4.0,52.0,40.0,4.0,-26.0,-22.0,-15.0,32.0,54.0,31.0,0.0
-1.0,25.0,31.0,-1.0,-34.0,-18.0,15.0,11.0,43.0,8.0,0.0
-17.0,13.0,4.0,0.0,-40.0,-4.0,51.0,0.0,25.0,-3.0,0.0
-16.0,14.0,6.0,2.0,-31.0,0.0,34.0,12.0,25.0,-2.0,0.0
-14.0,6.0,16.0,9.0,-6.0,5.0,23.0,20.0,24.0,1.0,0.0
-34.0,9.0,30.0,7.0,4.0,30.0,2.0,18.0,15.0,-4.0,0.0
-44.0,8.0,35.0,13.0,31.0,58.0,-6.0,5.0,13.0,-21.0,0.0
-32.0,-5.0,32.0,11.0,42.0,64.0,-8.0,-15.0,-6.0,-35.0,0.0
-20.0,-13.0,15.0,4.0,25.0,28.0,-29.0,-25.0,-105.0,-29.0,0.0
-3.0,-15.0,28.0,1.0,12.0,5.0,-41.0,-22.0,-154.0,-16.0,0.0
-9.0,1.0,36.0,17.0,15.0,20.0,9.0,4.0,-4.0,-14.0,0.0
-4.0,8.0,37.0,7.0,7.0,3.0,13.0,17.0,-4.0,0.0,0.0
14.0,14.0,38.0,8.0,-4.0,-25.0,-13.0,25.0,5.0,24.0,0.0
19.0,10.0,35.0,9.0,-11.0,-63.0,-19.0,22.0,20.0,18.0,0.0
4.0,20.0,33.0,14.0,-5.0,-75.0,-9.0,14.0,24.0,5.0,0.0
0.0,18.0,33.0,18.0,27.0,-42.0,0.0,11.0,17.0,0.0,0.0
-12.0,-2.0,22.0,31.0,43.0,-29.0,5.0,7.0,1.0,-11.0,0.0
-16.0,11.0,-6.0,37.0,30.0,-43.0,-9.0,15.0,4.0,-7.0,0.0
-8.0,9.0,-78.0,41.0,5.0,-55.0,-22.0,10.0,22.0,0.0,0.0
-12.0,-7.0,-66.0,28.0,0.0,-34.0,28.0,16.0,36.0,-7.0,0.0
-18.0,-12.0,-30.0,-12.0,-2.0,31.0,95.0,28.0,39.0,-12.0,0.0
-38.0,-27.0,-7.0,-6.0,17.0,100.0,73.0,16.0,64.0,-9.0,0.0
-33.0,-30.0,18.0,0.0,37.0,99.0,30.0,0.0,62.0,-4.0,0.0
-32.0,-23.0,19.0,-1.0,29.0,93.0,10.0,-1.0,10.0,-7.0,0.0
-20.0,-95.0,11.0,-92.0,-46.0,-36.0,-149.0,-24.0,-624.0,-4.0,0.0
-10.0,-95.0,11.0,-108.0,-85.0,-102.0,-174.0,-14.0,-690.0,5.0,0.0
-5.0,14.0,32.0,-7.0,-46.0,-11.0,28.0,27.0,61.0,22.0,0.0
3.0,19.0,24.0,-2.0,-39.0,-7.0,47.0,25.0,121.0,20.0,0.0
20.0,12.0,25.0,0.0,-47.0,-29.0,64.0,27.0,111.0,18.0,0.0
24.0,25.0,22.0,-6.0,-32.0,-52.0,75.0,23.0,97.0,26.0,0.0
21.0,10.0,19.0,0.0,-17.0,-48.0,54.0,11.0,79.0,3.0,0.0
2.0,8.0,12.0,22.0,-12.0,-23.0,63.0,-6.0,59.0,-7.0,0.0
-19.0,4.0,11.0,29.0,-11.0,14.0,61.0,13.0,59.0,-11.0,0.0
-26.0,-10.0,-7.0,8.0,-16.0,18.0,45.0,17.0,69.0,2.0,0.0
-9.0,0.0,3.0,11.0,-20.0,-3.0,4.0,9.0,68.0,16.0,0.0
-2.0,-14.0,8.0,13.0,-9.0,-2.0,1.0,18.0,51.0,10.0,0.0
0.0,2.0,5.0,0.0,5.0,15.0,6.0,28.0,46.0,15.0,0.0
-4.0,26.0,20.0,11.0,29.0,51.0,6.0,2.0,32.0,0.0,0.0
-21.0,8.0,-22.0,38.0,93.0,109.0,14.0,-26.0,5.0,-28.0,0.0
-22.0,22.0,-51.0,40.0,123.0,130.0,1.0,-30.0,-5.0,-41.0,0.0
-18.0,23.0,31.0,41.0,105.0,92.0,-7.0,-38.0,8.0,-36.0,0.0
-18.0,8.0,30.0,37.0,77.0,65.0,39.0,-22.0,24.0,-30.0,0.0
-21.0,17.0,2.0,21.0,42.0,47.0,87.0,3.0,47.0,-25.0,0.0
0.0,29.0,12.0,13.0,-2.0,10.0,85.0,23.0,82.0,-12.0,0.0
4.0,14.0,15.0,2.0,-43.0,-11.0,114.0,55.0,112.0,7.0,0.0
5.0,13.0,4.0,-13.0,-79.0,-32.0,126.0,81.0,121.0,14.0,0.0
1.0,48.0,17.0,-17.0,-97.0,-62.0,75.0,65.0,123.0,40.0,0.0
3.0,39.0,8.0,-24.0,-75.0,-70.0,50.0,52.0,136.0,45.0,0.0
15.0,10.0,2.0,-16.0,-58.0,-63.0,36.0,49.0,135.0,39.0,0.0
24.0,15.0,-45.0,-3.0,-42.0,-46.0,15.0,23.0,115.0,35.0,0.0
27.0,37.0,-80.0,15.0,-26.0,-31.0,-19.0,-14.0,73.0,19.0,0.0
25.0,37.0,23.0,26.0,-20.0,-33.0,-45.0,-35.0,57.0,9.0,0.0
15.0,24.0,44.0,4.0,-50.0,-61.0,-46.0,3.0,65.0,19.0,0.0
0.0,12.0,20.0,-16.0,-51.0,-47.0,-5.0,38.0,78.0,5.0,0.0
-6.0,15.0,27.0,-12.0,-2.0,21.0,14.0,12.0,48.0,-6.0,0.0
-30.0,-7.0,41.0,4.0,35.0,82.0,13.0,-18.0,18.0,-28.0,0.0
-54.0,-26.0,-19.0,5.0,50.0,149.0,72.0,-37.0,-33.0,-54.0,0.0
-69.0,-32.0,-15.0,4.0,51.0,168.0,88.0,-58.0,-75.0,-77.0,0.0
-55.0,-20.0,31.0,12.0,27.0,121.0,37.0,-52.0,-73.0,-56.0,0.0
-17.0,8.0,36.0,-3.0,-41.0,19.0,9.0,-20.0,-13.0,-6.0,0.0
34.0,16.0,32.0,-15.0,-91.0,-80.0,-2.0,20.0,39.0,28.0,0.0
49.0,4.0,37.0,-14.0,-85.0,-94.0,-2.0,17.0,24.0,30.0,0.0
38.0,7.0,30.0,-15.0,-68.0,-92.0,2.0,-1.0,-7.0,29.0,0.0
27.0,2.0,28.0,0.0,-54.0,-83.0,-11.0,-16.0,-26.0,19.0,0.0
11.0,-13.0,23.0,4.0,-34.0,-52.0,-30.0,-13.0,-11.0,8.0,0.0
6.0,1.0,-4.0,-3.0,6.0,-29.0,-33.0,-8.0,15.0,5.0,0.0
9.0,4.0,-58.0,-1.0,56.0,-22.0,-46.0,-19.0,0.0,0.0,0.0
-20.0,-12.0,-8.0,4.0,83.0,14.0,-43.0,-30.0,-23.0,-20.0,0.0
-28.0,-7.0,11.0,6.0,80.0,29.0,-22.0,-36.0,-2.0,-32.0,0.0
-7.0,2.0,37.0,30.0,43.0,16.0,-6.0,-37.0,24.0,-31.0,0.0
-23.0,1.0,16.0,41.0,22.0,23.0,26.0,-41.0,37.0,-31.0,0.0
-25.0,11.0,-109.0,29.0,37.0,55.0,14.0,-40.0,44.0,-30.0,0.0
-14.0,6.0,-151.0,17.0,30.0,74.0,-29.0,-39.0,45.0,-21.0,0.0
0.0,0.0,-69.0,16.0,21.0,77.0,-69.0,-32.0,44.0,-2.0,0.0
1.0,9.0,32.0,31.0,26.0,56.0,-96.0,-31.0,25.0,0.0,0.0
20.0,27.0,56.0,35.0,3.0,19.0,-121.0,-27.0,3.0,-15.0,0.0
30.0,27.0,-5.0,20.0,-29.0,-34.0,-120.0,-23.0,-1.0,-7.0,0.0
7.0,4.0,-9.0,-40.0,-68.0,-31.0,-31.0,0.0,7.0,-10.0,0.0
-24.0,-22.0,0.0,-77.0,-92.0,-14.0,115.0,26.0,-13.0,-27.0,0.0
-24.0,-28.0,5.0,-59.0,-61.0,-38.0,107.0,32.0,-21.0,-37.0,0.0
-19.0,-7.0,10.0,-46.0,-36.0,-56.0,36.0,12.0,-21.0,-27.0,0.0
-13.0,7.0,28.0,-30.0,-32.0,-69.0,-4.0,3.0,-20.0,-5.0,0.0
-11.0,-12.0,32.0,-15.0,-32.0,-70.0,-14.0,-15.0,-32.0,1.0,0.0
-35.0,-19.0,18.0,4.0,-15.0,-31.0,29.0,-1.0,-40.0,-10.0,0.0
-47.0,-32.0,18.0,-5.0,-6.0,-3.0,37.0,17.0,-42.0,-7.0,0.0
-23.0,-35.0,25.0,-14.0,-5.0,17.0,40.0,20.0,-50.0,-15.0,0.0
-14.0,-28.0,21.0,-3.0,0.0,37.0,31.0,3.0,-59.0,-25.0,0.0
-14.0,-16.0,24.0,-6.0,1.0,71.0,31.0,5.0,-57.0,-23.0,0.0
-25.0,-8.0,31.0,-6.0,1.0,88.0,17.0,10.0,-47.0,-20.0,0.0
-28.0,-14.0,23.0,-1.0,10.0,82.0,-14.0,2.0,-32.0,-23.0,0.0
-16.0,6.0,17.0,4.0,18.0,68.0,-37.0,15.0,-11.0,-4.0,0.0
-6.0,7.0,-14.0,3.0,12.0,59.0,-42.0,20.0,4.0,5.0,0.0
15.0,3.0,-33.0,-11.0,7.0,32.0,-37.0,31.0,32.0,5.0,0.0
29.0,-3.0,0.0,-17.0,-1.0,1.0,-29.0,50.0,51.0,19.0,0.0
16.0,-11.0,8.0,-14.0,-19.0,-34.0,-27.0,44.0,51.0,17.0,0.0
14.0,11.0,11.0,-1.0,-2.0,-56.0,-15.0,31.0,40.0,14.0,0.0
19.0,17.0,8.0,8.0,9.0,-51.0,-24.0,18.0,16.0,7.0,0.0
21.0,-4.0,-26.0,6.0,14.0,-47.0,-52.0,10.0,1.0,-8.0,0.0
14.0,10.0,0.0,7.0,18.0,-53.0,-73.0,-8.0,-9.0,-11.0,0.0
13.0,14.0,18.0,9.0,14.0,-60.0,-82.0,-17.0,-11.0,-2.0,0.0
15.0,-1.0,19.0,7.0,7.0,-53.0,-73.0,-25.0,-1.0,-7.0,0.0
7.0,2.0,12.0,3.0,16.0,-42.0,-46.0,-28.0,-3.0,-7.0,0.0
11.0,2.0,10.0,-12.0,18.0,-22.0,-32.0,-11.0,-18.0,-13.0,0.0
1.0,-12.0,10.0,-15.0,21.0,13.0,-48.0,-17.0,-34.0,-14.0,0.0
0.0,1.0,22.0,-5.0,29.0,44.0,-74.0,-32.0,-58.0,-17.0,0.0
-1.0,0.0,1.0,-9.0,36.0,64.0,-66.0,-34.0,-66.0,-38.0,0.0
0.0,-1.0,-46.0,-18.0,29.0,70.0,-88.0,-27.0,-58.0,-37.0,0.0
17.0,-2.0,-4.0,-14.0,24.0,59.0,-109.0,-10.0,-57.0,-18.0,0.0
29.0,3.0,17.0,-8.0,33.0,28.0,-106.0,-18.0,-54.0,-5.0,0.0
18.0,11.0,6.0,-16.0,43.0,-2.0,-74.0,-26.0,-46.0,-11.0,0.0
5.0,15.0,-4.0,-14.0,37.0,-10.0,0.0,-10.0,-47.0,-12.0,0.0
15.0,10.0,-2.0,-5.0,31.0,-34.0,23.0,5.0,-30.0,2.0,0.0
25.0,1.0,-1.0,-10.0,13.0,-62.0,17.0,29.0,15.0,16.0,0.0
32.0,11.0,2.0,-21.0,0.0,-65.0,11.0,46.0,39.0,21.0,0.0
39.0,-2.0,5.0,-5.0,-5.0,-52.0,15.0,28.0,27.0,2.0,0.0
37.0,-5.0,0.0,2.0,-9.0,-53.0,21.0,11.0,30.0,-2.0,0.0
17.0,11.0,-42.0,0.0,-22.0,-39.0,12.0,3.0,34.0,2.0,0.0
12.0,6.0,-6.0,-1.0,-18.0,-8.0,0.0,-2.0,37.0,0.0,0.0
11.0,14.0,33.0,11.0,-5.0,12.0,-8.0,-4.0,47.0,10.0,0.0
5.0,26.0,12.0,28.0,4.0,6.0,-42.0,-21.0,29.0,9.0,0.0
0.0,20.0,13.0,38.0,5.0,18.0,-65.0,-35.0,7.0,5.0,0.0
-1.0,-4.0,25.0,20.0,4.0,56.0,-22.0,-12.0,10.0,0.0,0.0
-10.0,-5.0,-9.0,0.0,14.0,91.0,49.0,12.0,-1.0,-15.0,0.0
-20.0,-2.0,-103.0,-10.0,16.0,96.0,57.0,18.0,-26.0,-24.0,0.0
-17.0,-11.0,-57.0,-5.0,29.0,67.0,35.0,9.0,-37.0,-24.0,0.0
-20.0,2.0,11.0,8.0,51.0,56.0,4.0,-18.0,-39.0,-31.0,0.0
-7.0,2.0,26.0,14.0,53.0,36.0,-15.0,-33.0,-42.0,-22.0,0.0
16.0,-18.0,23.0,-3.0,26.0,0.0,20.0,5.0,-17.0,-10.0,0.0
27.0,-4.0,8.0,-13.0,-14.0,-30.0,73.0,39.0,-14.0,2.0,0.0
29.0,8.0,14.0,-8.0,-27.0,-30.0,58.0,43.0,-22.0,17.0,0.0
25.0,-3.0,13.0,-9.0,-20.0,-17.0,3.0,27.0,-21.0,12.0,0.0
23.0,0.0,19.0,-10.0,-22.0,-15.0,-21.0,18.0,-16.0,7.0,0.0
26.0,0.0,27.0,-11.0,-27.0,-22.0,-28.0,8.0,-11.0,5.0,0.0
27.0,-7.0,18.0,2.0,-17.0,-15.0,-31.0,9.0,-6.0,8.0,0.0
28.0,-1.0,9.0,5.0,-17.0,-35.0,-17.0,12.0,11.0,25.0,0.0
27.0,-2.0,6.0,0.0,-7.0,-51.0,-11.0,2.0,7.0,25.0,0.0
7.0,4.0,9.0,11.0,15.0,-39.0,-36.0,-8.0,-7.0,-1.0,0.0
5.0,18.0,14.0,17.0,23.0,-20.0,-35.0,-6.0,9.0,-7.0,0.0
1.0,13.0,23.0,8.0,21.0,18.0,-31.0,-14.0,20.0,-4.0,0.0
-21.0,-7.0,11.0,-2.0,21.0,53.0,-27.0,-20.0,35.0,-7.0,0.0
-30.0,1.0,-43.0,-9.0,11.0,56.0,-19.0,-24.0,39.0,-6.0,0.0
-25.0,5.0,-76.0,-13.0,9.0,41.0,-12.0,-24.0,50.0,-8.0,0.0
-18.0,-6.0,-30.0,-11.0,7.0,28.0,-4.0,-10.0,45.0,-9.0,0.0
-2.0,1.0,9.0,1.0,-3.0,0.0,5.0,12.0,43.0,-3.0,0.0
21.0,21.0,20.0,-18.0,-24.0,-49.0,-14.0,17.0,54.0,25.0,0.0
29.0,16.0,34.0,-19.0,-37.0,-67.0,-22.0,11.0,27.0,14.0,0.0
18.0,25.0,30.0,-2.0,-16.0,-31.0,28.0,4.0,20.0,-8.0,0.0
8.0,22.0,24.0,-3.0,7.0,-15.0,32.0,0.0,16.0,0.0,0.0
5.0,24.0,28.0,-3.0,8.0,-36.0,-14.0,-7.0,-4.0,6.0,0.0
10.0,24.0,33.0,-10.0,2.0,-65.0,-55.0,-14.0,-26.0,10.0,0.0
19.0,17.0,18.0,-15.0,0.0,-58.0,-53.0,-12.0,-22.0,22.0,0.0
19.0,17.0,14.0,8.0,9.0,-43.0,-51.0,-18.0,-38.0,10.0,0.0
9.0,10.0,21.0,42.0,27.0,-23.0,-33.0,-9.0,-66.0,-4.0,0.0
-10.0,-24.0,15.0,22.0,40.0,6.0,-25.0,-7.0,-70.0,-29.0,0.0
-45.0,-42.0,-11.0,-1.0,39.0,49.0,-29.0,-18.0,-73.0,-31.0,0.0
-55.0,-46.0,-22.0,-13.0,55.0,80.0,5.0,-17.0,-78.0,-31.0,0.0
-42.0,-36.0,-25.0,5.0,84.0,107.0,36.0,-11.0,-68.0,-30.0,0.0
-30.0,-17.0,0.0,15.0,88.0,87.0,11.0,-21.0,-42.0,-21.0,0.0
-5.0,-7.0,12.0,12.0,51.0,24.0,-8.0,-22.0,-23.0,0.0,0.0
7.0,27.0,29.0,1.0,-3.0,-30.0,15.0,-3.0,-1.0,7.0,0.0
-6.0,14.0,-2.0,-30.0,-16.0,4.0,90.0,13.0,18.0,1.0,0.0
-2.0,-6.0,-36.0,-31.0,-7.0,16.0,103.0,16.0,46.0,1.0,0.0
6.0,0.0,-31.0,-19.0,1.0,-13.0,62.0,14.0,56.0,7.0,0.0
25.0,17.0,-20.0,3.0,-3.0,-28.0,12.0,0.0,39.0,4.0,0.0
45.0,20.0,-7.0,25.0,-8.0,-37.0,-29.0,-12.0,22.0,-8.0,0.0
47.0,29.0,-6.0,37.0,-20.0,-53.0,-62.0,-2.0,15.0,5.0,0.0
22.0,16.0,-4.0,24.0,-17.0,-31.0,-28.0,9.0,22.0,12.0,0.0
8.0,7.0,-12.0,5.0,-10.0,10.0,34.0,15.0,0.0,-10.0,0.0
-12.0,0.0,-14.0,8.0,15.0,29.0,38.0,-1.0,-34.0,-33.0,0.0
-35.0,-18.0,-12.0,19.0,27.0,48.0,48.0,-12.0,-71.0,-49.0,0.0
-38.0,-11.0,-10.0,14.0,-7.0,36.0,44.0,11.0,-46.0,-35.0,0.0
-19.0,-19.0,-31.0,-25.0,-34.0,7.0,17.0,22.0,-9.0,-10.0,0.0
-7.0,-9.0,-87.0,-44.0,-34.0,21.0,-3.0,23.0,-10.0,5.0,0.0
-3.0,1.0,-107.0,-28.0,-20.0,39.0,-17.0,22.0,-20.0,13.0,0.0
-14.0,-10.0,-12.0,0.0,13.0,40.0,-1.0,26.0,-27.0,-8.0,0.0
-8.0,-9.0,13.0,14.0,-6.0,-2.0,3.0,22.0,-28.0,-14.0,0.0
0.0,19.0,-23.0,24.0,-65.0,-54.0,2.0,28.0,-22.0,10.0,0.0
13.0,22.0,-18.0,12.0,-81.0,-61.0,36.0,33.0,-24.0,20.0,0.0
33.0,24.0,13.0,-14.0,-89.0,-95.0,9.0,21.0,-18.0,41.0,0.0
