channel0,channel1,channel2,channel3,channel4,channel5,channel6,channel7,channel8,channel9,true_locs
-13.0,-6.0,82.0,41.0,39.0,17.0,-59.0,-9.0,-8.0,0.0,0.0
-13.0,-17.0,86.0,34.0,24.0,4.0,-12.0,-2.0,4.0,-4.0,0.0
-16.0,-26.0,89.0,16.0,20.0,4.0,88.0,8.0,24.0,7.0,0.0
-20.0,-18.0,69.0,3.0,16.0,16.0,183.0,15.0,37.0,10.0,0.0
-10.0,-18.0,38.0,-11.0,6.0,18.0,234.0,21.0,27.0,7.0,0.0
5.0,-17.0,22.0,-27.0,-22.0,15.0,257.0,18.0,34.0,1.0,0.0
11.0,-11.0,18.0,-33.0,-30.0,-9.0,254.0,4.0,33.0,7.0,0.0
-4.0,-12.0,3.0,-41.0,-30.0,-11.0,230.0,-7.0,23.0,3.0,0.0
8.0,-10.0,14.0,-39.0,-26.0,-21.0,205.0,-26.0,18.0,4.0,0.0
16.0,-7.0,26.0,-19.0,-25.0,-31.0,206.0,-47.0,-6.0,20.0,0.0
26.0,-2.0,20.0,-19.0,-19.0,-38.0,211.0,-53.0,-19.0,41.0,0.0
23.0,-1.0,28.0,-8.0,-7.0,-30.0,151.0,-29.0,-2.0,26.0,0.0
14.0,-8.0,26.0,-4.0,4.0,-18.0,42.0,-11.0,-4.0,14.0,0.0
4.0,-13.0,7.0,-8.0,18.0,-3.0,-87.0,0.0,20.0,16.0,0.0
-17.0,-17.0,-5.0,-9.0,24.0,13.0,-142.0,20.0,15.0,12.0,0.0
-28.0,-20.0,-54.0,3.0,37.0,27.0,-80.0,22.0,22.0,8.0,0.0
-31.0,-23.0,-3.0,9.0,42.0,35.0,-21.0,12.0,16.0,1.0,0.0
-27.0,-32.0,5.0,21.0,50.0,36.0,6.0,21.0,23.0,-11.0,0.0
-26.0,-35.0,7.0,16.0,44.0,25.0,60.0,20.0,12.0,-8.0,0.0
-33.0,-11.0,11.0,16.0,35.0,22.0,128.0,3.0,17.0,-7.0,0.0
-23.0,7.0,12.0,-3.0,21.0,-4.0,191.0,-16.0,3.0,-9.0,0.0
-11.0,-9.0,6.0,-25.0,2.0,-18.0,194.0,-22.0,-4.0,-11.0,0.0
1.0,-8.0,-4.0,-34.0,0.0,-4.0,151.0,2.0,19.0,11.0,0.0
0.0,-8.0,-62.0,-55.0,0.0,-1.0,131.0,16.0,43.0,-15.0,0.0
-25.0,-31.0,-20.0,-73.0,-14.0,-50.0,37.0,-29.0,-67.0,-58.0,0.0
-11.0,7.0,13.0,-44.0,-17.0,-31.0,59.0,9.0,-12.0,-6.0,0.0
-6.0,20.0,6.0,-15.0,-12.0,3.0,69.0,36.0,39.0,9.0,0.0
-6.0,5.0,6.0,-5.0,0.0,17.0,-13.0,32.0,37.0,-2.0,0.0
-15.0,3.0,18.0,10.0,2.0,25.0,-136.0,19.0,12.0,-11.0,0.0
-24.0,0.0,-6.0,18.0,4.0,26.0,-199.0,11.0,1.0,-6.0,0.0
-41.0,1.0,19.0,17.0,13.0,29.0,-207.0,11.0,0.0,-8.0,0.0
-34.0,14.0,25.0,18.0,13.0,33.0,-155.0,10.0,-6.0,-4.0,0.0
-29.0,18.0,27.0,30.0,11.0,31.0,-87.0,13.0,-10.0,-10.0,0.0
-29.0,8.0,30.0,39.0,11.0,34.0,-21.0,5.0,-19.0,-12.0,0.0
-31.0,-5.0,-22.0,27.0,14.0,37.0,42.0,-2.0,-8.0,-3.0,0.0
-27.0,-2.0,-129.0,14.0,10.0,29.0,113.0,-11.0,-21.0,6.0,0.0
-19.0,6.0,-135.0,5.0,-10.0,21.0,173.0,-23.0,-27.0,6.0,0.0
-11.0,20.0,-50.0,5.0,-13.0,10.0,197.0,-24.0,-13.0,6.0,0.0
-15.0,23.0,22.0,-8.0,-16.0,-7.0,224.0,-14.0,-9.0,16.0,0.0
-13.0,16.0,29.0,-9.0,-32.0,-25.0,206.0,-6.0,11.0,26.0,0.0
-8.0,23.0,20.0,-11.0,-39.0,-42.0,186.0,5.0,22.0,43.0,0.0
-17.0,27.0,4.0,-13.0,-29.0,-24.0,171.0,10.0,29.0,23.0,0.0
-25.0,23.0,1.0,-4.0,-11.0,0.0,151.0,9.0,11.0,12.0,0.0
-32.0,6.0,-1.0,19.0,16.0,24.0,114.0,12.0,8.0,9.0,0.0
-37.0,15.0,-8.0,26.0,30.0,37.0,18.0,14.0,-4.0,15.0,0.0
-38.0,14.0,-53.0,19.0,29.0,32.0,-90.0,15.0,-8.0,6.0,0.0
-34.0,12.0,-138.0,26.0,36.0,20.0,-141.0,-1.0,-23.0,-7.0,0.0
-26.0,23.0,-114.0,34.0,37.0,16.0,-96.0,-25.0,-25.0,2.0,0.0
-24.0,31.0,-10.0,35.0,24.0,3.0,-1.0,-29.0,-12.0,6.0,0.0
-20.0,34.0,39.0,28.0,5.0,-8.0,55.0,-22.0,-4.0,26.0,0.0
-14.0,32.0,53.0,20.0,7.0,-6.0,122.0,-13.0,10.0,24.0,0.0
-27.0,23.0,58.0,4.0,3.0,2.0,223.0,-7.0,-9.0,10.0,0.0
-36.0,12.0,55.0,5.0,4.0,1.0,305.0,-4.0,8.0,7.0,0.0
-34.0,20.0,55.0,-21.0,-11.0,-12.0,348.0,11.0,14.0,20.0,0.0
-17.0,9.0,41.0,-40.0,-25.0,-18.0,384.0,18.0,4.0,9.0,0.0
-22.0,-6.0,16.0,-61.0,-40.0,-21.0,391.0,8.0,0.0,11.0,0.0
-18.0,-3.0,17.0,-57.0,-36.0,-34.0,373.0,3.0,1.0,24.0,0.0
-7.0,6.0,10.0,-41.0,-30.0,-46.0,355.0,2.0,-6.0,21.0,0.0
2.0,13.0,-77.0,-31.0,-35.0,-50.0,346.0,-11.0,-13.0,27.0,0.0
7.0,14.0,-143.0,-22.0,-22.0,-37.0,328.0,0.0,5.0,24.0,0.0
5.0,11.0,-54.0,-20.0,-12.0,-23.0,248.0,13.0,21.0,24.0,0.0
-6.0,3.0,23.0,-6.0,9.0,0.0,122.0,17.0,17.0,13.0,0.0
-6.0,-10.0,51.0,10.0,25.0,9.0,27.0,14.0,18.0,0.0,0.0
-14.0,-18.0,60.0,26.0,53.0,7.0,12.0,-1.0,1.0,6.0,0.0
-22.0,-20.0,48.0,32.0,78.0,21.0,74.0,-19.0,1.0,-2.0,0.0
-23.0,-18.0,11.0,23.0,65.0,37.0,123.0,-17.0,0.0,-11.0,0.0
-22.0,-23.0,59.0,30.0,45.0,37.0,138.0,-24.0,0.0,-16.0,0.0
-20.0,-18.0,75.0,16.0,39.0,44.0,169.0,-31.0,-8.0,-21.0,0.0
-9.0,-16.0,60.0,-5.0,33.0,36.0,228.0,-32.0,-20.0,-5.0,0.0
-7.0,-17.0,54.0,-5.0,31.0,30.0,259.0,-19.0,-10.0,14.0,0.0
-4.0,-20.0,37.0,4.0,20.0,24.0,284.0,-7.0,1.0,12.0,0.0
12.0,-12.0,21.0,-9.0,0.0,5.0,276.0,2.0,22.0,19.0,0.0
12.0,2.0,16.0,-17.0,-23.0,-41.0,226.0,10.0,21.0,22.0,0.0
3.0,-1.0,16.0,-35.0,-36.0,-76.0,222.0,12.0,18.0,13.0,0.0
-7.0,-7.0,-32.0,-39.0,-21.0,-68.0,186.0,16.0,10.0,23.0,0.0
6.0,-9.0,-58.0,-31.0,-11.0,-53.0,162.0,14.0,11.0,29.0,0.0
11.0,-4.0,-19.0,-21.0,6.0,-37.0,110.0,-18.0,-8.0,17.0,0.0
6.0,7.0,48.0,-5.0,25.0,-33.0,-17.0,-50.0,-18.0,6.0,0.0
12.0,12.0,62.0,5.0,23.0,-25.0,-141.0,-54.0,-22.0,11.0,0.0
9.0,3.0,40.0,2.0,19.0,0.0,-220.0,-49.0,-12.0,-2.0,0.0
7.0,2.0,2.0,13.0,16.0,5.0,-210.0,-43.0,-16.0,-15.0,0.0
4.0,1.0,51.0,28.0,23.0,3.0,-163.0,-38.0,-24.0,-4.0,0.0
7.0,0.0,61.0,40.0,22.0,15.0,-113.0,-32.0,-15.0,18.0,0.0
28.0,16.0,61.0,35.0,18.0,14.0,-61.0,-17.0,-3.0,36.0,0.0
31.0,31.0,52.0,32.0,17.0,-12.0,8.0,-13.0,9.0,42.0,0.0
29.0,26.0,44.0,25.0,22.0,-19.0,67.0,-8.0,7.0,28.0,0.0
35.0,23.0,24.0,10.0,31.0,4.0,99.0,-7.0,-7.0,11.0,0.0
48.0,26.0,23.0,5.0,32.0,18.0,88.0,-36.0,-26.0,-1.0,0.0
50.0,34.0,-51.0,5.0,13.0,-1.0,63.0,-49.0,-29.0,9.0,0.0
34.0,26.0,-154.0,-11.0,-15.0,-14.0,33.0,-49.0,-18.0,4.0,0.0
22.0,5.0,-167.0,-27.0,-32.0,-10.0,14.0,-44.0,9.0,2.0,0.0
25.0,15.0,-95.0,-36.0,-57.0,-20.0,4.0,-31.0,12.0,7.0,0.0
27.0,30.0,11.0,-33.0,-48.0,-32.0,11.0,-24.0,12.0,13.0,0.0
27.0,36.0,34.0,-19.0,-25.0,-28.0,-57.0,-10.0,10.0,9.0,0.0
27.0,30.0,34.0,-4.0,-13.0,-13.0,-193.0,11.0,32.0,11.0,0.0
8.0,22.0,36.0,-3.0,-17.0,-8.0,-312.0,31.0,31.0,-1.0,0.0
-17.0,-5.0,-14.0,-4.0,-11.0,8.0,-352.0,58.0,18.0,-19.0,0.0
-36.0,-22.0,-47.0,-9.0,-6.0,27.0,-311.0,55.0,20.0,-34.0,0.0
-34.0,-21.0,20.0,0.0,-1.0,39.0,-275.0,38.0,14.0,-28.0,0.0
-25.0,-26.0,27.0,-1.0,-10.0,38.0,-236.0,37.0,21.0,-20.0,0.0
-8.0,-10.0,32.0,7.0,-9.0,25.0,-181.0,20.0,10.0,-18.0,1.0
0.0,-3.0,10.0,-2.0,-15.0,19.0,-130.0,13.0,20.0,-18.0,1.0
-3.0,2.0,7.0,-18.0,-22.0,13.0,-95.0,9.0,14.0,-22.0,1.0
-9.0,0.0,21.0,-9.0,-38.0,5.0,-83.0,4.0,15.0,-2.0,1.0
-15.0,-1.0,-57.0,-17.0,-45.0,-6.0,-102.0,-7.0,12.0,-3.0,1.0
-7.0,4.0,-133.0,-18.0,-39.0,-24.0,-119.0,-4.0,28.0,-10.0,1.0
10.0,14.0,-136.0,-41.0,-49.0,-39.0,-129.0,4.0,57.0,-5.0,1.0
24.0,19.0,-118.0,-46.0,-54.0,-47.0,-158.0,13.0,43.0,14.0,1.0
32.0,27.0,-11.0,-40.0,-47.0,-56.0,-179.0,7.0,20.0,14.0,1.0
33.0,30.0,45.0,-34.0,-38.0,-48.0,-188.0,-4.0,31.0,12.0,1.0
18.0,18.0,43.0,-23.0,-33.0,-36.0,-251.0,-7.0,18.0,1.0,1.0
9.0,15.0,47.0,-8.0,-34.0,-28.0,-367.0,-16.0,1.0,6.0,1.0
2.0,16.0,58.0,5.0,-19.0,-10.0,-443.0,-26.0,-12.0,0.0,1.0
9.0,21.0,62.0,5.0,-11.0,-8.0,-451.0,-39.0,-17.0,-14.0,1.0
9.0,3.0,62.0,7.0,-7.0,-11.0,-390.0,-41.0,-27.0,-7.0,1.0
16.0,2.0,68.0,11.0,-4.0,1.0,-300.0,-27.0,-14.0,-2.0,1.0
1.0,3.0,66.0,14.0,3.0,14.0,-237.0,-22.0,-17.0,-8.0,1.0
-2.0,0.0,0.0,14.0,0.0,0.0,-167.0,-20.0,-12.0,-12.0,1.0
12.0,6.0,-55.0,23.0,-19.0,2.0,-95.0,-19.0,-10.0,-3.0,0.0
16.0,5.0,29.0,11.0,-20.0,2.0,-42.0,-16.0,0.0,-8.0,0.0
5.0,1.0,39.0,-7.0,-20.0,-14.0,-22.0,4.0,-6.0,-13.0,0.0
-2.0,-5.0,32.0,-20.0,-13.0,-32.0,-7.0,16.0,9.0,-9.0,0.0
2.0,-10.0,-7.0,-27.0,-22.0,-31.0,-10.0,9.0,-1.0,-10.0,0.0
10.0,-12.0,-29.0,-19.0,-20.0,-23.0,-23.0,12.0,11.0,7.0,0.0
11.0,-10.0,24.0,-22.0,-2.0,-18.0,-43.0,0.0,0.0,11.0,0.0
10.0,-6.0,20.0,-27.0,12.0,-18.0,-43.0,-9.0,0.0,7.0,0.0
10.0,-11.0,-16.0,-29.0,13.0,-13.0,-70.0,-1.0,-8.0,5.0,0.0
6.0,-28.0,-110.0,-13.0,17.0,-5.0,-154.0,0.0,-5.0,-20.0,0.0
-3.0,-25.0,-129.0,5.0,24.0,-5.0,-241.0,1.0,-15.0,-27.0,0.0
3.0,-16.0,-65.0,8.0,22.0,-5.0,-283.0,-3.0,-17.0,-26.0,0.0
0.0,-12.0,49.0,12.0,23.0,3.0,-209.0,4.0,-12.0,-20.0,0.0
3.0,-4.0,80.0,23.0,15.0,17.0,-103.0,14.0,7.0,-22.0,0.0
-1.0,-7.0,75.0,23.0,17.0,24.0,-12.0,16.0,11.0,-27.0,0.0
0.0,-8.0,14.0,25.0,13.0,21.0,80.0,22.0,7.0,-26.0,0.0
7.0,-15.0,-7.0,29.0,-5.0,30.0,167.0,32.0,7.0,-17.0,0.0
2.0,-18.0,48.0,26.0,-9.0,32.0,263.0,35.0,6.0,-28.0,0.0
3.0,-12.0,50.0,17.0,-11.0,27.0,326.0,33.0,1.0,-28.0,0.0
0.0,-8.0,39.0,12.0,-22.0,7.0,354.0,30.0,-4.0,-16.0,0.0
-12.0,-6.0,27.0,1.0,-28.0,0.0,352.0,42.0,-8.0,-17.0,0.0
-19.0,-1.0,14.0,-14.0,-32.0,2.0,364.0,56.0,-1.0,-7.0,0.0
-16.0,-2.0,4.0,-26.0,-37.0,6.0,360.0,53.0,10.0,6.0,0.0
-13.0,-11.0,3.0,-15.0,-40.0,6.0,348.0,46.0,-3.0,9.0,0.0
-12.0,-14.0,5.0,-5.0,-42.0,4.0,324.0,46.0,-11.0,3.0,0.0
-18.0,-21.0,20.0,4.0,-23.0,5.0,273.0,24.0,-8.0,0.0,0.0
-15.0,-19.0,26.0,11.0,-7.0,0.0,171.0,11.0,-3.0,-3.0,0.0
-16.0,-16.0,34.0,21.0,6.0,3.0,72.0,-8.0,-15.0,-5.0,0.0
-9.0,-18.0,38.0,33.0,12.0,16.0,77.0,-13.0,-11.0,-18.0,0.0
-7.0,-24.0,28.0,52.0,30.0,17.0,156.0,-9.0,2.0,-14.0,0.0
-17.0,-22.0,22.0,53.0,37.0,23.0,223.0,-14.0,9.0,-12.0,0.0
-22.0,-18.0,27.0,53.0,41.0,27.0,281.0,-5.0,5.0,-6.0,0.0
-20.0,-13.0,23.0,32.0,43.0,32.0,341.0,0.0,4.0,-3.0,0.0
-17.0,-14.0,-13.0,19.0,36.0,17.0,386.0,0.0,0.0,-1.0,0.0
-3.0,-15.0,-137.0,6.0,18.0,14.0,435.0,1.0,10.0,7.0,0.0
-10.0,-14.0,-164.0,-49.0,-8.0,4.0,446.0,8.0,7.0,12.0,0.0
-9.0,-12.0,-77.0,-45.0,-35.0,-14.0,401.0,15.0,-2.0,4.0,0.0
5.0,-13.0,-5.0,-9.0,-31.0,-16.0,369.0,28.0,-14.0,2.0,0.0
-4.0,-22.0,-12.0,-5.0,-27.0,-13.0,328.0,47.0,-24.0,-15.0,0.0
-4.0,-9.0,-14.0,-6.0,-27.0,-9.0,301.0,57.0,-12.0,-11.0,0.0
-19.0,-3.0,-64.0,-7.0,-18.0,3.0,260.0,64.0,-2.0,4.0,0.0
-30.0,-7.0,-90.0,-9.0,-8.0,23.0,178.0,50.0,19.0,-8.0,0.0
-32.0,-20.0,-4.0,-17.0,6.0,38.0,55.0,4.0,-28.0,-42.0,0.0
-37.0,-41.0,31.0,-20.0,-21.0,-23.0,-44.0,-37.0,-104.0,-57.0,0.0
-3.0,-1.0,47.0,16.0,-7.0,7.0,31.0,-13.0,-2.0,6.0,0.0
2.0,11.0,51.0,25.0,1.0,29.0,98.0,-12.0,8.0,13.0,0.0
-10.0,7.0,47.0,10.0,14.0,25.0,173.0,-45.0,-28.0,-13.0,0.0
-13.0,9.0,27.0,13.0,3.0,23.0,246.0,-36.0,-28.0,-8.0,0.0
-6.0,9.0,7.0,9.0,-1.0,22.0,287.0,-16.0,-7.0,0.0,0.0
-10.0,8.0,-47.0,-7.0,-11.0,10.0,329.0,-11.0,-22.0,3.0,0.0
4.0,5.0,-30.0,-13.0,-13.0,-8.0,352.0,-6.0,-20.0,5.0,0.0
3.0,5.0,33.0,-19.0,-16.0,1.0,354.0,-4.0,-13.0,0.0,0.0
0.0,4.0,-5.0,-34.0,-15.0,8.0,327.0,10.0,-5.0,4.0,0.0
3.0,-6.0,-64.0,-37.0,-13.0,-4.0,310.0,10.0,20.0,16.0,0.0
17.0,0.0,-3.0,-28.0,-20.0,-8.0,299.0,14.0,17.0,20.0,0.0
13.0,-2.0,-80.0,-26.0,-22.0,-6.0,299.0,17.0,26.0,10.0,0.0
-1.0,-13.0,-40.0,-15.0,17.0,-4.0,224.0,22.0,16.0,2.0,0.0
-5.0,-19.0,32.0,14.0,44.0,6.0,111.0,6.0,7.0,-7.0,0.0
-7.0,-45.0,48.0,25.0,72.0,42.0,-19.0,-36.0,-54.0,-38.0,0.0
-17.0,-61.0,45.0,6.0,66.0,7.0,-106.0,-63.0,-131.0,-55.0,0.0
-8.0,-28.0,-25.0,24.0,55.0,38.0,22.0,2.0,-31.0,-1.0,0.0
-11.0,-10.0,-54.0,27.0,53.0,50.0,90.0,0.0,-1.0,0.0,0.0
-7.0,2.0,34.0,39.0,60.0,39.0,147.0,-13.0,17.0,23.0,0.0
10.0,15.0,44.0,31.0,63.0,28.0,204.0,-11.0,16.0,29.0,0.0
18.0,20.0,40.0,28.0,56.0,21.0,270.0,-17.0,17.0,17.0,0.0
13.0,18.0,23.0,23.0,50.0,11.0,306.0,-23.0,5.0,23.0,0.0
1.0,3.0,2.0,20.0,39.0,17.0,311.0,-28.0,-16.0,29.0,0.0
2.0,0.0,-16.0,7.0,34.0,11.0,284.0,-21.0,-26.0,7.0,0.0
15.0,14.0,3.0,-11.0,9.0,-33.0,262.0,-22.0,-9.0,9.0,0.0
28.0,20.0,20.0,-19.0,-13.0,-65.0,250.0,-16.0,-9.0,19.0,0.0
21.0,8.0,5.0,-26.0,-30.0,-66.0,226.0,-11.0,-8.0,23.0,0.0
31.0,1.0,1.0,-28.0,-37.0,-85.0,235.0,-31.0,-15.0,5.0,0.0
27.0,2.0,-3.0,-34.0,-18.0,-59.0,175.0,-11.0,15.0,20.0,0.0
22.0,5.0,-5.0,-15.0,6.0,-19.0,44.0,-12.0,23.0,11.0,0.0
1.0,-29.0,8.0,-22.0,10.0,-33.0,-103.0,-45.0,-49.0,-42.0,0.0
0.0,-16.0,13.0,-2.0,13.0,-20.0,-57.0,-16.0,-12.0,7.0,0.0
-1.0,-3.0,1.0,30.0,20.0,20.0,24.0,12.0,25.0,20.0,0.0
-16.0,-6.0,-43.0,30.0,37.0,37.0,82.0,21.0,10.0,7.0,0.0
-8.0,-14.0,-11.0,25.0,42.0,34.0,131.0,27.0,13.0,-1.0,0.0
-12.0,-18.0,-2.0,17.0,41.0,34.0,170.0,24.0,0.0,2.0,0.0
-13.0,-20.0,-6.0,15.0,34.0,9.0,207.0,19.0,4.0,14.0,0.0
-2.0,-21.0,-9.0,13.0,22.0,-9.0,212.0,18.0,-2.0,8.0,0.0
7.0,-10.0,-17.0,27.0,3.0,-24.0,183.0,18.0,-20.0,9.0,0.0
11.0,-13.0,-23.0,10.0,-9.0,-22.0,140.0,27.0,-11.0,20.0,0.0
32.0,-12.0,-21.0,-10.0,-9.0,-21.0,107.0,27.0,4.0,25.0,0.0
37.0,6.0,-18.0,-10.0,20.0,-16.0,114.0,13.0,36.0,23.0,0.0
31.0,17.0,-6.0,-13.0,18.0,-27.0,80.0,12.0,19.0,22.0,0.0
19.0,16.0,0.0,-17.0,-1.0,-30.0,-1.0,5.0,9.0,4.0,0.0
-26.0,-46.0,0.0,-51.0,-24.0,-70.0,-230.0,-69.0,-110.0,-77.0,0.0
-25.0,-62.0,-12.0,-45.0,-7.0,-86.0,-396.0,-76.0,-141.0,-70.0,0.0
15.0,12.0,-10.0,2.0,27.0,-9.0,-294.0,13.0,28.0,14.0,0.0
8.0,17.0,-11.0,20.0,23.0,0.0,-253.0,12.0,23.0,24.0,0.0
2.0,10.0,-2.0,38.0,14.0,11.0,-193.0,1.0,3.0,27.0,0.0
5.0,22.0,18.0,43.0,5.0,4.0,-113.0,-1.0,6.0,24.0,0.0
4.0,21.0,25.0,36.0,0.0,-13.0,-53.0,-3.0,16.0,28.0,0.0
2.0,22.0,8.0,22.0,-9.0,-12.0,-26.0,-6.0,18.0,22.0,0.0
7.0,19.0,-2.0,-1.0,-9.0,-12.0,-17.0,6.0,11.0,28.0,0.0
10.0,14.0,-8.0,-14.0,0.0,-26.0,-4.0,10.0,17.0,37.0,0.0
25.0,16.0,-21.0,2.0,5.0,-31.0,-27.0,15.0,27.0,32.0,0.0
22.0,21.0,-15.0,-14.0,-5.0,-19.0,-44.0,14.0,39.0,30.0,0.0
26.0,13.0,-10.0,-40.0,-11.0,-34.0,-71.0,19.0,34.0,26.0,0.0
-18.0,-10.0,-36.0,-48.0,-7.0,-47.0,-155.0,2.0,-17.0,-7.0,0.0
-10.0,-2.0,-124.0,-48.0,-7.0,-47.0,-179.0,3.0,-5.0,-6.0,0.0
-5.0,8.0,-189.0,-23.0,-6.0,-39.0,-222.0,0.0,5.0,-10.0,0.0
-15.0,-19.0,-107.0,-37.0,-14.0,-51.0,-396.0,-67.0,-64.0,-50.0,0.0
-1.0,-19.0,6.0,-37.0,-8.0,-71.0,-535.0,-84.0,-127.0,-45.0,0.0
42.0,33.0,-48.0,4.0,12.0,-23.0,-474.0,-21.0,-24.0,15.0,0.0
45.0,31.0,-92.0,14.0,13.0,1.0,-415.0,-8.0,-11.0,-4.0,0.0
36.0,18.0,13.0,22.0,22.0,17.0,-342.0,7.0,-6.0,-11.0,0.0
17.0,15.0,5.0,35.0,26.0,26.0,-291.0,12.0,-7.0,4.0,0.0
10.0,1.0,-14.0,26.0,27.0,16.0,-220.0,13.0,-2.0,7.0,0.0
5.0,0.0,23.0,29.0,34.0,16.0,-131.0,16.0,14.0,5.0,0.0
3.0,8.0,-2.0,22.0,26.0,20.0,-93.0,26.0,22.0,23.0,0.0
16.0,11.0,-21.0,-3.0,7.0,6.0,-96.0,19.0,20.0,3.0,0.0
19.0,5.0,2.0,-2.0,-1.0,3.0,-111.0,10.0,11.0,-9.0,0.0
12.0,-6.0,-15.0,-10.0,-15.0,-4.0,-127.0,13.0,3.0,2.0,0.0
21.0,-1.0,-5.0,-12.0,-14.0,-2.0,-154.0,10.0,31.0,23.0,0.0
21.0,36.0,27.0,-26.0,-14.0,-26.0,-220.0,1.0,28.0,11.0,0.0
12.0,16.0,12.0,-65.0,-28.0,-29.0,-273.0,10.0,16.0,-1.0,0.0
1.0,-13.0,4.0,-68.0,-21.0,-12.0,-384.0,0.0,15.0,0.0,0.0
-12.0,-41.0,21.0,-48.0,-10.0,-40.0,-550.0,-34.0,-47.0,-20.0,0.0
22.0,-5.0,27.0,-18.0,0.0,-20.0,-557.0,7.0,4.0,0.0,0.0
32.0,10.0,42.0,13.0,15.0,13.0,-519.0,23.0,47.0,-9.0,0.0
21.0,8.0,43.0,46.0,31.0,38.0,-471.0,11.0,20.0,-22.0,0.0
9.0,4.0,32.0,51.0,46.0,38.0,-402.0,-19.0,3.0,-25.0,0.0
5.0,12.0,26.0,50.0,51.0,36.0,-355.0,-25.0,-1.0,-26.0,0.0
2.0,7.0,31.0,40.0,46.0,31.0,-302.0,-20.0,-8.0,-26.0,0.0
-11.0,16.0,33.0,13.0,11.0,10.0,-263.0,-11.0,2.0,-21.0,0.0
10.0,14.0,35.0,-3.0,-27.0,-24.0,-256.0,-7.0,20.0,-15.0,0.0
19.0,12.0,9.0,-19.0,-49.0,-41.0,-277.0,-3.0,37.0,-18.0,0.0
19.0,16.0,-10.0,-23.0,-57.0,-33.0,-317.0,8.0,17.0,-10.0,0.0
12.0,9.0,-11.0,-40.0,-33.0,-39.0,-354.0,-18.0,-14.0,-4.0,0.0
2.0,23.0,-13.0,-31.0,-13.0,-23.0,-376.0,8.0,30.0,11.0,0.0
-8.0,11.0,-7.0,-31.0,-10.0,-13.0,-402.0,-9.0,23.0,14.0,0.0
-39.0,-34.0,-60.0,-57.0,-15.0,-42.0,-523.0,-71.0,-110.0,-46.0,0.0
-30.0,-8.0,-96.0,-39.0,-14.0,-22.0,-596.0,-27.0,-75.0,-35.0,0.0
-5.0,13.0,2.0,-12.0,2.0,17.0,-616.0,19.0,-6.0,11.0,0.0
-7.0,5.0,16.0,4.0,16.0,39.0,-632.0,21.0,21.0,13.0,0.0
7.0,6.0,22.0,30.0,28.0,39.0,-583.0,20.0,29.0,5.0,0.0
13.0,18.0,44.0,40.0,23.0,17.0,-536.0,15.0,45.0,23.0,0.0
5.0,13.0,46.0,30.0,18.0,18.0,-489.0,13.0,26.0,17.0,0.0
8.0,2.0,48.0,44.0,26.0,28.0,-392.0,12.0,17.0,0.0,0.0
10.0,4.0,45.0,40.0,8.0,11.0,-337.0,22.0,17.0,-11.0,0.0
7.0,8.0,32.0,23.0,0.0,-3.0,-320.0,28.0,39.0,-8.0,0.0
11.0,16.0,13.0,8.0,-6.0,-6.0,-294.0,22.0,39.0,-8.0,0.0
26.0,2.0,-10.0,-19.0,-24.0,0.0,-301.0,34.0,27.0,-8.0,0.0
22.0,-2.0,-18.0,-41.0,-29.0,-10.0,-309.0,30.0,25.0,-12.0,0.0
17.0,4.0,-18.0,-33.0,-27.0,-18.0,-313.0,22.0,24.0,0.0,0.0
12.0,4.0,-16.0,-18.0,-19.0,-21.0,-320.0,6.0,25.0,12.0,0.0
6.0,8.0,-7.0,-3.0,-18.0,-21.0,-317.0,-6.0,8.0,9.0,0.0
13.0,5.0,8.0,-1.0,-17.0,-8.0,-341.0,1.0,20.0,2.0,0.0
6.0,-7.0,5.0,8.0,-3.0,10.0,-386.0,10.0,15.0,7.0,0.0
0.0,-6.0,1.0,29.0,4.0,14.0,-464.0,17.0,19.0,1.0,0.0
-4.0,-4.0,3.0,25.0,0.0,17.0,-539.0,16.0,0.0,2.0,0.0
3.0,6.0,5.0,24.0,-1.0,30.0,-483.0,7.0,-3.0,-4.0,0.0
-8.0,10.0,8.0,32.0,10.0,33.0,-404.0,5.0,-7.0,-5.0,0.0
-26.0,0.0,19.0,25.0,9.0,27.0,-337.0,-7.0,-8.0,-10.0,0.0
-12.0,9.0,14.0,30.0,4.0,20.0,-278.0,-28.0,-14.0,-18.0,0.0
-4.0,14.0,10.0,30.0,-2.0,16.0,-183.0,-21.0,-16.0,-15.0,0.0
9.0,10.0,-1.0,24.0,7.0,4.0,-103.0,-5.0,-8.0,-13.0,0.0
0.0,3.0,-2.0,15.0,16.0,-7.0,-55.0,13.0,0.0,-13.0,0.0
-9.0,4.0,-9.0,14.0,10.0,-13.0,-37.0,20.0,9.0,-15.0,0.0
3.0,9.0,-83.0,6.0,8.0,-16.0,-40.0,16.0,8.0,-15.0,0.0
16.0,17.0,-157.0,-7.0,-4.0,-29.0,-35.0,16.0,24.0,-5.0,0.0
5.0,10.0,-82.0,-27.0,1.0,-36.0,-31.0,13.0,2.0,-7.0,0.0
-5.0,-4.0,-28.0,-35.0,-3.0,-30.0,-45.0,25.0,11.0,-14.0,0.0
-1.0,-9.0,-26.0,-25.0,2.0,-36.0,-63.0,24.0,-3.0,-5.0,0.0
-10.0,-10.0,-24.0,-9.0,19.0,-24.0,-104.0,13.0,-5.0,-12.0,0.0
-5.0,-11.0,-13.0,12.0,20.0,-7.0,-197.0,1.0,-10.0,-17.0,0.0
0.0,-25.0,0.0,20.0,32.0,19.0,-254.0,-1.0,-4.0,-25.0,0.0
-8.0,-22.0,3.0,29.0,54.0,35.0,-226.0,-8.0,-15.0,-19.0,0.0
-11.0,-21.0,17.0,30.0,64.0,48.0,-149.0,-13.0,-28.0,-24.0,0.0
-2.0,-10.0,23.0,43.0,57.0,38.0,-85.0,-16.0,-37.0,-19.0,0.0
9.0,5.0,29.0,39.0,35.0,1.0,-29.0,-16.0,-26.0,4.0,0.0
12.0,10.0,21.0,39.0,22.0,-14.0,56.0,-15.0,-16.0,28.0,0.0
3.0,2.0,12.0,31.0,16.0,-14.0,154.0,-12.0,-1.0,21.0,0.0
-5.0,-7.0,-43.0,14.0,8.0,-23.0,215.0,0.0,5.0,10.0,0.0
-5.0,-9.0,-97.0,7.0,-5.0,-19.0,240.0,11.0,40.0,-3.0,0.0
-10.0,-9.0,-12.0,2.0,-16.0,-25.0,231.0,7.0,28.0,-5.0,0.0
-2.0,-14.0,-3.0,-7.0,-21.0,-38.0,213.0,8.0,20.0,0.0,0.0
18.0,-24.0,-30.0,-10.0,-22.0,-28.0,231.0,6.0,10.0,13.0,0.0
28.0,-29.0,-121.0,-22.0,-27.0,-31.0,231.0,12.0,4.0,26.0,0.0
19.0,-13.0,-91.0,-27.0,-29.0,-36.0,216.0,12.0,1.0,23.0,0.0
-2.0,-7.0,20.0,-18.0,-21.0,-26.0,176.0,16.0,8.0,9.0,0.0
-9.0,-17.0,33.0,-6.0,-3.0,-15.0,96.0,21.0,6.0,2.0,0.0
-11.0,-11.0,27.0,7.0,10.0,9.0,3.0,22.0,8.0,-5.0,0.0
-8.0,-1.0,26.0,3.0,16.0,28.0,-72.0,6.0,-7.0,-7.0,0.0
8.0,-1.0,46.0,10.0,19.0,27.0,-36.0,1.0,3.0,14.0,0.0
16.0,-12.0,64.0,19.0,31.0,28.0,37.0,2.0,-3.0,31.0,0.0
9.0,-10.0,48.0,17.0,35.0,44.0,106.0,-10.0,-7.0,7.0,0.0
0.0,-19.0,-53.0,13.0,13.0,31.0,161.0,-26.0,-33.0,1.0,0.0
0.0,-23.0,-128.0,10.0,14.0,30.0,240.0,-22.0,-27.0,1.0,0.0
6.0,-17.0,-87.0,16.0,21.0,42.0,299.0,-6.0,3.0,-1.0,0.0
-2.0,-15.0,28.0,16.0,15.0,31.0,317.0,5.0,6.0,9.0,0.0
-11.0,-9.0,52.0,-4.0,7.0,2.0,322.0,-3.0,6.0,14.0,0.0
-5.0,6.0,0.0,-19.0,-14.0,-7.0,299.0,-13.0,1.0,10.0,0.0
-7.0,12.0,-108.0,-14.0,-32.0,-6.0,270.0,-22.0,-3.0,22.0,0.0
2.0,15.0,-99.0,-23.0,-31.0,-14.0,277.0,-13.0,-5.0,16.0,0.0
2.0,16.0,3.0,-20.0,-18.0,-22.0,272.0,-2.0,26.0,13.0,0.0
-15.0,9.0,42.0,-17.0,-1.0,-19.0,258.0,-4.0,19.0,24.0,0.0
-9.0,10.0,4.0,-4.0,-3.0,-2.0,218.0,-12.0,2.0,18.0,0.0
0.0,3.0,2.0,1.0,-5.0,5.0,126.0,-10.0,-9.0,10.0,0.0
-1.0,3.0,54.0,6.0,7.0,10.0,50.0,-19.0,16.0,14.0,0.0
4.0,7.0,48.0,25.0,27.0,17.0,19.0,-13.0,5.0,8.0,0.0
-1.0,16.0,-48.0,36.0,42.0,23.0,58.0,1.0,25.0,0.0,0.0
1.0,4.0,-16.0,31.0,25.0,29.0,113.0,-1.0,-9.0,6.0,0.0
-3.0,-8.0,61.0,25.0,15.0,44.0,164.0,-15.0,-33.0,6.0,0.0
-13.0,-15.0,49.0,16.0,23.0,52.0,203.0,-19.0,-45.0,-8.0,0.0
-21.0,-19.0,40.0,3.0,29.0,65.0,273.0,3.0,-38.0,-10.0,0.0
-42.0,-22.0,41.0,0.0,11.0,64.0,350.0,19.0,-13.0,-1.0,0.0
-14.0,-16.0,30.0,9.0,8.0,44.0,392.0,23.0,3.0,12.0,0.0
9.0,-12.0,22.0,-5.0,-19.0,0.0,369.0,14.0,-4.0,12.0,0.0
19.0,4.0,30.0,-12.0,-52.0,-56.0,315.0,6.0,-3.0,33.0,0.0
21.0,-4.0,58.0,-7.0,-45.0,-61.0,281.0,8.0,-21.0,32.0,0.0
15.0,-15.0,37.0,-22.0,-50.0,-45.0,244.0,17.0,-12.0,17.0,0.0
5.0,-21.0,-55.0,-48.0,-64.0,-34.0,216.0,25.0,-10.0,6.0,0.0
1.0,-21.0,-37.0,-66.0,-58.0,-27.0,192.0,23.0,-4.0,9.0,0.0
3.0,-7.0,11.0,-40.0,-33.0,-17.0,129.0,20.0,11.0,12.0,0.0
7.0,-2.0,45.0,-13.0,-24.0,-11.0,19.0,0.0,1.0,5.0,0.0
11.0,3.0,45.0,4.0,-20.0,-11.0,-71.0,-12.0,-5.0,10.0,0.0
5.0,6.0,34.0,6.0,-6.0,5.0,-64.0,6.0,-2.0,16.0,0.0
4.0,0.0,44.0,14.0,0.0,25.0,26.0,25.0,3.0,15.0,0.0
5.0,-2.0,42.0,24.0,4.0,28.0,99.0,29.0,16.0,19.0,0.0
0.0,-6.0,39.0,27.0,7.0,29.0,142.0,27.0,27.0,19.0,0.0
2.0,-13.0,39.0,23.0,5.0,39.0,176.0,20.0,25.0,5.0,0.0
3.0,-3.0,23.0,13.0,4.0,34.0,221.0,10.0,24.0,5.0,0.0
-15.0,7.0,13.0,-4.0,-7.0,20.0,240.0,-5.0,9.0,3.0,0.0
-10.0,2.0,15.0,-13.0,0.0,7.0,242.0,-4.0,11.0,-9.0,0.0
3.0,-9.0,7.0,-31.0,0.0,-6.0,208.0,-6.0,1.0,-13.0,0.0
9.0,-10.0,-13.0,-38.0,-13.0,-14.0,169.0,-9.0,-6.0,-7.0,0.0
3.0,-11.0,-47.0,-31.0,-13.0,0.0,137.0,-16.0,-14.0,-16.0,0.0
9.0,-6.0,-44.0,-34.0,-18.0,1.0,124.0,-31.0,-26.0,-21.0,0.0
9.0,-2.0,15.0,-31.0,-16.0,7.0,125.0,-26.0,-27.0,-30.0,0.0
9.0,7.0,23.0,-21.0,-35.0,3.0,118.0,-13.0,-3.0,-12.0,0.0
13.0,22.0,24.0,-18.0,-42.0,-20.0,38.0,0.0,8.0,15.0,0.0
20.0,30.0,24.0,-9.0,-38.0,-46.0,-65.0,5.0,23.0,16.0,0.0
13.0,26.0,27.0,4.0,-19.0,-31.0,-120.0,12.0,23.0,5.0,0.0
9.0,22.0,39.0,15.0,0.0,5.0,-87.0,13.0,3.0,9.0,0.0
4.0,8.0,34.0,28.0,16.0,42.0,-57.0,22.0,1.0,-8.0,0.0
-15.0,-8.0,9.0,13.0,30.0,46.0,-21.0,27.0,-12.0,-24.0,0.0
-26.0,-6.0,-2.0,6.0,24.0,50.0,44.0,26.0,-1.0,-29.0,0.0
-28.0,6.0,3.0,2.0,11.0,32.0,123.0,18.0,0.0,-27.0,0.0
-6.0,12.0,21.0,4.0,-4.0,4.0,193.0,19.0,2.0,-9.0,0.0
14.0,18.0,21.0,-5.0,-16.0,-23.0,188.0,8.0,8.0,20.0,0.0
22.0,17.0,20.0,-28.0,-22.0,-29.0,156.0,-3.0,-2.0,9.0,0.0
11.0,13.0,8.0,-24.0,-26.0,-24.0,122.0,0.0,26.0,15.0,0.0
-2.0,7.0,-10.0,-36.0,-42.0,-25.0,87.0,21.0,32.0,19.0,0.0
-1.0,12.0,-31.0,-36.0,-60.0,-18.0,64.0,18.0,24.0,14.0,0.0
-10.0,2.0,-62.0,-52.0,-52.0,-11.0,29.0,11.0,7.0,4.0,0.0
-7.0,-5.0,-146.0,-54.0,-51.0,-4.0,-2.0,21.0,9.0,-7.0,0.0
0.0,0.0,-102.0,-35.0,-45.0,-4.0,-69.0,20.0,18.0,-2.0,0.0
-5.0,3.0,-9.0,-21.0,-28.0,5.0,-185.0,3.0,-6.0,4.0,0.0
-17.0,1.0,19.0,0.0,0.0,26.0,-308.0,-8.0,-16.0,-2.0,0.0
-17.0,4.0,31.0,13.0,15.0,40.0,-325.0,-4.0,-9.0,-12.0,0.0
-7.0,14.0,33.0,32.0,23.0,43.0,-251.0,-18.0,-29.0,-4.0,0.0
3.0,13.0,42.0,39.0,29.0,40.0,-165.0,-41.0,-31.0,-1.0,0.0
11.0,15.0,40.0,46.0,24.0,35.0,-84.0,-41.0,1.0,6.0,0.0
17.0,24.0,40.0,24.0,22.0,32.0,-18.0,-28.0,16.0,15.0,0.0
11.0,22.0,27.0,2.0,34.0,36.0,58.0,-18.0,14.0,3.0,0.0
3.0,2.0,14.0,-8.0,35.0,32.0,85.0,-15.0,15.0,-15.0,0.0
9.0,-3.0,16.0,-15.0,17.0,10.0,69.0,-22.0,-2.0,-23.0,0.0
15.0,-5.0,5.0,-28.0,-2.0,4.0,40.0,-21.0,-12.0,-10.0,0.0
6.0,-1.0,-4.0,-38.0,-29.0,-23.0,8.0,-17.0,-4.0,5.0,0.0
0.0,-7.0,-31.0,-45.0,-40.0,-38.0,-6.0,-2.0,-4.0,1.0,0.0
0.0,-14.0,-61.0,-42.0,-27.0,-37.0,-29.0,8.0,14.0,1.0,0.0
3.0,-15.0,-24.0,-45.0,-27.0,-39.0,-51.0,10.0,14.0,7.0,0.0
-5.0,-21.0,-7.0,-32.0,-17.0,-8.0,-76.0,20.0,20.0,-4.0,0.0
-23.0,-21.0,2.0,-19.0,4.0,18.0,-149.0,19.0,2.0,-20.0,0.0
-32.0,-23.0,0.0,8.0,-4.0,29.0,-320.0,2.0,16.0,-23.0,0.0
-26.0,-6.0,17.0,11.0,-12.0,7.0,-308.0,-15.0,6.0,-22.0,0.0
-22.0,-12.0,40.0,8.0,-16.0,-26.0,-283.0,-55.0,-22.0,-51.0,0.0
-49.0,-61.0,21.0,-20.0,-23.0,-58.0,-312.0,-105.0,-134.0,-104.0,0.0
-22.0,-32.0,2.0,5.0,-10.0,5.0,-188.0,-43.0,-51.0,-36.0,0.0
-10.0,-12.0,-45.0,17.0,-9.0,20.0,-81.0,-10.0,-2.0,0.0,0.0
-11.0,-2.0,-43.0,20.0,2.0,16.0,-19.0,0.0,9.0,8.0,0.0
-3.0,11.0,-70.0,8.0,3.0,15.0,20.0,3.0,-4.0,0.0,0.0
0.0,-8.0,-166.0,11.0,3.0,1.0,26.0,7.0,14.0,-5.0,0.0
3.0,-17.0,-186.0,2.0,-8.0,-18.0,-11.0,14.0,5.0,-10.0,0.0
6.0,-9.0,-135.0,-24.0,-35.0,-42.0,-60.0,7.0,0.0,2.0,0.0
0.0,3.0,-33.0,-23.0,-34.0,-44.0,-60.0,-1.0,3.0,9.0,0.0
13.0,2.0,27.0,-20.0,-21.0,-37.0,-69.0,-6.0,-6.0,3.0,0.0
7.0,-2.0,35.0,-18.0,-19.0,-29.0,-102.0,-9.0,-5.0,-4.0,0.0
0.0,-11.0,-27.0,-11.0,-20.0,-11.0,-137.0,-4.0,-6.0,-9.0,0.0
1.0,-8.0,-41.0,-2.0,-27.0,7.0,-220.0,-8.0,-4.0,-1.0,0.0
11.0,2.0,17.0,-1.0,-5.0,15.0,-327.0,-8.0,-4.0,4.0,0.0
-14.0,8.0,7.0,13.0,23.0,31.0,-354.0,-3.0,10.0,19.0,0.0
-11.0,3.0,54.0,21.0,22.0,37.0,-270.0,-4.0,-3.0,14.0,0.0
-9.0,-10.0,57.0,6.0,31.0,40.0,-191.0,-11.0,2.0,10.0,0.0
-21.0,-47.0,50.0,-32.0,20.0,-9.0,-209.0,-65.0,-86.0,-48.0,0.0
-17.0,-69.0,40.0,-30.0,11.0,-32.0,-185.0,-58.0,-129.0,-67.0,0.0
5.0,-14.0,24.0,9.0,18.0,12.0,-10.0,14.0,13.0,-4.0,0.0
-10.0,-4.0,30.0,11.0,17.0,22.0,15.0,21.0,8.0,0.0,0.0
-10.0,-4.0,33.0,-1.0,22.0,13.0,-54.0,14.0,3.0,-8.0,0.0
-15.0,-2.0,31.0,-18.0,20.0,7.0,-109.0,7.0,37.0,-10.0,0.0
-29.0,-5.0,-10.0,-15.0,12.0,8.0,-120.0,4.0,39.0,2.0,0.0
-24.0,3.0,-40.0,-8.0,6.0,15.0,-115.0,12.0,38.0,5.0,0.0
-15.0,10.0,15.0,-10.0,7.0,16.0,-121.0,6.0,33.0,7.0,0.0
-22.0,0.0,15.0,-8.0,12.0,15.0,-138.0,7.0,24.0,6.0,0.0
-38.0,-8.0,13.0,-6.0,14.0,6.0,-195.0,3.0,22.0,1.0,0.0
-32.0,-16.0,13.0,8.0,18.0,10.0,-291.0,-7.0,7.0,-9.0,0.0
-15.0,1.0,18.0,14.0,26.0,23.0,-361.0,-13.0,4.0,-7.0,0.0
-4.0,17.0,24.0,19.0,22.0,23.0,-353.0,-21.0,6.0,-2.0,0.0
6.0,14.0,34.0,24.0,32.0,44.0,-285.0,-26.0,11.0,0.0,0.0
12.0,7.0,34.0,25.0,29.0,32.0,-209.0,-17.0,1.0,-9.0,0.0
14.0,-8.0,24.0,28.0,25.0,33.0,-131.0,-21.0,-13.0,-8.0,0.0
5.0,-10.0,14.0,29.0,26.0,48.0,-19.0,-16.0,11.0,-5.0,0.0
14.0,-5.0,-40.0,25.0,26.0,48.0,80.0,-15.0,17.0,-7.0,0.0
29.0,10.0,-68.0,24.0,17.0,28.0,93.0,-14.0,14.0,-4.0,0.0
41.0,20.0,19.0,12.0,6.0,13.0,96.0,-8.0,5.0,4.0,0.0
33.0,22.0,32.0,-3.0,-2.0,-17.0,97.0,-8.0,12.0,-3.0,0.0
22.0,22.0,31.0,-15.0,2.0,-17.0,73.0,-6.0,7.0,0.0,0.0
27.0,25.0,27.0,-27.0,0.0,-20.0,62.0,-10.0,15.0,-7.0,0.0
18.0,23.0,32.0,-29.0,-8.0,-35.0,70.0,-10.0,2.0,3.0,0.0
19.0,14.0,17.0,-29.0,-10.0,-29.0,60.0,-8.0,-13.0,17.0,0.0
8.0,11.0,8.0,-21.0,-12.0,-10.0,39.0,-2.0,-19.0,20.0,0.0
-6.0,15.0,9.0,3.0,-9.0,-5.0,-24.0,-10.0,-8.0,8.0,0.0
4.0,11.0,-13.0,25.0,10.0,4.0,-101.0,-15.0,6.0,4.0,0.0
2.0,7.0,-108.0,38.0,20.0,29.0,-133.0,-17.0,7.0,-2.0,0.0
13.0,4.0,-40.0,33.0,35.0,55.0,-69.0,-20.0,2.0,-14.0,0.0
5.0,3.0,43.0,33.0,54.0,69.0,26.0,-14.0,-8.0,-25.0,0.0
-18.0,-3.0,56.0,39.0,63.0,67.0,95.0,-18.0,-24.0,-22.0,0.0
-14.0,-7.0,65.0,28.0,47.0,62.0,152.0,-33.0,-35.0,-7.0,0.0
-7.0,-2.0,61.0,22.0,14.0,29.0,235.0,-37.0,-26.0,-2.0,0.0
-5.0,4.0,1.0,27.0,-27.0,-12.0,299.0,-23.0,-13.0,0.0,0.0
4.0,10.0,10.0,21.0,-42.0,-23.0,344.0,-16.0,-7.0,5.0,0.0
9.0,16.0,40.0,-8.0,-26.0,-15.0,348.0,-15.0,9.0,-1.0,0.0
4.0,5.0,22.0,-20.0,-15.0,-18.0,315.0,-10.0,-3.0,0.0,0.0
-5.0,-6.0,6.0,-20.0,-19.0,-22.0,296.0,6.0,-1.0,1.0,0.0
6.0,-10.0,7.0,-18.0,-18.0,-32.0,277.0,4.0,16.0,3.0,0.0
13.0,-2.0,25.0,-7.0,-33.0,-37.0,278.0,-6.0,26.0,7.0,0.0
10.0,1.0,29.0,-6.0,-26.0,-23.0,310.0,0.0,26.0,1.0,0.0
-5.0,-12.0,19.0,-24.0,-7.0,-8.0,284.0,-1.0,19.0,2.0,0.0
-28.0,-28.0,23.0,-17.0,-2.0,-23.0,192.0,-2.0,12.0,9.0,0.0
-34.0,-14.0,33.0,0.0,8.0,-21.0,105.0,0.0,9.0,10.0,0.0
-35.0,-7.0,31.0,9.0,29.0,6.0,91.0,5.0,-3.0,8.0,0.0
-53.0,-12.0,33.0,29.0,50.0,11.0,123.0,9.0,-4.0,-5.0,0.0
-54.0,-14.0,21.0,53.0,61.0,18.0,191.0,10.0,-9.0,-20.0,0.0
-45.0,-11.0,13.0,56.0,52.0,30.0,247.0,11.0,-12.0,-23.0,0.0
-44.0,9.0,23.0,51.0,36.0,22.0,296.0,0.0,-8.0,-25.0,0.0
-38.0,18.0,48.0,45.0,30.0,0.0,379.0,-12.0,-16.0,-15.0,0.0
-12.0,21.0,51.0,24.0,8.0,0.0,446.0,-11.0,-1.0,0.0,0.0
-22.0,3.0,23.0,1.0,1.0,17.0,470.0,-4.0,10.0,-1.0,0.0
-26.0,5.0,9.0,-18.0,-16.0,19.0,444.0,-6.0,8.0,0.0,0.0
-7.0,17.0,17.0,-15.0,-38.0,-14.0,435.0,-1.0,26.0,18.0,0.0
3.0,19.0,12.0,-19.0,-57.0,-56.0,402.0,10.0,24.0,35.0,0.0
-4.0,6.0,5.0,-31.0,-67.0,-82.0,381.0,11.0,12.0,32.0,0.0
-2.0,8.0,23.0,-27.0,-58.0,-57.0,347.0,10.0,10.0,31.0,0.0
11.0,9.0,23.0,-8.0,-49.0,-44.0,303.0,-3.0,-1.0,33.0,0.0
2.0,7.0,14.0,-7.0,-35.0,-40.0,218.0,-7.0,-17.0,19.0,0.0
-10.0,3.0,7.0,-2.0,-17.0,-30.0,92.0,1.0,-29.0,2.0,0.0
-20.0,-7.0,-3.0,6.0,-8.0,-21.0,23.0,-6.0,-37.0,-14.0,0.0
-28.0,-10.0,-95.0,23.0,-11.0,-10.0,39.0,-16.0,-37.0,-12.0,0.0
-29.0,-11.0,-70.0,35.0,-2.0,8.0,64.0,-22.0,-38.0,-6.0,0.0
-15.0,-19.0,46.0,35.0,4.0,18.0,112.0,-21.0,-32.0,1.0,0.0
-9.0,-7.0,54.0,12.0,8.0,27.0,191.0,-15.0,-22.0,24.0,0.0
-14.0,-2.0,47.0,2.0,-5.0,24.0,248.0,-9.0,-15.0,16.0,0.0
-7.0,-10.0,39.0,-6.0,-11.0,19.0,299.0,-3.0,-2.0,-2.0,0.0
3.0,-28.0,24.0,-5.0,-16.0,0.0,332.0,8.0,10.0,6.0,0.0
-18.0,-18.0,26.0,-22.0,-23.0,-19.0,324.0,22.0,11.0,19.0,0.0
-4.0,-12.0,13.0,-37.0,-31.0,-32.0,269.0,25.0,5.0,18.0,0.0
-6.0,-18.0,-19.0,-30.0,-30.0,-35.0,196.0,31.0,-3.0,19.0,0.0
-16.0,-24.0,-20.0,-43.0,-28.0,-38.0,137.0,29.0,0.0,13.0,0.0
-17.0,-20.0,-8.0,-41.0,-22.0,-38.0,121.0,16.0,-7.0,11.0,0.0
-14.0,-14.0,-3.0,-35.0,-16.0,-32.0,82.0,10.0,-15.0,5.0,0.0
7.0,-11.0,11.0,-25.0,-6.0,-35.0,26.0,9.0,-12.0,-2.0,0.0
16.0,-4.0,26.0,-8.0,-16.0,-37.0,-49.0,3.0,-12.0,10.0,0.0
16.0,-8.0,35.0,10.0,-18.0,0.0,-151.0,6.0,-11.0,24.0,0.0
11.0,-5.0,22.0,12.0,-1.0,18.0,-204.0,15.0,-11.0,15.0,0.0
9.0,1.0,7.0,21.0,5.0,18.0,-158.0,20.0,-3.0,13.0,0.0
5.0,0.0,36.0,31.0,6.0,21.0,-107.0,23.0,-6.0,7.0,0.0
-3.0,4.0,21.0,16.0,2.0,29.0,-73.0,23.0,-23.0,-9.0,0.0
-4.0,-6.0,-7.0,3.0,-6.0,21.0,-21.0,13.0,-26.0,-13.0,0.0
-2.0,-20.0,-37.0,14.0,-10.0,19.0,37.0,17.0,-10.0,-14.0,0.0
-4.0,-23.0,-138.0,17.0,-6.0,7.0,61.0,16.0,-6.0,-12.0,0.0
-1.0,-14.0,-107.0,1.0,-5.0,-1.0,62.0,11.0,-21.0,2.0,0.0
-1.0,-2.0,-15.0,-10.0,-7.0,-12.0,55.0,5.0,-7.0,10.0,0.0
8.0,6.0,1.0,2.0,-19.0,-21.0,46.0,6.0,-7.0,7.0,0.0
18.0,0.0,13.0,-11.0,-34.0,-22.0,55.0,5.0,0.0,17.0,0.0
29.0,8.0,8.0,-35.0,-42.0,-22.0,51.0,5.0,25.0,21.0,0.0
38.0,19.0,10.0,-27.0,-43.0,-16.0,35.0,8.0,33.0,18.0,0.0
45.0,12.0,15.0,-10.0,-25.0,-4.0,4.0,4.0,17.0,19.0,0.0
45.0,4.0,14.0,-5.0,-12.0,-14.0,-84.0,-4.0,5.0,19.0,0.0
39.0,1.0,20.0,17.0,9.0,-8.0,-200.0,-5.0,-11.0,26.0,0.0
30.0,2.0,37.0,15.0,17.0,7.0,-268.0,7.0,-6.0,19.0,0.0
15.0,-2.0,31.0,27.0,17.0,20.0,-250.0,11.0,6.0,17.0,0.0
1.0,2.0,27.0,44.0,35.0,29.0,-204.0,11.0,0.0,-14.0,0.0
0.0,0.0,35.0,47.0,43.0,45.0,-158.0,2.0,-8.0,-16.0,0.0
-7.0,-4.0,29.0,49.0,47.0,48.0,-119.0,0.0,3.0,-5.0,0.0
-13.0,-19.0,19.0,48.0,44.0,48.0,-72.0,1.0,6.0,-16.0,0.0
-2.0,-26.0,22.0,62.0,43.0,23.0,-6.0,4.0,6.0,-25.0,0.0
-1.0,-21.0,15.0,48.0,43.0,-1.0,28.0,7.0,14.0,-20.0,0.0
10.0,-13.0,10.0,29.0,7.0,-34.0,50.0,7.0,18.0,6.0,0.0
37.0,15.0,17.0,-5.0,-50.0,-70.0,12.0,-1.0,25.0,28.0,0.0
38.0,24.0,-5.0,-43.0,-79.0,-59.0,-50.0,-3.0,12.0,40.0,0.0
20.0,4.0,-37.0,-87.0,-73.0,-1.0,-86.0,15.0,22.0,13.0,0.0
25.0,-7.0,-35.0,-91.0,-75.0,13.0,-109.0,20.0,14.0,7.0,0.0
24.0,1.0,-11.0,-63.0,-50.0,2.0,-97.0,21.0,1.0,-3.0,0.0
8.0,12.0,-6.0,-46.0,-15.0,-6.0,-112.0,26.0,-8.0,-13.0,0.0
1.0,14.0,-9.0,-23.0,2.0,-22.0,-183.0,24.0,-11.0,-18.0,0.0
11.0,22.0,10.0,-12.0,-3.0,-28.0,-258.0,17.0,-10.0,6.0,0.0
6.0,13.0,26.0,-2.0,-8.0,-18.0,-294.0,12.0,-16.0,15.0,0.0
-12.0,7.0,19.0,0.0,3.0,-8.0,-241.0,3.0,-29.0,-3.0,0.0
-14.0,4.0,-15.0,0.0,14.0,-1.0,-166.0,-9.0,-38.0,-22.0,0.0
-6.0,14.0,-113.0,6.0,23.0,3.0,-108.0,-19.0,-22.0,-4.0,0.0
-11.0,9.0,-120.0,11.0,16.0,4.0,-52.0,5.0,-19.0,8.0,0.0
-17.0,5.0,-23.0,11.0,1.0,-11.0,8.0,24.0,-21.0,-1.0,0.0
-20.0,-8.0,25.0,0.0,0.0,-7.0,53.0,18.0,-10.0,3.0,0.0
-23.0,-9.0,21.0,-1.0,0.0,0.0,66.0,6.0,-2.0,7.0,0.0
-13.0,-3.0,-5.0,-7.0,-6.0,-13.0,24.0,6.0,-2.0,2.0,0.0
-13.0,2.0,-80.0,-35.0,-17.0,-34.0,-14.0,4.0,-1.0,-13.0,0.0
-12.0,13.0,-41.0,-42.0,-13.0,-51.0,-41.0,12.0,3.0,-1.0,0.0
-2.0,7.0,-2.0,-46.0,0.0,-43.0,-52.0,17.0,2.0,8.0,0.0
1.0,-6.0,-1.0,-36.0,0.0,-38.0,-50.0,3.0,10.0,-6.0,0.0
-4.0,-12.0,-4.0,-21.0,-2.0,-28.0,-56.0,-4.0,28.0,-19.0,0.0
-1.0,-12.0,3.0,-13.0,3.0,-9.0,-101.0,-7.0,17.0,-15.0,0.0
-15.0,-1.0,10.0,-15.0,18.0,5.0,-194.0,7.0,15.0,-17.0,0.0
-17.0,-3.0,20.0,-7.0,23.0,6.0,-252.0,18.0,21.0,-24.0,0.0
-14.0,-9.0,19.0,7.0,26.0,31.0,-265.0,23.0,22.0,-30.0,0.0
-17.0,-15.0,12.0,24.0,30.0,55.0,-189.0,20.0,23.0,-26.0,0.0
-10.0,-11.0,14.0,22.0,37.0,52.0,-105.0,-1.0,6.0,-17.0,0.0
-2.0,-5.0,24.0,16.0,24.0,60.0,-35.0,3.0,-7.0,-15.0,0.0
9.0,-9.0,19.0,16.0,17.0,50.0,33.0,-1.0,-18.0,-24.0,0.0
2.0,-17.0,10.0,22.0,12.0,37.0,110.0,-2.0,-21.0,-25.0,0.0
-1.0,-8.0,7.0,9.0,-1.0,13.0,165.0,-11.0,-16.0,-13.0,0.0
12.0,12.0,-6.0,-13.0,-19.0,-24.0,200.0,-13.0,-11.0,-12.0,0.0
34.0,12.0,-14.0,-13.0,-28.0,-43.0,211.0,-20.0,-2.0,-12.0,0.0
28.0,4.0,-13.0,-13.0,-38.0,-31.0,183.0,-9.0,-5.0,-5.0,0.0
8.0,14.0,-22.0,-8.0,-27.0,-26.0,182.0,4.0,-6.0,-10.0,0.0
2.0,0.0,-31.0,-21.0,-10.0,-17.0,202.0,14.0,7.0,-21.0,0.0
-19.0,-9.0,-26.0,-37.0,-15.0,-14.0,206.0,12.0,5.0,-16.0,0.0
-24.0,-3.0,-21.0,-16.0,-14.0,-6.0,181.0,1.0,-2.0,-13.0,0.0
-12.0,-15.0,-29.0,-12.0,1.0,15.0,99.0,-8.0,4.0,-20.0,0.0
0.0,-22.0,-28.0,4.0,18.0,26.0,16.0,-14.0,-5.0,-9.0,0.0
-9.0,-20.0,-16.0,24.0,15.0,26.0,-13.0,-22.0,-24.0,0.0,0.0
-11.0,-12.0,-4.0,26.0,19.0,35.0,21.0,-19.0,-29.0,-2.0,0.0
-15.0,-15.0,-6.0,34.0,19.0,21.0,91.0,0.0,-20.0,-4.0,0.0
-3.0,-8.0,-63.0,45.0,11.0,5.0,157.0,0.0,8.0,0.0,0.0
1.0,-6.0,-45.0,55.0,1.0,-6.0,204.0,4.0,22.0,6.0,0.0
-4.0,-8.0,15.0,42.0,3.0,-4.0,256.0,6.0,6.0,-2.0,0.0
0.0,-3.0,-88.0,25.0,0.0,-3.0,315.0,-2.0,6.0,8.0,0.0
4.0,15.0,-119.0,17.0,-8.0,-16.0,329.0,-12.0,-2.0,26.0,0.0
8.0,23.0,-24.0,15.0,-18.0,-37.0,309.0,-24.0,1.0,30.0,0.0
33.0,30.0,-71.0,2.0,-25.0,-37.0,286.0,-24.0,5.0,23.0,0.0
40.0,25.0,-67.0,-24.0,-28.0,-43.0,244.0,-9.0,18.0,28.0,0.0
32.0,5.0,24.0,-27.0,-19.0,-36.0,204.0,-4.0,32.0,30.0,0.0
22.0,0.0,34.0,-14.0,-6.0,-23.0,184.0,-9.0,18.0,35.0,0.0
13.0,-3.0,49.0,-6.0,1.0,-7.0,157.0,-10.0,5.0,17.0,0.0
18.0,0.0,47.0,-5.0,-2.0,1.0,89.0,-13.0,2.0,3.0,0.0
11.0,5.0,44.0,-8.0,-1.0,1.0,-12.0,-10.0,-4.0,6.0,0.0
0.0,0.0,44.0,-17.0,19.0,7.0,-121.0,-8.0,-7.0,4.0,0.0
-8.0,-3.0,34.0,-10.0,25.0,20.0,-167.0,-15.0,-23.0,-4.0,0.0
-2.0,-6.0,23.0,10.0,10.0,32.0,-121.0,-23.0,-18.0,-8.0,0.0
-4.0,-2.0,40.0,23.0,7.0,31.0,-39.0,-20.0,-4.0,-5.0,0.0
-1.0,2.0,-17.0,17.0,5.0,35.0,31.0,-24.0,-3.0,-11.0,0.0
-7.0,6.0,-87.0,2.0,-12.0,20.0,88.0,-23.0,8.0,-14.0,0.0
-9.0,0.0,7.0,-8.0,-10.0,10.0,142.0,-14.0,9.0,-17.0,0.0
-6.0,-6.0,34.0,-5.0,-10.0,14.0,165.0,-6.0,-4.0,-17.0,0.0
11.0,-12.0,26.0,-12.0,-10.0,1.0,153.0,0.0,10.0,-11.0,0.0
4.0,-7.0,28.0,-13.0,-7.0,-12.0,117.0,-3.0,2.0,-9.0,0.0
12.0,-10.0,18.0,-24.0,-10.0,-8.0,44.0,0.0,10.0,-12.0,0.0
10.0,-6.0,1.0,-40.0,-15.0,8.0,-32.0,-2.0,2.0,-12.0,0.0
9.0,-1.0,3.0,-40.0,-12.0,17.0,-48.0,0.0,-13.0,-16.0,0.0
11.0,-8.0,5.0,-34.0,-7.0,24.0,-46.0,16.0,-6.0,-13.0,0.0
17.0,-12.0,11.0,-22.0,-19.0,11.0,-74.0,15.0,-5.0,-9.0,0.0
15.0,-2.0,3.0,-16.0,-19.0,0.0,-134.0,6.0,-13.0,17.0,0.0
14.0,2.0,3.0,-11.0,-29.0,8.0,-227.0,6.0,-15.0,38.0,0.0
17.0,6.0,26.0,-3.0,-15.0,18.0,-285.0,2.0,-10.0,10.0,0.0
26.0,8.0,48.0,19.0,-2.0,4.0,-269.0,-2.0,0.0,17.0,0.0
26.0,26.0,51.0,42.0,5.0,8.0,-180.0,-2.0,-2.0,20.0,0.0
23.0,20.0,-1.0,37.0,8.0,7.0,-93.0,-18.0,-13.0,13.0,0.0
15.0,10.0,-119.0,25.0,13.0,-4.0,-55.0,-39.0,-12.0,-1.0,0.0
0.0,6.0,-105.0,11.0,15.0,-11.0,-3.0,-37.0,-18.0,-18.0,0.0
0.0,-2.0,8.0,11.0,17.0,4.0,65.0,-9.0,-15.0,-14.0,0.0
3.0,-3.0,20.0,18.0,29.0,7.0,98.0,-8.0,-19.0,-7.0,0.0
0.0,-1.0,14.0,1.0,23.0,-1.0,106.0,-19.0,-28.0,-9.0,0.0
0.0,-2.0,15.0,0.0,11.0,-12.0,94.0,-22.0,-20.0,-6.0,0.0
-4.0,-6.0,11.0,-8.0,4.0,-21.0,68.0,-12.0,-23.0,3.0,0.0
6.0,13.0,13.0,-30.0,5.0,-29.0,59.0,6.0,-13.0,22.0,0.0
17.0,24.0,23.0,-40.0,9.0,-20.0,40.0,13.0,-4.0,18.0,0.0
20.0,31.0,30.0,-23.0,1.0,-20.0,27.0,11.0,13.0,34.0,0.0
0.0,13.0,16.0,-15.0,1.0,-1.0,3.0,13.0,8.0,26.0,0.0
-7.0,-4.0,-4.0,-14.0,2.0,13.0,-62.0,7.0,0.0,10.0,0.0
-1.0,-2.0,-52.0,6.0,9.0,22.0,-159.0,-3.0,-9.0,-18.0,0.0
-12.0,9.0,-70.0,4.0,18.0,29.0,-213.0,-14.0,-22.0,-15.0,0.0
-13.0,12.0,33.0,10.0,14.0,35.0,-170.0,-21.0,-21.0,-2.0,0.0
-18.0,5.0,51.0,20.0,11.0,45.0,-102.0,-20.0,-22.0,-4.0,0.0
-14.0,5.0,40.0,17.0,-1.0,48.0,-54.0,-32.0,-28.0,-6.0,0.0
-6.0,17.0,0.0,11.0,0.0,33.0,6.0,-29.0,-26.0,2.0,0.0
4.0,24.0,43.0,6.0,4.0,18.0,75.0,-26.0,-21.0,14.0,0.0
4.0,30.0,51.0,-2.0,0.0,0.0,132.0,-24.0,-22.0,24.0,0.0
-4.0,26.0,34.0,-20.0,2.0,-2.0,101.0,-28.0,-11.0,4.0,0.0
-3.0,22.0,-4.0,-12.0,0.0,-5.0,77.0,-18.0,-5.0,-5.0,0.0
13.0,21.0,-111.0,-10.0,-13.0,-23.0,65.0,-10.0,-8.0,-9.0,0.0
15.0,17.0,-125.0,-28.0,-18.0,-36.0,9.0,-5.0,-2.0,6.0,0.0
13.0,7.0,-28.0,-41.0,-19.0,-25.0,-45.0,4.0,-4.0,10.0,0.0
7.0,7.0,8.0,-43.0,-4.0,-11.0,-78.0,13.0,-8.0,-4.0,0.0
-1.0,-2.0,-16.0,-38.0,12.0,-15.0,-99.0,25.0,3.0,-13.0,0.0
-7.0,7.0,5.0,-22.0,14.0,-11.0,-137.0,23.0,19.0,0.0,0.0
-11.0,11.0,26.0,-17.0,23.0,-4.0,-228.0,17.0,8.0,19.0,0.0
-2.0,18.0,44.0,11.0,31.0,3.0,-300.0,12.0,3.0,7.0,0.0
8.0,21.0,51.0,24.0,38.0,16.0,-304.0,7.0,16.0,1.0,0.0
-1.0,22.0,53.0,34.0,47.0,35.0,-224.0,-2.0,22.0,5.0,0.0
-11.0,30.0,60.0,54.0,49.0,43.0,-164.0,-15.0,8.0,9.0,0.0
-1.0,47.0,61.0,62.0,28.0,36.0,-127.0,-22.0,-2.0,4.0,0.0
12.0,38.0,53.0,54.0,8.0,5.0,-82.0,-31.0,-10.0,8.0,0.0
14.0,27.0,41.0,22.0,8.0,-1.0,-12.0,-21.0,-13.0,10.0,0.0
7.0,23.0,32.0,8.0,4.0,10.0,6.0,6.0,-8.0,13.0,0.0
7.0,24.0,19.0,-10.0,-13.0,-6.0,-3.0,11.0,-17.0,1.0,0.0
6.0,13.0,-61.0,-14.0,-17.0,-17.0,12.0,13.0,-7.0,7.0,0.0
3.0,0.0,-74.0,-9.0,-14.0,-17.0,2.0,18.0,6.0,12.0,0.0
-3.0,0.0,-4.0,-11.0,-6.0,-14.0,-11.0,20.0,14.0,2.0,0.0
-3.0,-4.0,2.0,-8.0,-6.0,-20.0,-27.0,17.0,22.0,3.0,0.0
1.0,4.0,-2.0,-6.0,-3.0,-6.0,-56.0,17.0,11.0,1.0,0.0
1.0,14.0,1.0,-17.0,5.0,-3.0,-77.0,24.0,21.0,4.0,0.0
6.0,16.0,-28.0,2.0,10.0,-7.0,-145.0,34.0,20.0,4.0,0.0
8.0,19.0,-112.0,14.0,8.0,3.0,-258.0,35.0,11.0,15.0,0.0
-4.0,17.0,-131.0,20.0,23.0,21.0,-318.0,32.0,32.0,3.0,0.0
-12.0,5.0,-152.0,35.0,41.0,30.0,-298.0,21.0,23.0,-4.0,0.0
-35.0,7.0,-57.0,40.0,37.0,35.0,-233.0,9.0,17.0,5.0,0.0
-33.0,10.0,40.0,41.0,22.0,27.0,-175.0,2.0,4.0,10.0,0.0
4.0,28.0,51.0,43.0,23.0,18.0,-95.0,2.0,-2.0,9.0,0.0
21.0,28.0,53.0,39.0,21.0,0.0,-20.0,-7.0,8.0,21.0,0.0
23.0,21.0,35.0,26.0,11.0,3.0,25.0,0.0,14.0,16.0,0.0
17.0,17.0,21.0,14.0,3.0,18.0,44.0,14.0,15.0,16.0,0.0
19.0,9.0,23.0,5.0,20.0,23.0,43.0,6.0,27.0,8.0,0.0
8.0,-8.0,25.0,10.0,46.0,35.0,2.0,5.0,0.0,0.0,0.0
2.0,-1.0,21.0,2.0,40.0,28.0,-24.0,5.0,-19.0,0.0,0.0
9.0,1.0,10.0,3.0,11.0,8.0,-39.0,-6.0,-18.0,-7.0,0.0
12.0,3.0,23.0,-5.0,-23.0,-31.0,-55.0,10.0,-5.0,0.0,0.0
18.0,16.0,41.0,-10.0,-62.0,-51.0,-54.0,22.0,6.0,17.0,0.0
25.0,21.0,20.0,-19.0,-59.0,-28.0,-86.0,32.0,-3.0,26.0,0.0
14.0,1.0,-9.0,-38.0,-37.0,26.0,-183.0,39.0,3.0,22.0,0.0
8.0,-1.0,-2.0,-34.0,-24.0,59.0,-276.0,32.0,22.0,10.0,0.0
-6.0,0.0,0.0,-17.0,-9.0,71.0,-282.0,12.0,7.0,-2.0,0.0
-8.0,-7.0,-6.0,4.0,3.0,64.0,-236.0,-2.0,6.0,7.0,0.0
13.0,6.0,5.0,22.0,-10.0,20.0,-161.0,3.0,25.0,13.0,0.0
18.0,16.0,32.0,21.0,-18.0,-29.0,-110.0,8.0,13.0,2.0,0.0
21.0,20.0,20.0,25.0,-23.0,-33.0,-68.0,4.0,13.0,12.0,0.0
12.0,7.0,-4.0,12.0,-16.0,-9.0,-28.0,0.0,4.0,6.0,0.0
-7.0,-3.0,12.0,1.0,-8.0,2.0,12.0,9.0,9.0,5.0,0.0
-8.0,-8.0,-3.0,-11.0,-7.0,-2.0,10.0,7.0,13.0,1.0,0.0
-9.0,-6.0,-39.0,-27.0,-24.0,-24.0,-17.0,9.0,0.0,3.0,0.0
-1.0,16.0,-21.0,-28.0,-26.0,-35.0,-34.0,28.0,15.0,7.0,0.0
5.0,25.0,-48.0,-26.0,-17.0,-35.0,-38.0,31.0,15.0,22.0,0.0
7.0,7.0,-62.0,-22.0,-31.0,-41.0,-90.0,25.0,13.0,17.0,0.0
2.0,6.0,-11.0,-28.0,-33.0,-44.0,-128.0,23.0,-8.0,12.0,0.0
-3.0,3.0,-28.0,-23.0,-35.0,-42.0,-160.0,1.0,-27.0,15.0,0.0
-7.0,3.0,0.0,-7.0,-25.0,-25.0,-250.0,-20.0,-29.0,18.0,0.0
-2.0,5.0,26.0,19.0,-11.0,-10.0,-316.0,-21.0,-30.0,10.0,0.0
2.0,1.0,45.0,43.0,0.0,-7.0,-340.0,-9.0,-34.0,3.0,0.0
-5.0,-14.0,35.0,35.0,4.0,-9.0,-316.0,-5.0,-43.0,-8.0,0.0
-6.0,-19.0,34.0,43.0,24.0,-2.0,-264.0,-9.0,-43.0,-1.0,0.0
-9.0,-15.0,25.0,50.0,42.0,15.0,-187.0,-16.0,-27.0,4.0,0.0
-8.0,-23.0,27.0,45.0,38.0,11.0,-111.0,-17.0,-12.0,11.0,0.0
-4.0,-15.0,36.0,40.0,28.0,14.0,-31.0,-4.0,-4.0,15.0,0.0
-14.0,-15.0,22.0,26.0,24.0,25.0,14.0,-1.0,-5.0,5.0,0.0
-14.0,-15.0,-1.0,5.0,3.0,17.0,49.0,-8.0,-9.0,6.0,0.0
-5.0,-18.0,-15.0,1.0,-16.0,-3.0,73.0,-9.0,-20.0,3.0,0.0
-10.0,-14.0,-16.0,1.0,-13.0,-25.0,55.0,1.0,-29.0,2.0,0.0
-10.0,-13.0,-16.0,-13.0,-15.0,-26.0,18.0,5.0,-15.0,-4.0,0.0
-14.0,-19.0,-17.0,-15.0,-32.0,-13.0,-27.0,11.0,-2.0,1.0,0.0
-16.0,-33.0,-13.0,-24.0,-34.0,-11.0,-72.0,8.0,-15.0,-2.0,0.0
-26.0,-33.0,-5.0,-18.0,-21.0,-13.0,-60.0,4.0,-15.0,0.0,0.0
-30.0,-26.0,-1.0,-13.0,-14.0,0.0,-70.0,-2.0,-19.0,0.0,0.0
-36.0,-21.0,14.0,3.0,-11.0,24.0,-145.0,-6.0,-19.0,0.0,0.0
-42.0,-4.0,28.0,2.0,-18.0,34.0,-230.0,0.0,-4.0,-9.0,0.0
-30.0,-3.0,31.0,-4.0,-16.0,37.0,-258.0,-5.0,-10.0,-6.0,0.0
-19.0,-9.0,29.0,-5.0,-9.0,36.0,-196.0,-13.0,-14.0,4.0,0.0
-18.0,-10.0,30.0,-1.0,-2.0,32.0,-135.0,-4.0,-17.0,0.0,0.0
-22.0,-19.0,22.0,8.0,8.0,30.0,-75.0,-5.0,-15.0,0.0,0.0
-35.0,-19.0,24.0,23.0,16.0,26.0,-21.0,-3.0,-2.0,-13.0,0.0
-31.0,-13.0,29.0,20.0,13.0,13.0,51.0,-4.0,-2.0,-2.0,0.0
-17.0,-14.0,28.0,7.0,3.0,-12.0,118.0,-1.0,-2.0,9.0,0.0
-15.0,-13.0,25.0,7.0,-12.0,-31.0,142.0,8.0,2.0,11.0,0.0
-11.0,-4.0,20.0,-4.0,-7.0,-38.0,132.0,11.0,6.0,1.0,0.0
-8.0,0.0,4.0,-11.0,2.0,-36.0,110.0,17.0,9.0,3.0,0.0
6.0,0.0,2.0,-2.0,-1.0,-28.0,96.0,31.0,20.0,3.0,0.0
4.0,-5.0,-5.0,-16.0,-10.0,-10.0,83.0,37.0,38.0,3.0,0.0
-10.0,-5.0,-18.0,-29.0,-24.0,3.0,68.0,42.0,16.0,0.0,0.0
-15.0,-24.0,-21.0,-32.0,-21.0,9.0,46.0,38.0,-8.0,-3.0,0.0
-19.0,-21.0,-9.0,-25.0,-33.0,-15.0,-18.0,23.0,-10.0,-15.0,0.0
-18.0,-8.0,1.0,-22.0,-37.0,-25.0,-126.0,18.0,-8.0,-9.0,0.0
-17.0,-15.0,18.0,-14.0,-20.0,-21.0,-178.0,9.0,-8.0,-1.0,0.0
-17.0,-17.0,19.0,8.0,-9.0,-13.0,-168.0,0.0,-7.0,6.0,0.0
-7.0,-15.0,21.0,24.0,9.0,6.0,-116.0,0.0,-14.0,-1.0,0.0
-5.0,-16.0,22.0,34.0,20.0,17.0,-25.0,-4.0,-19.0,0.0,0.0
-7.0,-17.0,-51.0,18.0,25.0,24.0,9.0,-11.0,-12.0,-15.0,0.0
-15.0,-25.0,-133.0,7.0,19.0,53.0,33.0,-13.0,-2.0,-28.0,0.0
-13.0,-27.0,-40.0,10.0,16.0,71.0,88.0,-6.0,0.0,-37.0,0.0
-7.0,-8.0,13.0,1.0,13.0,39.0,123.0,4.0,7.0,-26.0,0.0
8.0,-2.0,19.0,-18.0,-17.0,-14.0,122.0,8.0,20.0,0.0,0.0
17.0,-4.0,0.0,-30.0,-29.0,-32.0,91.0,17.0,18.0,2.0,0.0
19.0,-16.0,-24.0,-48.0,-41.0,-34.0,70.0,30.0,4.0,-7.0,0.0
4.0,-14.0,-34.0,-60.0,-47.0,-30.0,56.0,27.0,-2.0,-2.0,0.0
4.0,-11.0,-66.0,-57.0,-43.0,-24.0,13.0,21.0,4.0,-3.0,0.0
4.0,-14.0,-166.0,-52.0,-19.0,-14.0,-29.0,13.0,9.0,-21.0,0.0
3.0,-17.0,-117.0,-23.0,-3.0,-2.0,-61.0,18.0,11.0,-11.0,0.0
10.0,-3.0,4.0,-3.0,3.0,8.0,-119.0,11.0,17.0,-10.0,0.0
17.0,1.0,16.0,2.0,20.0,6.0,-191.0,-9.0,7.0,-11.0,0.0
26.0,-5.0,25.0,-1.0,33.0,9.0,-211.0,-29.0,0.0,-1.0,0.0
24.0,-3.0,28.0,7.0,30.0,21.0,-169.0,-26.0,-3.0,7.0,0.0
17.0,-11.0,42.0,22.0,32.0,28.0,-88.0,-22.0,-18.0,5.0,0.0
16.0,-9.0,46.0,27.0,31.0,30.0,-7.0,-19.0,-29.0,4.0,0.0
17.0,-6.0,44.0,27.0,29.0,25.0,31.0,-27.0,-20.0,-3.0,0.0
18.0,-6.0,38.0,17.0,30.0,23.0,73.0,-19.0,-28.0,-2.0,0.0
18.0,0.0,15.0,3.0,25.0,14.0,138.0,-8.0,-26.0,-4.0,0.0
20.0,2.0,-7.0,1.0,30.0,7.0,175.0,-1.0,-4.0,-9.0,0.0
16.0,2.0,1.0,2.0,37.0,-1.0,181.0,-8.0,4.0,-7.0,0.0
15.0,8.0,7.0,-3.0,24.0,4.0,165.0,-9.0,-1.0,2.0,0.0
17.0,7.0,6.0,-29.0,10.0,5.0,165.0,16.0,5.0,-2.0,0.0
26.0,6.0,10.0,-37.0,-21.0,-21.0,160.0,22.0,17.0,2.0,0.0
24.0,16.0,20.0,-38.0,-39.0,-47.0,153.0,14.0,20.0,4.0,0.0
28.0,14.0,4.0,-36.0,-37.0,-41.0,150.0,17.0,10.0,-4.0,0.0
26.0,14.0,-4.0,-21.0,-42.0,-23.0,123.0,23.0,6.0,-10.0,0.0
18.0,19.0,8.0,-11.0,-30.0,-5.0,36.0,14.0,12.0,-15.0,0.0
33.0,17.0,16.0,7.0,-5.0,19.0,-48.0,12.0,17.0,-13.0,0.0
33.0,1.0,-3.0,4.0,16.0,32.0,-65.0,10.0,7.0,-21.0,0.0
22.0,-7.0,-70.0,18.0,18.0,53.0,6.0,14.0,12.0,-18.0,0.0
21.0,-12.0,-57.0,27.0,22.0,63.0,86.0,14.0,6.0,-20.0,0.0
21.0,-2.0,-19.0,32.0,13.0,38.0,169.0,14.0,0.0,-11.0,0.0
40.0,37.0,2.0,28.0,-5.0,8.0,255.0,30.0,28.0,10.0,0.0
40.0,43.0,-73.0,29.0,0.0,-4.0,329.0,47.0,33.0,0.0,0.0
27.0,37.0,-114.0,17.0,11.0,-1.0,357.0,45.0,26.0,-11.0,0.0
27.0,20.0,-50.0,0.0,4.0,-1.0,347.0,23.0,9.0,23.0,0.0
29.0,16.0,-132.0,5.0,4.0,2.0,335.0,15.0,-15.0,22.0,0.0
13.0,21.0,-113.0,0.0,-7.0,-10.0,295.0,17.0,-23.0,-11.0,0.0
14.0,28.0,4.0,1.0,-18.0,-11.0,247.0,26.0,-8.0,-21.0,0.0
0.0,18.0,41.0,1.0,-12.0,-8.0,220.0,26.0,0.0,-8.0,0.0
-8.0,25.0,53.0,-17.0,-26.0,-27.0,207.0,11.0,-2.0,-2.0,0.0
-13.0,26.0,31.0,-30.0,-52.0,-34.0,198.0,8.0,2.0,-5.0,0.0
-2.0,13.0,16.0,-34.0,-53.0,-17.0,135.0,19.0,1.0,7.0,0.0
1.0,18.0,36.0,-9.0,-9.0,3.0,53.0,7.0,9.0,2.0,0.0
2.0,16.0,55.0,17.0,26.0,26.0,-9.0,9.0,5.0,-11.0,0.0
4.0,2.0,55.0,23.0,42.0,42.0,0.0,1.0,0.0,-18.0,0.0
-12.0,-12.0,6.0,30.0,49.0,60.0,58.0,-17.0,-8.0,-28.0,0.0
-11.0,-16.0,-30.0,31.0,41.0,51.0,122.0,-27.0,-3.0,-27.0,0.0
-31.0,-14.0,35.0,19.0,35.0,44.0,159.0,-25.0,6.0,-34.0,0.0
-47.0,-3.0,55.0,14.0,19.0,20.0,165.0,-17.0,13.0,-27.0,0.0
-18.0,20.0,43.0,1.0,-16.0,-30.0,204.0,-5.0,7.0,-16.0,0.0
9.0,27.0,25.0,-1.0,-30.0,-54.0,233.0,7.0,19.0,-5.0,0.0
16.0,10.0,14.0,-18.0,-26.0,-41.0,217.0,12.0,23.0,3.0,0.0
0.0,7.0,5.0,-27.0,-22.0,-29.0,195.0,19.0,9.0,6.0,0.0
-9.0,15.0,5.0,-19.0,-20.0,-30.0,181.0,22.0,7.0,-8.0,0.0
-8.0,9.0,-22.0,-31.0,-15.0,-29.0,189.0,23.0,19.0,-14.0,0.0
-10.0,3.0,-65.0,-34.0,-13.0,-28.0,167.0,21.0,38.0,-12.0,0.0
0.0,6.0,-12.0,-25.0,6.0,-13.0,138.0,25.0,32.0,-7.0,0.0
4.0,15.0,16.0,0.0,17.0,8.0,94.0,20.0,12.0,-13.0,0.0
0.0,22.0,21.0,11.0,21.0,34.0,-7.0,-4.0,3.0,-8.0,0.0
3.0,12.0,12.0,17.0,38.0,54.0,-113.0,-5.0,0.0,-7.0,0.0
-6.0,3.0,14.0,26.0,48.0,52.0,-178.0,-8.0,8.0,-2.0,0.0
-17.0,4.0,19.0,17.0,35.0,34.0,-150.0,3.0,9.0,0.0,0.0
-3.0,10.0,26.0,26.0,21.0,5.0,-69.0,-8.0,7.0,0.0,0.0
10.0,28.0,26.0,25.0,21.0,-6.0,1.0,-25.0,-7.0,9.0,0.0
7.0,32.0,-61.0,15.0,24.0,2.0,58.0,-26.0,-9.0,9.0,0.0
-4.0,24.0,-91.0,2.0,16.0,6.0,108.0,-4.0,-16.0,11.0,0.0
-11.0,11.0,-6.0,-15.0,0.0,-5.0,131.0,7.0,-8.0,16.0,0.0
-13.0,8.0,0.0,-3.0,2.0,-9.0,137.0,11.0,7.0,5.0,0.0
-5.0,1.0,-47.0,-7.0,-1.0,-12.0,104.0,13.0,5.0,0.0,0.0
4.0,6.0,-18.0,-21.0,-9.0,-31.0,35.0,14.0,12.0,-13.0,0.0
1.0,14.0,17.0,-26.0,-17.0,-42.0,-15.0,10.0,13.0,-20.0,0.0
-1.0,11.0,-4.0,-34.0,-15.0,-42.0,-52.0,20.0,1.0,-12.0,0.0
-3.0,0.0,-50.0,-44.0,-6.0,-34.0,-72.0,9.0,-6.0,-16.0,0.0
-5.0,-9.0,-15.0,-44.0,-13.0,-36.0,-81.0,1.0,9.0,-10.0,0.0
1.0,-1.0,9.0,-29.0,-13.0,-40.0,-125.0,2.0,5.0,8.0,0.0
3.0,8.0,22.0,2.0,12.0,-44.0,-218.0,-2.0,-16.0,0.0,0.0
0.0,11.0,36.0,30.0,31.0,-30.0,-312.0,-9.0,-30.0,-9.0,0.0
-17.0,9.0,42.0,33.0,56.0,-10.0,-323.0,-19.0,-28.0,-3.0,0.0
-23.0,7.0,44.0,33.0,72.0,0.0,-278.0,-15.0,-25.0,-7.0,0.0
-20.0,6.0,46.0,32.0,70.0,29.0,-187.0,-19.0,-27.0,-12.0,0.0
-11.0,14.0,-2.0,30.0,50.0,61.0,-114.0,-18.0,-23.0,-10.0,0.0
-4.0,28.0,-53.0,12.0,38.0,50.0,-47.0,-7.0,-4.0,-2.0,0.0
-7.0,19.0,8.0,-9.0,15.0,40.0,24.0,8.0,7.0,-4.0,0.0
-5.0,3.0,29.0,-29.0,16.0,31.0,36.0,6.0,5.0,-9.0,0.0
4.0,0.0,37.0,-22.0,22.0,27.0,13.0,-2.0,-1.0,-10.0,0.0
6.0,7.0,21.0,-30.0,11.0,14.0,-10.0,0.0,0.0,-9.0,0.0
0.0,17.0,3.0,-38.0,-9.0,1.0,-13.0,6.0,-9.0,3.0,0.0
2.0,24.0,-5.0,-49.0,-11.0,-15.0,-5.0,4.0,-15.0,4.0,0.0
-2.0,10.0,-3.0,-36.0,0.0,-11.0,-11.0,-5.0,-14.0,-2.0,0.0
3.0,13.0,20.0,-25.0,20.0,3.0,-19.0,-3.0,-14.0,-12.0,0.0
-17.0,5.0,-11.0,-26.0,22.0,6.0,-57.0,3.0,4.0,-17.0,0.0
-10.0,8.0,4.0,-23.0,15.0,7.0,-135.0,0.0,14.0,-22.0,0.0
7.0,15.0,31.0,1.0,-2.0,6.0,-216.0,-1.0,9.0,-8.0,0.0
9.0,16.0,43.0,4.0,-1.0,16.0,-268.0,7.0,2.0,0.0,0.0
12.0,13.0,35.0,2.0,8.0,19.0,-207.0,11.0,11.0,1.0,0.0
11.0,7.0,-27.0,-3.0,-3.0,18.0,-135.0,19.0,14.0,-5.0,0.0
0.0,0.0,-116.0,8.0,-3.0,15.0,-112.0,11.0,-3.0,-14.0,0.0
-9.0,1.0,-87.0,21.0,7.0,18.0,-76.0,4.0,-16.0,-15.0,0.0
2.0,16.0,4.0,21.0,13.0,12.0,-9.0,-23.0,-13.0,-5.0,0.0
10.0,22.0,51.0,20.0,7.0,-6.0,41.0,-30.0,-4.0,-3.0,0.0
16.0,22.0,33.0,16.0,-6.0,-24.0,74.0,-10.0,1.0,4.0,0.0
5.0,13.0,31.0,16.0,-4.0,-39.0,84.0,7.0,21.0,5.0,0.0
7.0,10.0,18.0,3.0,-20.0,-49.0,76.0,11.0,20.0,4.0,0.0
2.0,8.0,4.0,-12.0,-33.0,-54.0,57.0,7.0,15.0,7.0,0.0
-5.0,8.0,-2.0,-13.0,-28.0,-48.0,74.0,-1.0,20.0,7.0,0.0
-3.0,0.0,8.0,-6.0,-14.0,-39.0,92.0,-1.0,15.0,0.0,0.0
-6.0,-1.0,16.0,2.0,-2.0,-35.0,75.0,-4.0,24.0,14.0,0.0
-14.0,-10.0,8.0,-2.0,14.0,-29.0,42.0,-2.0,42.0,19.0,0.0
-13.0,-20.0,18.0,0.0,25.0,-16.0,-29.0,2.0,39.0,7.0,0.0
-8.0,-24.0,30.0,15.0,18.0,-9.0,-113.0,-8.0,20.0,-3.0,0.0
-7.0,-24.0,30.0,20.0,23.0,-6.0,-122.0,-26.0,10.0,1.0,0.0
-19.0,-31.0,-44.0,31.0,27.0,6.0,-58.0,-36.0,-7.0,-4.0,0.0
-10.0,-16.0,-108.0,29.0,26.0,13.0,3.0,-25.0,-16.0,-10.0,0.0
-23.0,-8.0,1.0,33.0,30.0,9.0,73.0,-15.0,0.0,0.0,0.0
-23.0,1.0,46.0,41.0,26.0,11.0,140.0,-24.0,2.0,15.0,0.0
-17.0,-5.0,39.0,38.0,20.0,10.0,198.0,-35.0,2.0,24.0,0.0
-14.0,-8.0,21.0,19.0,1.0,-7.0,238.0,-29.0,23.0,10.0,0.0
0.0,0.0,12.0,-1.0,-14.0,-24.0,209.0,-6.0,28.0,9.0,0.0
-5.0,7.0,-26.0,-3.0,-31.0,-44.0,170.0,7.0,34.0,12.0,0.0
-21.0,-1.0,-125.0,1.0,-38.0,-44.0,132.0,12.0,26.0,13.0,0.0
-8.0,-11.0,-54.0,1.0,-37.0,-54.0,103.0,20.0,28.0,5.0,0.0
-16.0,-14.0,3.0,-7.0,-18.0,-53.0,66.0,9.0,30.0,-1.0,0.0
-19.0,-8.0,10.0,-2.0,-13.0,-49.0,43.0,-3.0,32.0,-1.0,0.0
-18.0,-11.0,11.0,-2.0,-17.0,-33.0,18.0,-8.0,22.0,-6.0,0.0
-26.0,-24.0,1.0,-6.0,-22.0,-1.0,-44.0,4.0,28.0,-5.0,0.0
-28.0,-42.0,-14.0,-11.0,-17.0,31.0,-150.0,4.0,16.0,-12.0,0.0
-22.0,-41.0,-25.0,5.0,-20.0,50.0,-223.0,-2.0,12.0,-16.0,0.0
-15.0,-33.0,-68.0,38.0,1.0,60.0,-192.0,-5.0,0.0,-15.0,0.0
-18.0,-34.0,-11.0,36.0,5.0,67.0,-125.0,-21.0,-11.0,-7.0,0.0
-4.0,-25.0,22.0,38.0,4.0,53.0,-54.0,-18.0,0.0,-10.0,0.0
12.0,-11.0,45.0,29.0,-10.0,29.0,-1.0,-9.0,-4.0,0.0,0.0
13.0,1.0,45.0,26.0,-35.0,-1.0,48.0,-25.0,-6.0,0.0,0.0
0.0,-7.0,20.0,7.0,-44.0,-6.0,103.0,-22.0,-11.0,1.0,0.0
-9.0,-20.0,3.0,-7.0,-53.0,-11.0,133.0,-7.0,-2.0,3.0,0.0
-9.0,-10.0,-51.0,-15.0,-68.0,-17.0,116.0,0.0,11.0,8.0,0.0
8.0,10.0,-51.0,-18.0,-68.0,-27.0,80.0,-11.0,10.0,9.0,0.0
15.0,16.0,9.0,-17.0,-63.0,-24.0,59.0,-15.0,18.0,21.0,0.0
20.0,15.0,16.0,-24.0,-52.0,-7.0,25.0,8.0,11.0,23.0,0.0
1.0,0.0,3.0,-36.0,-41.0,-10.0,-2.0,20.0,13.0,14.0,0.0
-16.0,-11.0,-56.0,-30.0,-39.0,-28.0,-4.0,5.0,10.0,0.0,0.0
-28.0,-15.0,-107.0,-16.0,-33.0,-13.0,-47.0,1.0,7.0,-2.0,0.0
-26.0,-16.0,-25.0,13.0,-24.0,4.0,-154.0,-9.0,-11.0,-5.0,0.0
-31.0,-18.0,24.0,20.0,-10.0,10.0,-278.0,-10.0,-20.0,-2.0,0.0
-14.0,-22.0,24.0,8.0,0.0,16.0,-291.0,-18.0,-12.0,-11.0,0.0
-10.0,-33.0,18.0,27.0,19.0,30.0,-236.0,-23.0,-17.0,-20.0,0.0
-25.0,-30.0,-19.0,28.0,24.0,50.0,-175.0,-22.0,-6.0,-14.0,0.0
-23.0,-8.0,3.0,15.0,19.0,59.0,-121.0,-19.0,8.0,-6.0,0.0
-13.0,10.0,21.0,10.0,-2.0,52.0,-61.0,-16.0,21.0,-6.0,0.0
1.0,11.0,23.0,15.0,-4.0,44.0,5.0,-11.0,18.0,-4.0,0.0
3.0,24.0,12.0,19.0,5.0,40.0,57.0,-2.0,39.0,0.0,0.0
8.0,21.0,0.0,17.0,10.0,6.0,65.0,2.0,24.0,1.0,0.0
9.0,8.0,15.0,11.0,2.0,-19.0,44.0,-3.0,19.0,2.0,0.0
24.0,17.0,16.0,7.0,-8.0,-28.0,27.0,-13.0,28.0,19.0,0.0
11.0,11.0,14.0,7.0,-16.0,-37.0,19.0,-11.0,26.0,24.0,0.0
0.0,4.0,7.0,-11.0,-41.0,-46.0,18.0,2.0,14.0,9.0,0.0
3.0,7.0,4.0,-17.0,-48.0,-36.0,38.0,1.0,14.0,-2.0,0.0
-2.0,1.0,11.0,-4.0,-27.0,-7.0,9.0,-4.0,16.0,-9.0,0.0
0.0,-6.0,24.0,-6.0,-30.0,8.0,-70.0,0.0,5.0,-17.0,0.0
0.0,-15.0,1.0,-11.0,-21.0,26.0,-165.0,4.0,11.0,-14.0,0.0
6.0,-10.0,0.0,-20.0,-15.0,33.0,-234.0,11.0,8.0,-13.0,0.0
12.0,-8.0,10.0,-1.0,-2.0,30.0,-196.0,1.0,10.0,0.0,0.0
14.0,-12.0,12.0,5.0,9.0,35.0,-110.0,-8.0,0.0,16.0,0.0
11.0,-5.0,-38.0,5.0,9.0,25.0,-52.0,-14.0,10.0,21.0,0.0
3.0,2.0,-115.0,14.0,4.0,21.0,-17.0,-17.0,-10.0,11.0,0.0
-1.0,11.0,-36.0,16.0,1.0,17.0,13.0,-15.0,-12.0,0.0,0.0
0.0,16.0,21.0,4.0,-5.0,20.0,50.0,-5.0,-8.0,-2.0,0.0
2.0,10.0,-69.0,-6.0,-16.0,3.0,94.0,-10.0,-11.0,18.0,0.0
9.0,7.0,-163.0,-9.0,-21.0,-21.0,111.0,-3.0,-24.0,22.0,0.0
16.0,4.0,-164.0,-15.0,-16.0,-39.0,117.0,19.0,-18.0,9.0,0.0
4.0,6.0,-66.0,-27.0,-9.0,-44.0,99.0,33.0,1.0,-1.0,0.0
-7.0,14.0,39.0,-29.0,-15.0,-50.0,71.0,39.0,2.0,-3.0,0.0
-2.0,20.0,56.0,-29.0,-20.0,-46.0,65.0,25.0,11.0,0.0,0.0
4.0,27.0,60.0,-18.0,-13.0,-27.0,68.0,10.0,2.0,17.0,0.0
10.0,21.0,20.0,-29.0,-5.0,-12.0,28.0,12.0,-3.0,15.0,0.0
12.0,6.0,-87.0,-20.0,0.0,-19.0,-81.0,16.0,-10.0,1.0,0.0
5.0,13.0,-36.0,0.0,2.0,-8.0,-200.0,11.0,-7.0,3.0,0.0
0.0,15.0,56.0,3.0,14.0,10.0,-260.0,2.0,-14.0,11.0,0.0
-8.0,6.0,7.0,9.0,24.0,20.0,-229.0,-7.0,-14.0,6.0,0.0
-12.0,-3.0,49.0,19.0,29.0,37.0,-185.0,-14.0,-12.0,-1.0,0.0
-8.0,-13.0,74.0,28.0,28.0,45.0,-127.0,-14.0,-11.0,-10.0,0.0
-4.0,1.0,69.0,29.0,44.0,35.0,-65.0,-18.0,-3.0,-15.0,0.0
6.0,18.0,65.0,30.0,48.0,14.0,5.0,-18.0,-11.0,-13.0,0.0
17.0,22.0,53.0,29.0,24.0,-13.0,62.0,-10.0,0.0,0.0,0.0
21.0,26.0,59.0,31.0,0.0,-30.0,70.0,0.0,-4.0,19.0,0.0
20.0,21.0,49.0,9.0,-3.0,-23.0,56.0,8.0,8.0,14.0,0.0
11.0,12.0,38.0,-10.0,3.0,-18.0,15.0,17.0,0.0,4.0,0.0
10.0,15.0,30.0,-8.0,-6.0,-18.0,-26.0,15.0,-3.0,10.0,0.0
18.0,19.0,27.0,-19.0,-15.0,-16.0,-29.0,18.0,9.0,19.0,0.0
11.0,-2.0,24.0,-19.0,-12.0,-26.0,-35.0,22.0,-2.0,10.0,0.0
11.0,-8.0,24.0,-31.0,-15.0,-30.0,-37.0,15.0,-6.0,7.0,0.0
16.0,-13.0,30.0,-34.0,-6.0,-15.0,-99.0,10.0,-9.0,11.0,0.0
23.0,-25.0,27.0,-24.0,1.0,4.0,-198.0,10.0,-14.0,13.0,0.0
20.0,-24.0,30.0,-10.0,9.0,10.0,-256.0,8.0,1.0,6.0,0.0
19.0,-1.0,44.0,18.0,32.0,26.0,-250.0,-6.0,13.0,16.0,0.0
8.0,12.0,35.0,36.0,56.0,34.0,-160.0,-26.0,-11.0,0.0,0.0
-2.0,7.0,26.0,41.0,63.0,47.0,-92.0,-25.0,-19.0,-1.0,0.0
-4.0,5.0,42.0,47.0,59.0,64.0,-42.0,-4.0,-12.0,5.0,0.0
-2.0,4.0,49.0,41.0,49.0,57.0,12.0,3.0,-15.0,9.0,0.0
-2.0,-2.0,55.0,19.0,34.0,35.0,93.0,3.0,-2.0,5.0,0.0
0.0,-5.0,39.0,-19.0,9.0,8.0,142.0,11.0,-5.0,21.0,0.0
7.0,0.0,33.0,-40.0,-7.0,-36.0,151.0,27.0,0.0,17.0,0.0
5.0,9.0,21.0,-33.0,-14.0,-51.0,117.0,27.0,6.0,18.0,0.0
11.0,0.0,5.0,-41.0,-12.0,-42.0,73.0,19.0,9.0,24.0,0.0
1.0,0.0,-12.0,-32.0,-17.0,-27.0,38.0,15.0,-3.0,14.0,0.0
13.0,-6.0,-7.0,-29.0,-22.0,-24.0,21.0,10.0,-13.0,8.0,0.0
21.0,0.0,5.0,-32.0,-27.0,-23.0,16.0,12.0,-1.0,1.0,0.0
9.0,0.0,-2.0,-21.0,-35.0,-10.0,-24.0,15.0,6.0,-6.0,0.0
9.0,-11.0,-7.0,-20.0,-33.0,-2.0,-126.0,27.0,17.0,9.0,0.0
8.0,-12.0,0.0,-4.0,-17.0,10.0,-230.0,37.0,-2.0,7.0,0.0
-5.0,-12.0,11.0,7.0,11.0,22.0,-285.0,25.0,-7.0,11.0,0.0
-10.0,-11.0,21.0,8.0,15.0,34.0,-272.0,7.0,-10.0,6.0,0.0
0.0,-8.0,10.0,22.0,23.0,54.0,-216.0,-7.0,-22.0,11.0,0.0
0.0,-11.0,12.0,21.0,28.0,67.0,-130.0,-16.0,-22.0,16.0,0.0
3.0,-16.0,21.0,26.0,25.0,70.0,-56.0,-23.0,-34.0,17.0,0.0
-9.0,-23.0,22.0,21.0,24.0,67.0,-1.0,-31.0,-41.0,1.0,0.0
-17.0,-21.0,1.0,13.0,21.0,56.0,41.0,-34.0,-36.0,-11.0,0.0
-21.0,-9.0,-90.0,2.0,14.0,54.0,63.0,-33.0,-19.0,1.0,0.0
-15.0,-6.0,-175.0,2.0,7.0,40.0,58.0,-28.0,-10.0,10.0,0.0
-4.0,-8.0,-157.0,-19.0,-12.0,21.0,-6.0,-12.0,-12.0,12.0,0.0
1.0,0.0,-45.0,-24.0,-25.0,21.0,-47.0,-2.0,2.0,27.0,0.0
15.0,19.0,7.0,-13.0,-30.0,-4.0,-64.0,13.0,3.0,41.0,0.0
23.0,28.0,4.0,-14.0,-42.0,-35.0,-60.0,18.0,20.0,36.0,0.0
10.0,28.0,-42.0,-15.0,-40.0,-51.0,-71.0,3.0,32.0,29.0,0.0
4.0,15.0,-131.0,-5.0,-33.0,-48.0,-107.0,-9.0,34.0,31.0,0.0
5.0,7.0,-90.0,5.0,-20.0,-23.0,-171.0,-9.0,11.0,20.0,0.0
0.0,3.0,-43.0,3.0,3.0,-5.0,-264.0,7.0,14.0,8.0,0.0
-2.0,-7.0,-100.0,3.0,0.0,3.0,-277.0,4.0,11.0,0.0,0.0
-4.0,0.0,-66.0,19.0,10.0,23.0,-201.0,-2.0,18.0,-14.0,0.0
-11.0,9.0,35.0,38.0,13.0,32.0,-110.0,-21.0,4.0,-7.0,0.0
-2.0,19.0,55.0,37.0,21.0,40.0,-57.0,-23.0,0.0,7.0,0.0
9.0,13.0,50.0,29.0,18.0,39.0,-26.0,-22.0,8.0,22.0,0.0
13.0,1.0,42.0,12.0,15.0,33.0,19.0,-26.0,0.0,16.0,0.0
6.0,0.0,40.0,0.0,7.0,18.0,59.0,-21.0,2.0,2.0,0.0
-5.0,-10.0,40.0,-12.0,4.0,9.0,51.0,-14.0,2.0,-13.0,0.0
-2.0,-14.0,27.0,-12.0,4.0,-6.0,49.0,-12.0,21.0,-3.0,0.0
21.0,-11.0,32.0,-9.0,0.0,-15.0,10.0,-16.0,-2.0,5.0,0.0
26.0,-1.0,38.0,-19.0,-7.0,-10.0,1.0,-14.0,-2.0,10.0,0.0
17.0,-3.0,38.0,-25.0,-9.0,-13.0,-18.0,-13.0,-5.0,9.0,0.0
11.0,-10.0,22.0,-18.0,-2.0,-15.0,-53.0,-17.0,-4.0,20.0,0.0
19.0,1.0,-37.0,-12.0,5.0,-2.0,-88.0,-16.0,1.0,11.0,0.0
11.0,6.0,-134.0,-2.0,4.0,-3.0,-157.0,-20.0,4.0,12.0,0.0
14.0,6.0,-97.0,6.0,-2.0,14.0,-248.0,-18.0,12.0,6.0,0.0
14.0,-7.0,-73.0,23.0,-1.0,8.0,-314.0,-5.0,-5.0,4.0,0.0
-2.0,-11.0,-21.0,30.0,7.0,23.0,-309.0,-10.0,-24.0,3.0,0.0
-18.0,-8.0,74.0,39.0,14.0,21.0,-251.0,-14.0,-35.0,0.0,0.0
-18.0,-1.0,76.0,40.0,31.0,14.0,-197.0,-14.0,-25.0,-2.0,0.0
-11.0,8.0,66.0,28.0,39.0,9.0,-144.0,-24.0,-4.0,1.0,0.0
-14.0,0.0,39.0,-3.0,31.0,10.0,-89.0,-23.0,-3.0,-10.0,0.0
-21.0,-9.0,37.0,0.0,21.0,-3.0,-46.0,-1.0,6.0,-11.0,0.0
-14.0,-14.0,25.0,7.0,24.0,-7.0,-21.0,4.0,17.0,-7.0,0.0
-14.0,-4.0,13.0,8.0,11.0,-5.0,10.0,5.0,19.0,5.0,0.0
-10.0,4.0,12.0,2.0,6.0,-17.0,-9.0,1.0,22.0,10.0,0.0
-2.0,6.0,13.0,-6.0,-7.0,-32.0,-54.0,12.0,7.0,13.0,0.0
11.0,10.0,16.0,-8.0,-18.0,-38.0,-60.0,1.0,1.0,2.0,0.0
2.0,-3.0,1.0,-7.0,0.0,-26.0,-81.0,-4.0,-9.0,-16.0,0.0
16.0,0.0,10.0,-12.0,-4.0,-35.0,-75.0,-10.0,-9.0,-8.0,0.0
14.0,11.0,17.0,-24.0,-8.0,-40.0,-100.0,-12.0,-7.0,3.0,0.0
10.0,0.0,6.0,-24.0,-8.0,-6.0,-212.0,-2.0,-14.0,8.0,0.0
12.0,-1.0,0.0,-23.0,-15.0,6.0,-298.0,-6.0,2.0,6.0,0.0
8.0,-1.0,1.0,-16.0,0.0,18.0,-305.0,-5.0,-2.0,-7.0,0.0
-8.0,-16.0,4.0,4.0,24.0,33.0,-234.0,7.0,6.0,-25.0,0.0
-10.0,-18.0,7.0,23.0,31.0,38.0,-146.0,10.0,25.0,-31.0,0.0
-14.0,-12.0,13.0,25.0,28.0,16.0,-86.0,1.0,27.0,-23.0,0.0
-16.0,-4.0,27.0,20.0,14.0,1.0,-2.0,-6.0,17.0,-16.0,0.0
-8.0,-3.0,23.0,14.0,4.0,-2.0,65.0,-14.0,11.0,-25.0,0.0
-5.0,-5.0,7.0,12.0,0.0,-19.0,123.0,-9.0,3.0,-24.0,0.0
13.0,-5.0,5.0,0.0,-12.0,-49.0,165.0,-19.0,-2.0,-14.0,0.0
1.0,3.0,-5.0,-6.0,-18.0,-64.0,169.0,-17.0,0.0,-17.0,0.0
-3.0,0.0,-51.0,-15.0,-29.0,-55.0,154.0,-7.0,-7.0,-22.0,0.0
12.0,-2.0,-168.0,-26.0,-31.0,-43.0,140.0,-6.0,3.0,-23.0,0.0
17.0,-6.0,-196.0,-31.0,-21.0,-34.0,128.0,3.0,-10.0,-15.0,0.0
15.0,-3.0,-193.0,-16.0,-2.0,-40.0,126.0,18.0,10.0,0.0,0.0
3.0,-9.0,-141.0,-11.0,0.0,-39.0,136.0,28.0,3.0,-8.0,0.0
-4.0,-14.0,-25.0,1.0,0.0,-24.0,85.0,22.0,-3.0,-10.0,0.0
-3.0,-15.0,11.0,3.0,2.0,-18.0,-25.0,14.0,-16.0,-11.0,0.0
-7.0,-6.0,38.0,1.0,1.0,-23.0,-86.0,13.0,-15.0,-18.0,0.0
-7.0,-11.0,48.0,7.0,10.0,-11.0,-47.0,18.0,-8.0,-13.0,0.0
-4.0,-23.0,29.0,5.0,4.0,4.0,55.0,12.0,-16.0,-5.0,0.0
-8.0,-25.0,-74.0,0.0,14.0,25.0,158.0,12.0,-5.0,-14.0,0.0
0.0,-25.0,-132.0,2.0,17.0,25.0,224.0,14.0,4.0,-12.0,0.0
3.0,-13.0,-41.0,13.0,9.0,6.0,286.0,19.0,4.0,-19.0,0.0
-3.0,-8.0,40.0,5.0,3.0,0.0,343.0,16.0,11.0,-21.0,0.0
14.0,-2.0,33.0,0.0,13.0,-1.0,363.0,13.0,6.0,-18.0,0.0
25.0,2.0,-62.0,4.0,24.0,12.0,392.0,19.0,11.0,-20.0,0.0
15.0,1.0,-51.0,3.0,28.0,34.0,398.0,3.0,0.0,-17.0,0.0
24.0,1.0,44.0,6.0,26.0,11.0,377.0,-12.0,-5.0,-17.0,0.0
25.0,10.0,49.0,-1.0,-12.0,-2.0,340.0,-18.0,-3.0,-3.0,0.0
6.0,17.0,53.0,-7.0,-45.0,-13.0,306.0,-7.0,5.0,10.0,0.0
17.0,10.0,58.0,-19.0,-54.0,-55.0,287.0,0.0,10.0,12.0,0.0
13.0,11.0,54.0,-34.0,-68.0,-73.0,276.0,19.0,27.0,17.0,0.0
9.0,5.0,53.0,-22.0,-30.0,-45.0,205.0,33.0,26.0,9.0,0.0
-1.0,5.0,43.0,20.0,0.0,-19.0,95.0,49.0,26.0,6.0,0.0
-20.0,-3.0,-72.0,27.0,12.0,-16.0,44.0,53.0,10.0,-5.0,0.0
-22.0,-15.0,-98.0,39.0,18.0,-7.0,73.0,44.0,9.0,-10.0,0.0
-7.0,-14.0,31.0,47.0,18.0,11.0,138.0,21.0,6.0,-18.0,0.0
-5.0,-6.0,51.0,31.0,20.0,18.0,188.0,12.0,24.0,-15.0,0.0
-9.0,-7.0,25.0,16.0,19.0,23.0,215.0,27.0,7.0,-11.0,0.0
-17.0,-14.0,41.0,12.0,2.0,25.0,257.0,40.0,22.0,-2.0,0.0
-18.0,-18.0,34.0,14.0,-1.0,23.0,289.0,27.0,2.0,3.0,0.0
-12.0,-7.0,35.0,0.0,-5.0,15.0,315.0,18.0,7.0,4.0,0.0
-2.0,-1.0,45.0,-3.0,-14.0,-11.0,298.0,7.0,-5.0,5.0,0.0
5.0,-5.0,28.0,-25.0,-26.0,-31.0,239.0,3.0,13.0,18.0,0.0
0.0,-10.0,18.0,-44.0,-32.0,-26.0,191.0,1.0,11.0,11.0,0.0
-7.0,0.0,31.0,-36.0,-22.0,-23.0,156.0,1.0,1.0,14.0,0.0
-5.0,4.0,21.0,-16.0,-13.0,-28.0,115.0,-2.0,-5.0,18.0,0.0
-3.0,6.0,17.0,-14.0,-9.0,-1.0,112.0,0.0,14.0,14.0,0.0
-11.0,-3.0,13.0,-17.0,-2.0,20.0,88.0,-1.0,5.0,4.0,0.0
-24.0,-9.0,16.0,-10.0,4.0,22.0,-32.0,-11.0,16.0,-17.0,0.0
-32.0,-20.0,28.0,6.0,16.0,21.0,-164.0,-3.0,9.0,-21.0,0.0
-29.0,-18.0,46.0,11.0,14.0,16.0,-167.0,-6.0,10.0,-17.0,0.0
-17.0,3.0,66.0,20.0,11.0,-1.0,-105.0,-9.0,-1.0,-3.0,0.0
-14.0,8.0,71.0,14.0,9.0,2.0,-37.0,-19.0,-6.0,15.0,0.0
-20.0,0.0,60.0,14.0,2.0,14.0,30.0,-24.0,-24.0,5.0,0.0
-17.0,-9.0,45.0,1.0,0.0,23.0,69.0,-18.0,-17.0,3.0,0.0
-27.0,-10.0,33.0,-4.0,2.0,11.0,142.0,-14.0,-16.0,-1.0,0.0
-26.0,-7.0,15.0,-5.0,1.0,-15.0,181.0,-3.0,-4.0,-8.0,0.0
-14.0,-12.0,0.0,-22.0,-3.0,-11.0,179.0,18.0,2.0,-17.0,0.0
-1.0,-13.0,-17.0,-22.0,-11.0,-5.0,159.0,26.0,10.0,2.0,0.0
9.0,-7.0,-104.0,-21.0,-11.0,-20.0,129.0,7.0,4.0,12.0,0.0
21.0,4.0,-155.0,-41.0,-24.0,-30.0,112.0,1.0,17.0,10.0,0.0
18.0,4.0,-162.0,-46.0,-21.0,-29.0,89.0,1.0,8.0,11.0,0.0
9.0,-9.0,-120.0,-41.0,-19.0,-27.0,57.0,11.0,5.0,1.0,0.0
-14.0,-10.0,3.0,-31.0,-1.0,-21.0,2.0,7.0,-8.0,-9.0,0.0
-27.0,-6.0,33.0,-20.0,23.0,0.0,-69.0,0.0,-3.0,-9.0,0.0
-25.0,-13.0,12.0,-5.0,33.0,23.0,-183.0,5.0,-26.0,1.0,0.0
-33.0,-18.0,48.0,6.0,42.0,38.0,-242.0,13.0,-23.0,4.0,0.0
-27.0,-31.0,72.0,24.0,53.0,38.0,-211.0,4.0,-5.0,-18.0,0.0
-20.0,-33.0,65.0,40.0,31.0,23.0,-151.0,0.0,-21.0,-29.0,0.0
-18.0,-34.0,73.0,45.0,16.0,36.0,-86.0,12.0,0.0,-25.0,0.0
-2.0,-41.0,78.0,29.0,22.0,43.0,-46.0,14.0,6.0,-25.0,0.0
7.0,-30.0,56.0,16.0,21.0,24.0,11.0,10.0,4.0,-19.0,0.0
17.0,-12.0,46.0,11.0,4.0,-18.0,65.0,14.0,4.0,-5.0,0.0
14.0,-6.0,50.0,-3.0,-4.0,-37.0,85.0,22.0,19.0,13.0,0.0
2.0,-11.0,28.0,-18.0,-4.0,-34.0,70.0,31.0,-9.0,21.0,0.0
6.0,-21.0,-86.0,-25.0,-19.0,-22.0,38.0,32.0,-1.0,9.0,0.0
8.0,-19.0,-166.0,-40.0,-26.0,-34.0,11.0,44.0,1.0,6.0,0.0
2.0,-16.0,-159.0,-42.0,-25.0,-44.0,-23.0,48.0,3.0,17.0,0.0
4.0,-6.0,-95.0,-37.0,-22.0,-47.0,-37.0,32.0,-9.0,24.0,0.0
13.0,-4.0,12.0,-43.0,-21.0,-39.0,-47.0,25.0,-10.0,27.0,0.0
11.0,-3.0,12.0,-35.0,-9.0,-11.0,-85.0,27.0,-11.0,12.0,0.0
9.0,-3.0,-61.0,-21.0,2.0,0.0,-137.0,20.0,-12.0,9.0,0.0
7.0,-2.0,-25.0,1.0,17.0,-7.0,-219.0,12.0,-7.0,3.0,0.0
14.0,-6.0,66.0,23.0,29.0,10.0,-255.0,10.0,-14.0,12.0,0.0
11.0,-17.0,79.0,19.0,22.0,11.0,-204.0,5.0,-13.0,7.0,0.0
12.0,-20.0,75.0,8.0,17.0,8.0,-127.0,1.0,-12.0,-8.0,0.0
-6.0,-18.0,50.0,3.0,24.0,28.0,-74.0,-8.0,-23.0,-11.0,0.0
-12.0,-21.0,6.0,7.0,35.0,41.0,-21.0,0.0,-26.0,-8.0,0.0
0.0,-7.0,-79.0,13.0,34.0,37.0,66.0,2.0,-23.0,-10.0,0.0
0.0,11.0,-6.0,3.0,17.0,15.0,129.0,5.0,-14.0,-7.0,0.0
9.0,27.0,52.0,-1.0,2.0,-3.0,155.0,14.0,4.0,9.0,0.0
5.0,45.0,54.0,0.0,-9.0,-20.0,126.0,28.0,13.0,31.0,0.0
6.0,30.0,35.0,-17.0,-22.0,-22.0,75.0,39.0,26.0,25.0,0.0
1.0,2.0,14.0,-38.0,-37.0,-20.0,36.0,49.0,16.0,10.0,0.0
12.0,2.0,-2.0,-37.0,-38.0,-23.0,29.0,39.0,16.0,13.0,0.0
16.0,21.0,1.0,-31.0,-27.0,-5.0,18.0,9.0,15.0,15.0,0.0
16.0,12.0,11.0,-35.0,-3.0,-8.0,4.0,7.0,11.0,-2.0,0.0
27.0,18.0,-64.0,-16.0,10.0,-4.0,-17.0,5.0,-1.0,2.0,0.0
22.0,20.0,-123.0,8.0,9.0,12.0,-100.0,2.0,6.0,-10.0,0.0
17.0,3.0,-21.0,6.0,3.0,27.0,-181.0,3.0,4.0,-11.0,0.0
7.0,-5.0,-1.0,7.0,7.0,35.0,-163.0,-1.0,7.0,-20.0,0.0
-4.0,9.0,21.0,18.0,14.0,44.0,-92.0,-12.0,-11.0,-28.0,0.0
7.0,15.0,66.0,37.0,13.0,50.0,7.0,-11.0,-8.0,-6.0,0.0
29.0,16.0,62.0,47.0,11.0,35.0,71.0,-14.0,-1.0,5.0,0.0
24.0,10.0,50.0,38.0,2.0,19.0,155.0,-14.0,10.0,-9.0,0.0
0.0,-9.0,42.0,16.0,-1.0,7.0,230.0,-1.0,13.0,-18.0,0.0
3.0,-14.0,45.0,6.0,-2.0,-13.0,262.0,8.0,22.0,-23.0,0.0
3.0,-17.0,33.0,5.0,-6.0,-22.0,277.0,16.0,9.0,-22.0,0.0
-8.0,-22.0,26.0,2.0,0.0,-16.0,237.0,8.0,10.0,-11.0,0.0
-5.0,-23.0,-28.0,-8.0,-14.0,-17.0,200.0,11.0,-11.0,-10.0,0.0
10.0,-8.0,-86.0,-32.0,-35.0,7.0,200.0,2.0,-13.0,-5.0,0.0
30.0,12.0,9.0,-26.0,-49.0,10.0,191.0,-21.0,-18.0,-3.0,0.0
31.0,23.0,44.0,-22.0,-37.0,-14.0,197.0,-13.0,-22.0,17.0,0.0
15.0,17.0,37.0,-28.0,-35.0,-17.0,179.0,-1.0,11.0,27.0,0.0
16.0,12.0,37.0,-12.0,-23.0,-14.0,89.0,2.0,8.0,14.0,0.0
20.0,17.0,39.0,7.0,-11.0,-3.0,-17.0,1.0,-3.0,20.0,0.0
11.0,10.0,-62.0,22.0,1.0,7.0,-56.0,1.0,-32.0,0.0,0.0
-3.0,-7.0,-116.0,27.0,15.0,15.0,-29.0,3.0,-40.0,-5.0,0.0
-20.0,-19.0,-17.0,40.0,30.0,26.0,23.0,2.0,-18.0,5.0,0.0
-26.0,-17.0,41.0,49.0,42.0,40.0,77.0,0.0,-17.0,-10.0,0.0
-24.0,-13.0,0.0,33.0,39.0,36.0,131.0,2.0,-10.0,-12.0,0.0
-26.0,-9.0,-26.0,29.0,19.0,29.0,187.0,-2.0,4.0,-12.0,0.0
-22.0,-10.0,44.0,22.0,1.0,19.0,239.0,0.0,9.0,-5.0,0.0
-17.0,-7.0,63.0,7.0,-22.0,13.0,253.0,-8.0,0.0,5.0,0.0
0.0,-14.0,39.0,-5.0,-15.0,14.0,252.0,-11.0,-15.0,9.0,0.0
0.0,-20.0,8.0,-12.0,-10.0,18.0,221.0,0.0,-9.0,9.0,0.0
-6.0,-15.0,1.0,-17.0,-24.0,8.0,193.0,8.0,12.0,10.0,0.0
-12.0,-18.0,1.0,-24.0,-20.0,7.0,157.0,6.0,14.0,-3.0,0.0
-15.0,-25.0,9.0,-25.0,-26.0,-6.0,129.0,3.0,-1.0,-9.0,0.0
-5.0,-17.0,28.0,-28.0,-37.0,-44.0,113.0,10.0,6.0,15.0,0.0
1.0,-5.0,28.0,-28.0,-23.0,-43.0,48.0,13.0,15.0,20.0,0.0
-9.0,-2.0,15.0,-11.0,10.0,-3.0,-48.0,22.0,21.0,13.0,0.0
-19.0,-6.0,19.0,11.0,22.0,18.0,-137.0,31.0,12.0,2.0,0.0
-16.0,-7.0,19.0,11.0,24.0,25.0,-180.0,19.0,-1.0,-9.0,0.0
-27.0,-6.0,20.0,4.0,27.0,36.0,-132.0,10.0,4.0,-5.0,0.0
-22.0,1.0,19.0,10.0,42.0,37.0,-63.0,3.0,5.0,5.0,0.0
-16.0,10.0,29.0,29.0,48.0,39.0,-1.0,-13.0,-10.0,2.0,0.0
-13.0,19.0,32.0,39.0,39.0,36.0,38.0,-42.0,-25.0,6.0,0.0
2.0,20.0,29.0,25.0,24.0,11.0,95.0,-55.0,-18.0,6.0,0.0
8.0,30.0,0.0,11.0,5.0,-11.0,135.0,-55.0,-18.0,2.0,0.0
-15.0,29.0,-61.0,6.0,-5.0,-25.0,126.0,-46.0,-30.0,7.0,0.0
-16.0,32.0,-85.0,3.0,-15.0,-18.0,111.0,-33.0,-12.0,12.0,0.0
-2.0,21.0,-23.0,4.0,-19.0,-21.0,82.0,-19.0,-3.0,0.0,0.0
-2.0,8.0,-6.0,0.0,-18.0,-34.0,58.0,-12.0,-5.0,9.0,0.0
-2.0,-2.0,-15.0,-4.0,-11.0,-31.0,33.0,-6.0,0.0,3.0,0.0
-11.0,-4.0,-76.0,-8.0,-12.0,-12.0,29.0,3.0,0.0,12.0,0.0
-14.0,5.0,-91.0,-11.0,-13.0,-14.0,23.0,0.0,3.0,16.0,0.0
-10.0,15.0,-45.0,0.0,-15.0,9.0,-6.0,-14.0,5.0,26.0,0.0
-5.0,19.0,-15.0,10.0,-6.0,27.0,-74.0,-13.0,12.0,21.0,0.0
3.0,8.0,30.0,17.0,12.0,32.0,-132.0,-15.0,16.0,18.0,0.0
-12.0,-1.0,37.0,15.0,11.0,37.0,-102.0,-12.0,10.0,16.0,0.0
-15.0,-17.0,35.0,21.0,16.0,38.0,-27.0,-27.0,-10.0,6.0,0.0
-17.0,-12.0,36.0,30.0,15.0,42.0,42.0,-28.0,-10.0,-8.0,0.0
-22.0,-12.0,39.0,30.0,11.0,39.0,107.0,-9.0,0.0,-2.0,0.0
-5.0,-15.0,41.0,8.0,2.0,19.0,164.0,-9.0,-11.0,-2.0,0.0
-12.0,-8.0,2.0,-17.0,-3.0,3.0,190.0,-20.0,-8.0,-19.0,0.0
-15.0,-5.0,-79.0,-12.0,16.0,-4.0,191.0,-10.0,-22.0,-2.0,0.0
-14.0,-13.0,-97.0,-12.0,25.0,6.0,200.0,3.0,-26.0,-4.0,0.0
-29.0,-14.0,-178.0,1.0,14.0,9.0,162.0,8.0,-28.0,-19.0,0.0
-29.0,-4.0,-110.0,9.0,8.0,0.0,112.0,10.0,-28.0,-5.0,0.0
-6.0,7.0,17.0,1.0,-12.0,-24.0,99.0,-5.0,-12.0,28.0,0.0
-3.0,5.0,32.0,-12.0,-40.0,-47.0,86.0,-11.0,5.0,37.0,0.0
-4.0,15.0,10.0,-25.0,-63.0,-51.0,73.0,-1.0,16.0,15.0,0.0
-5.0,8.0,3.0,-39.0,-73.0,-38.0,24.0,9.0,13.0,20.0,0.0
-7.0,5.0,-61.0,-13.0,-45.0,-27.0,-78.0,0.0,2.0,21.0,0.0
-6.0,6.0,-48.0,10.0,-23.0,-17.0,-165.0,-3.0,1.0,9.0,0.0
0.0,8.0,-17.0,19.0,-2.0,2.0,-190.0,-3.0,0.0,12.0,0.0
-3.0,10.0,-30.0,15.0,11.0,13.0,-130.0,-3.0,-1.0,-4.0,0.0
-12.0,5.0,48.0,29.0,14.0,30.0,-59.0,-5.0,-8.0,-2.0,0.0
-21.0,1.0,61.0,18.0,13.0,25.0,-4.0,-5.0,12.0,-3.0,0.0
-26.0,4.0,51.0,24.0,16.0,16.0,17.0,-16.0,1.0,5.0,0.0
-8.0,13.0,46.0,31.0,-2.0,-11.0,72.0,-33.0,0.0,10.0,0.0
4.0,15.0,49.0,21.0,-17.0,-40.0,105.0,-36.0,-4.0,19.0,0.0
5.0,9.0,38.0,-2.0,-23.0,-32.0,89.0,-25.0,-8.0,9.0,0.0
1.0,-6.0,25.0,-14.0,-14.0,-10.0,56.0,-24.0,0.0,7.0,0.0
1.0,-15.0,12.0,-32.0,3.0,-4.0,14.0,-27.0,1.0,4.0,0.0
2.0,-13.0,12.0,-38.0,0.0,2.0,-21.0,-21.0,-11.0,-5.0,0.0
-2.0,10.0,31.0,-29.0,0.0,-3.0,-58.0,-28.0,-4.0,-7.0,0.0
10.0,22.0,35.0,-9.0,-7.0,-24.0,-74.0,-25.0,-1.0,9.0,0.0
24.0,26.0,24.0,8.0,-19.0,-30.0,-93.0,-18.0,3.0,14.0,0.0
25.0,29.0,18.0,3.0,-28.0,-35.0,-145.0,-6.0,23.0,15.0,0.0
29.0,29.0,21.0,0.0,-23.0,-20.0,-225.0,-7.0,39.0,18.0,0.0
17.0,11.0,25.0,-3.0,5.0,7.0,-297.0,-6.0,20.0,2.0,0.0
-12.0,0.0,27.0,3.0,18.0,18.0,-279.0,0.0,17.0,-9.0,0.0
-4.0,-6.0,20.0,13.0,23.0,36.0,-205.0,2.0,1.0,-22.0,0.0
5.0,-7.0,2.0,24.0,36.0,52.0,-132.0,-3.0,6.0,-28.0,0.0
0.0,-1.0,-10.0,25.0,32.0,46.0,-66.0,-14.0,10.0,-25.0,0.0
7.0,13.0,10.0,2.0,13.0,26.0,14.0,-30.0,3.0,-5.0,0.0
-1.0,1.0,10.0,-8.0,15.0,28.0,69.0,-56.0,-22.0,-15.0,0.0
11.0,-6.0,-85.0,-11.0,2.0,8.0,73.0,-54.0,-14.0,-15.0,0.0
21.0,-6.0,-135.0,-24.0,-10.0,-19.0,65.0,-55.0,-16.0,-7.0,0.0
32.0,-2.0,-33.0,-23.0,-13.0,-36.0,43.0,-50.0,-13.0,-4.0,0.0
24.0,1.0,15.0,-29.0,-7.0,-50.0,38.0,-33.0,0.0,9.0,0.0
18.0,1.0,10.0,-42.0,-12.0,-53.0,0.0,-8.0,30.0,6.0,0.0
17.0,4.0,13.0,-40.0,-15.0,-43.0,-19.0,13.0,40.0,20.0,0.0
-5.0,-3.0,2.0,-39.0,-10.0,-35.0,-36.0,24.0,50.0,19.0,0.0
-5.0,-14.0,-10.0,-33.0,4.0,-36.0,-74.0,26.0,39.0,10.0,0.0
-4.0,-23.0,1.0,-26.0,7.0,-19.0,-133.0,12.0,11.0,1.0,0.0
-2.0,-14.0,5.0,-2.0,8.0,-7.0,-175.0,-3.0,-3.0,3.0,0.0
-2.0,-11.0,17.0,7.0,25.0,2.0,-213.0,1.0,2.0,8.0,0.0
-11.0,-14.0,-14.0,18.0,32.0,19.0,-195.0,-3.0,-7.0,-10.0,0.0
-20.0,-11.0,-108.0,34.0,36.0,39.0,-96.0,-2.0,-19.0,-29.0,0.0
-11.0,-8.0,-34.0,35.0,46.0,44.0,-8.0,-6.0,-14.0,-40.0,0.0
-15.0,-3.0,29.0,42.0,49.0,49.0,54.0,-7.0,-22.0,-37.0,0.0
-30.0,-3.0,17.0,42.0,44.0,36.0,129.0,6.0,-14.0,-12.0,0.0
-25.0,0.0,13.0,38.0,37.0,20.0,173.0,9.0,-1.0,-10.0,0.0
-2.0,6.0,11.0,19.0,27.0,10.0,165.0,13.0,-1.0,-13.0,0.0
15.0,12.0,-12.0,-10.0,19.0,-4.0,145.0,11.0,-6.0,-7.0,0.0
5.0,0.0,-27.0,-22.0,13.0,0.0,84.0,3.0,-9.0,-4.0,0.0
-2.0,-4.0,-33.0,-22.0,14.0,7.0,52.0,0.0,-2.0,-6.0,0.0
2.0,2.0,-16.0,-6.0,9.0,6.0,10.0,0.0,0.0,-13.0,0.0
3.0,0.0,-9.0,-6.0,6.0,-3.0,-14.0,1.0,2.0,-2.0,0.0
2.0,-13.0,-10.0,-14.0,-4.0,-17.0,-46.0,0.0,-10.0,0.0,0.0
-1.0,-9.0,0.0,-10.0,-24.0,-22.0,-105.0,-9.0,-13.0,-6.0,0.0
13.0,3.0,2.0,-2.0,-27.0,-22.0,-203.0,7.0,-5.0,11.0,0.0
1.0,-3.0,-7.0,-13.0,-27.0,-21.0,-265.0,17.0,15.0,21.0,0.0
-4.0,-4.0,-5.0,-19.0,-35.0,0.0,-239.0,22.0,12.0,18.0,0.0
-9.0,-5.0,7.0,0.0,-8.0,9.0,-170.0,15.0,5.0,2.0,0.0
-8.0,-15.0,-66.0,18.0,8.0,13.0,-109.0,1.0,-11.0,1.0,0.0
-5.0,-13.0,-79.0,18.0,11.0,7.0,-46.0,1.0,-26.0,-3.0,0.0
-1.0,-5.0,-20.0,10.0,30.0,2.0,1.0,2.0,-9.0,-6.0,0.0
3.0,-1.0,-15.0,16.0,42.0,-5.0,40.0,-4.0,0.0,-10.0,0.0
5.0,-8.0,22.0,16.0,25.0,-18.0,60.0,-18.0,-17.0,-6.0,0.0
16.0,2.0,27.0,9.0,15.0,-31.0,81.0,-16.0,-20.0,2.0,0.0
21.0,18.0,29.0,15.0,-2.0,-53.0,84.0,-14.0,-10.0,13.0,0.0
25.0,18.0,21.0,0.0,-12.0,-54.0,71.0,-12.0,-5.0,12.0,0.0
25.0,24.0,10.0,-23.0,-23.0,-51.0,51.0,-7.0,6.0,11.0,0.0
23.0,26.0,8.0,-33.0,-46.0,-56.0,25.0,12.0,6.0,0.0,0.0
18.0,20.0,16.0,-40.0,-52.0,-51.0,10.0,27.0,18.0,9.0,0.0
21.0,20.0,7.0,-38.0,-41.0,-51.0,1.0,22.0,16.0,15.0,0.0
10.0,18.0,3.0,-20.0,-37.0,-55.0,-73.0,10.0,4.0,15.0,0.0
3.0,21.0,10.0,-7.0,-23.0,-35.0,-143.0,5.0,-9.0,16.0,0.0
0.0,15.0,10.0,5.0,-15.0,-22.0,-180.0,0.0,-30.0,0.0,0.0
-1.0,11.0,24.0,13.0,-1.0,-6.0,-147.0,4.0,-42.0,-1.0,0.0
5.0,8.0,50.0,29.0,-4.0,-3.0,-73.0,1.0,-55.0,-12.0,0.0
15.0,7.0,54.0,45.0,-11.0,-1.0,1.0,-20.0,-45.0,-17.0,0.0
14.0,19.0,51.0,44.0,-6.0,0.0,65.0,-35.0,-35.0,-11.0,0.0
2.0,9.0,43.0,34.0,1.0,8.0,129.0,-14.0,-32.0,-11.0,0.0
5.0,13.0,40.0,0.0,-6.0,5.0,172.0,-5.0,-20.0,-19.0,0.0
-4.0,20.0,27.0,-8.0,-8.0,-1.0,198.0,-9.0,-16.0,-11.0,0.0
-5.0,18.0,-42.0,-2.0,-15.0,-20.0,188.0,-11.0,-32.0,-2.0,0.0
-4.0,14.0,-158.0,-6.0,-26.0,-29.0,161.0,4.0,-28.0,0.0,0.0
-6.0,6.0,-140.0,-8.0,-28.0,-28.0,146.0,8.0,-11.0,7.0,0.0
-12.0,13.0,-49.0,-17.0,-29.0,-22.0,115.0,-2.0,-13.0,4.0,0.0
-16.0,21.0,3.0,-21.0,-27.0,-16.0,75.0,-12.0,-16.0,1.0,0.0
2.0,17.0,50.0,-20.0,-13.0,-6.0,69.0,-16.0,-18.0,9.0,0.0
16.0,8.0,48.0,-6.0,-2.0,4.0,34.0,-16.0,-18.0,3.0,0.0
12.0,4.0,37.0,8.0,20.0,18.0,-26.0,-16.0,-18.0,1.0,0.0
6.0,13.0,53.0,24.0,32.0,46.0,-68.0,-18.0,-23.0,-2.0,0.0
14.0,13.0,51.0,27.0,39.0,52.0,-76.0,-28.0,-20.0,-3.0,0.0
7.0,5.0,47.0,38.0,58.0,46.0,-41.0,-47.0,-21.0,8.0,0.0
-8.0,1.0,31.0,42.0,69.0,41.0,25.0,-49.0,-16.0,15.0,0.0
0.0,13.0,-37.0,28.0,54.0,-11.0,91.0,-49.0,-10.0,17.0,0.0
15.0,21.0,-36.0,19.0,50.0,-34.0,150.0,-39.0,-2.0,26.0,0.0
19.0,23.0,30.0,32.0,56.0,-28.0,215.0,-31.0,-7.0,20.0,0.0
27.0,27.0,55.0,30.0,34.0,-36.0,255.0,-23.0,-2.0,4.0,0.0
15.0,21.0,61.0,25.0,19.0,-37.0,256.0,-26.0,0.0,-10.0,0.0
4.0,13.0,39.0,3.0,-4.0,-41.0,225.0,-10.0,11.0,3.0,0.0
0.0,9.0,19.0,-21.0,-12.0,-41.0,174.0,24.0,29.0,8.0,0.0
-20.0,-6.0,-20.0,-40.0,-5.0,-9.0,131.0,37.0,18.0,7.0,0.0
-19.0,-22.0,-63.0,-40.0,-4.0,4.0,109.0,27.0,37.0,-7.0,0.0
-9.0,-23.0,-19.0,-31.0,-9.0,7.0,98.0,20.0,22.0,-9.0,0.0
0.0,-21.0,2.0,-36.0,-5.0,9.0,77.0,14.0,6.0,-7.0,0.0
0.0,-13.0,23.0,-23.0,-8.0,-7.0,26.0,19.0,17.0,9.0,0.0
10.0,0.0,38.0,-11.0,-7.0,-17.0,-54.0,13.0,10.0,20.0,0.0
14.0,0.0,55.0,-2.0,0.0,-5.0,-126.0,5.0,0.0,10.0,0.0
-2.0,13.0,50.0,0.0,15.0,2.0,-124.0,-4.0,-18.0,3.0,0.0
-11.0,21.0,59.0,23.0,25.0,11.0,-42.0,-5.0,-11.0,-8.0,0.0
-4.0,22.0,27.0,45.0,31.0,14.0,31.0,-12.0,-11.0,-1.0,0.0
0.0,17.0,-85.0,40.0,24.0,24.0,88.0,-6.0,0.0,5.0,0.0
-3.0,0.0,-66.0,36.0,20.0,23.0,160.0,6.0,9.0,6.0,0.0
-15.0,-7.0,24.0,25.0,16.0,33.0,213.0,19.0,4.0,-9.0,0.0
-27.0,-5.0,32.0,17.0,7.0,31.0,217.0,31.0,-12.0,-9.0,0.0
-48.0,-4.0,39.0,9.0,-3.0,18.0,180.0,22.0,-12.0,-3.0,0.0
-43.0,5.0,36.0,0.0,-22.0,14.0,133.0,7.0,0.0,-2.0,0.0
-28.0,5.0,17.0,-11.0,-31.0,12.0,93.0,8.0,17.0,-3.0,0.0
-7.0,6.0,-64.0,-19.0,-39.0,-7.0,74.0,17.0,24.0,-4.0,0.0
12.0,3.0,-158.0,-23.0,-34.0,-30.0,74.0,22.0,23.0,15.0,0.0
7.0,-6.0,-156.0,-15.0,-30.0,-19.0,57.0,28.0,16.0,16.0,0.0
-8.0,-22.0,-77.0,-10.0,-23.0,11.0,11.0,23.0,14.0,8.0,0.0
-1.0,-16.0,29.0,-9.0,-5.0,11.0,-61.0,22.0,13.0,0.0,0.0
-3.0,-5.0,48.0,5.0,5.0,17.0,-148.0,11.0,6.0,-4.0,0.0
12.0,-1.0,52.0,22.0,3.0,29.0,-165.0,-8.0,-4.0,-4.0,0.0
17.0,-3.0,57.0,39.0,-4.0,30.0,-94.0,-12.0,-16.0,0.0,0.0
18.0,0.0,63.0,42.0,7.0,38.0,-21.0,-10.0,-23.0,-6.0,0.0
23.0,6.0,47.0,27.0,-5.0,37.0,56.0,-17.0,-21.0,-11.0,0.0
32.0,3.0,29.0,26.0,-37.0,29.0,127.0,-25.0,-18.0,-13.0,0.0
29.0,-7.0,23.0,16.0,-28.0,20.0,198.0,-27.0,-17.0,-11.0,0.0
22.0,-8.0,0.0,17.0,-16.0,16.0,225.0,-24.0,-25.0,-8.0,0.0
4.0,-7.0,38.0,28.0,-5.0,28.0,230.0,-18.0,-23.0,-16.0,0.0
-4.0,-8.0,13.0,27.0,10.0,19.0,226.0,-7.0,-19.0,-25.0,0.0
3.0,3.0,-59.0,7.0,0.0,1.0,196.0,-10.0,-12.0,-26.0,0.0
15.0,4.0,-19.0,4.0,-9.0,-5.0,175.0,-18.0,-1.0,-5.0,0.0
1.0,9.0,42.0,-4.0,-11.0,-24.0,134.0,-15.0,4.0,0.0,0.0
7.0,-1.0,3.0,-16.0,-26.0,-22.0,102.0,5.0,8.0,-9.0,0.0
4.0,-8.0,-60.0,-50.0,-57.0,-14.0,58.0,21.0,17.0,-5.0,0.0
-14.0,-9.0,-8.0,-62.0,-51.0,-4.0,-22.0,10.0,13.0,-6.0,0.0
-8.0,-9.0,7.0,-34.0,-44.0,6.0,-133.0,-4.0,-2.0,-12.0,0.0
-12.0,-9.0,-19.0,0.0,-31.0,29.0,-189.0,-16.0,-21.0,-11.0,0.0
-26.0,-12.0,-4.0,18.0,-16.0,46.0,-165.0,-15.0,-29.0,-5.0,0.0
-35.0,-2.0,45.0,25.0,-7.0,55.0,-120.0,-17.0,-20.0,-1.0,0.0
-21.0,0.0,45.0,24.0,10.0,68.0,-50.0,-9.0,-4.0,8.0,0.0
-11.0,-1.0,52.0,39.0,26.0,57.0,15.0,0.0,-5.0,0.0,0.0
0.0,-3.0,38.0,32.0,32.0,43.0,55.0,-7.0,0.0,-19.0,0.0
0.0,-8.0,24.0,25.0,22.0,42.0,111.0,-19.0,-2.0,-7.0,0.0
-4.0,-15.0,21.0,19.0,16.0,49.0,145.0,-14.0,-11.0,-2.0,0.0
-13.0,-18.0,5.0,-6.0,11.0,28.0,131.0,4.0,2.0,-16.0,0.0
-12.0,-23.0,-7.0,-31.0,-15.0,1.0,96.0,17.0,22.0,-16.0,0.0
2.0,-10.0,-50.0,-45.0,-38.0,-48.0,37.0,10.0,24.0,7.0,0.0
8.0,3.0,-19.0,-46.0,-48.0,-64.0,-10.0,-5.0,19.0,5.0,0.0
8.0,1.0,7.0,-40.0,-26.0,-50.0,-51.0,-6.0,0.0,-3.0,0.0
0.0,5.0,21.0,-35.0,-11.0,-45.0,-58.0,-5.0,4.0,2.0,0.0
-6.0,0.0,21.0,-19.0,-9.0,-37.0,-69.0,-9.0,9.0,7.0,0.0
-18.0,-1.0,14.0,-7.0,0.0,-25.0,-150.0,-5.0,-4.0,-7.0,0.0
-8.0,20.0,18.0,11.0,7.0,-5.0,-239.0,4.0,6.0,-9.0,0.0
7.0,23.0,15.0,22.0,6.0,15.0,-272.0,11.0,24.0,0.0,0.0
7.0,20.0,-11.0,23.0,19.0,23.0,-238.0,3.0,21.0,0.0,0.0
1.0,19.0,25.0,27.0,37.0,30.0,-179.0,-3.0,5.0,-12.0,0.0
5.0,18.0,42.0,32.0,42.0,24.0,-112.0,-9.0,-12.0,-4.0,0.0
2.0,4.0,47.0,37.0,41.0,27.0,-36.0,-5.0,-12.0,-5.0,0.0
4.0,6.0,38.0,33.0,35.0,22.0,44.0,-2.0,-12.0,-12.0,0.0
5.0,10.0,26.0,13.0,24.0,9.0,95.0,-8.0,-24.0,-21.0,0.0
-8.0,0.0,12.0,-3.0,3.0,-4.0,109.0,2.0,-13.0,-18.0,0.0
-19.0,4.0,0.0,-16.0,-2.0,4.0,92.0,24.0,-5.0,-26.0,0.0
-12.0,2.0,-31.0,-29.0,0.0,3.0,45.0,13.0,-19.0,-6.0,0.0
-7.0,-4.0,-73.0,-35.0,-7.0,-5.0,-3.0,-4.0,-12.0,7.0,0.0
-2.0,-8.0,-8.0,-33.0,-27.0,-11.0,-53.0,6.0,4.0,-8.0,0.0
3.0,-12.0,9.0,-18.0,-16.0,0.0,-70.0,13.0,11.0,-6.0,0.0
7.0,-1.0,6.0,-21.0,10.0,9.0,-63.0,3.0,10.0,-7.0,0.0
4.0,8.0,22.0,-24.0,19.0,1.0,-107.0,-3.0,2.0,-5.0,0.0
3.0,11.0,26.0,5.0,11.0,6.0,-208.0,-6.0,0.0,0.0,0.0
8.0,24.0,45.0,16.0,5.0,7.0,-278.0,-9.0,-12.0,-1.0,0.0
2.0,22.0,55.0,16.0,-11.0,12.0,-262.0,-21.0,-19.0,-6.0,0.0
-9.0,-3.0,32.0,-8.0,-7.0,41.0,-196.0,-10.0,-17.0,-2.0,0.0
-13.0,-14.0,7.0,-19.0,0.0,45.0,-134.0,9.0,-19.0,6.0,0.0
-25.0,-14.0,11.0,-7.0,2.0,39.0,-58.0,17.0,-16.0,2.0,0.0
-27.0,-16.0,10.0,1.0,12.0,46.0,19.0,12.0,0.0,8.0,0.0
-21.0,-9.0,12.0,1.0,11.0,49.0,93.0,8.0,2.0,25.0,0.0
-13.0,-2.0,6.0,-3.0,9.0,29.0,146.0,10.0,1.0,6.0,0.0
-9.0,5.0,0.0,-10.0,1.0,8.0,153.0,8.0,5.0,-8.0,0.0
-11.0,14.0,-11.0,-22.0,-20.0,-8.0,135.0,9.0,-3.0,10.0,0.0
-8.0,5.0,-51.0,-32.0,-33.0,-33.0,92.0,1.0,-3.0,1.0,0.0
9.0,-5.0,-140.0,-29.0,-25.0,-39.0,64.0,0.0,-3.0,7.0,0.0
13.0,-4.0,-65.0,-36.0,-24.0,-32.0,38.0,1.0,4.0,11.0,0.0
12.0,12.0,3.0,-30.0,-30.0,-30.0,20.0,-3.0,20.0,12.0,0.0
12.0,5.0,1.0,-29.0,-25.0,-25.0,-5.0,-5.0,16.0,23.0,0.0
11.0,11.0,0.0,-47.0,-23.0,-29.0,-63.0,9.0,13.0,20.0,0.0
14.0,9.0,-7.0,-47.0,-18.0,-24.0,-139.0,22.0,23.0,15.0,0.0
13.0,14.0,-3.0,-25.0,-6.0,-3.0,-189.0,31.0,23.0,5.0,0.0
0.0,4.0,13.0,-7.0,0.0,30.0,-130.0,27.0,4.0,-17.0,0.0
-6.0,-10.0,4.0,4.0,10.0,36.0,-44.0,3.0,-10.0,-33.0,0.0
-2.0,-19.0,0.0,20.0,30.0,41.0,18.0,-9.0,-6.0,-30.0,0.0
2.0,-22.0,0.0,29.0,43.0,33.0,96.0,0.0,0.0,-5.0,0.0
7.0,-14.0,0.0,14.0,25.0,13.0,145.0,8.0,7.0,4.0,0.0
25.0,-6.0,1.0,-11.0,5.0,4.0,174.0,8.0,38.0,-3.0,0.0
15.0,-10.0,-17.0,-21.0,-1.0,3.0,175.0,19.0,25.0,0.0,0.0
0.0,-17.0,-33.0,-9.0,-2.0,3.0,154.0,21.0,11.0,4.0,0.0
-5.0,-8.0,-25.0,-7.0,-10.0,-20.0,116.0,6.0,2.0,0.0,0.0
7.0,3.0,-8.0,-21.0,-11.0,-34.0,70.0,-16.0,-7.0,-8.0,0.0
16.0,3.0,-8.0,-24.0,-5.0,-25.0,28.0,-24.0,-4.0,3.0,0.0
13.0,6.0,-8.0,-21.0,0.0,-28.0,11.0,-10.0,5.0,18.0,0.0
18.0,18.0,7.0,-8.0,4.0,-37.0,22.0,-4.0,7.0,29.0,0.0
16.0,19.0,-5.0,-3.0,11.0,-18.0,-9.0,-13.0,15.0,23.0,0.0
16.0,28.0,-18.0,10.0,15.0,-13.0,-99.0,-16.0,23.0,19.0,0.0
15.0,55.0,9.0,31.0,13.0,-34.0,-178.0,-10.0,30.0,25.0,0.0
11.0,54.0,41.0,45.0,5.0,-22.0,-188.0,0.0,33.0,25.0,0.0
0.0,25.0,22.0,32.0,11.0,19.0,-126.0,-3.0,35.0,18.0,0.0
-10.0,13.0,4.0,10.0,10.0,41.0,-72.0,-13.0,25.0,3.0,0.0
0.0,7.0,3.0,15.0,3.0,34.0,-21.0,-20.0,11.0,-4.0,0.0
1.0,6.0,10.0,15.0,-4.0,26.0,36.0,-17.0,3.0,-7.0,0.0
-5.0,3.0,-5.0,-4.0,-2.0,11.0,89.0,-15.0,16.0,-6.0,0.0
4.0,3.0,-25.0,-5.0,-7.0,2.0,135.0,-11.0,17.0,-13.0,0.0
11.0,1.0,-70.0,-21.0,-10.0,4.0,142.0,1.0,19.0,-9.0,0.0
8.0,0.0,-53.0,-34.0,-8.0,-4.0,142.0,6.0,28.0,3.0,0.0
25.0,-4.0,-42.0,-42.0,-20.0,-19.0,122.0,11.0,34.0,-5.0,0.0
24.0,7.0,-149.0,-31.0,-13.0,-30.0,88.0,8.0,27.0,-6.0,0.0
10.0,12.0,-179.0,-23.0,0.0,-25.0,64.0,-2.0,26.0,7.0,0.0
10.0,10.0,-143.0,-32.0,9.0,-18.0,85.0,-6.0,10.0,10.0,0.0
2.0,6.0,-38.0,-22.0,7.0,-19.0,68.0,-6.0,-6.0,0.0,0.0
-1.0,3.0,24.0,-15.0,10.0,-10.0,1.0,-2.0,-26.0,3.0,0.0
-6.0,6.0,42.0,-12.0,2.0,5.0,-54.0,-3.0,-14.0,0.0,0.0
-12.0,-4.0,52.0,1.0,0.0,6.0,-100.0,-5.0,-3.0,5.0,0.0
-13.0,-24.0,58.0,14.0,11.0,28.0,-77.0,2.0,0.0,2.0,0.0
-17.0,-40.0,31.0,14.0,15.0,45.0,7.0,8.0,4.0,-21.0,0.0
-22.0,-33.0,-1.0,15.0,12.0,46.0,97.0,19.0,21.0,-9.0,0.0
-12.0,-33.0,37.0,5.0,8.0,42.0,164.0,32.0,15.0,-6.0,0.0
-13.0,-33.0,52.0,4.0,5.0,35.0,203.0,22.0,3.0,-15.0,0.0
-23.0,-20.0,57.0,6.0,10.0,25.0,253.0,0.0,6.0,-32.0,0.0
-30.0,-4.0,52.0,4.0,11.0,0.0,291.0,-10.0,2.0,-23.0,0.0
-33.0,2.0,33.0,-9.0,-7.0,-13.0,267.0,-11.0,1.0,0.0,0.0
-5.0,10.0,29.0,-5.0,-11.0,-15.0,223.0,-4.0,-2.0,2.0,0.0
0.0,17.0,18.0,-12.0,-19.0,-31.0,188.0,-5.0,-8.0,-4.0,0.0
9.0,13.0,4.0,-18.0,-21.0,-37.0,169.0,-9.0,-8.0,-5.0,0.0
11.0,16.0,17.0,-22.0,-17.0,-27.0,142.0,-16.0,-8.0,4.0,0.0
18.0,15.0,23.0,-34.0,-7.0,-18.0,102.0,-28.0,-8.0,7.0,0.0
18.0,8.0,26.0,-27.0,-1.0,-9.0,79.0,-26.0,-15.0,-6.0,0.0
11.0,-7.0,8.0,-2.0,0.0,-1.0,38.0,-10.0,-16.0,-20.0,0.0
17.0,-18.0,-71.0,6.0,12.0,2.0,-59.0,-19.0,-11.0,-22.0,0.0
9.0,-16.0,-77.0,12.0,21.0,9.0,-113.0,-25.0,-21.0,-27.0,0.0
-1.0,-20.0,19.0,29.0,39.0,11.0,-58.0,-19.0,-15.0,-28.0,0.0
1.0,-24.0,32.0,30.0,44.0,12.0,23.0,-11.0,-6.0,-25.0,0.0
3.0,-22.0,30.0,29.0,48.0,7.0,57.0,-2.0,-10.0,-17.0,0.0
8.0,-21.0,23.0,20.0,45.0,12.0,92.0,-9.0,0.0,-13.0,0.0
12.0,-16.0,30.0,-1.0,38.0,1.0,151.0,-13.0,-3.0,-6.0,0.0
21.0,-12.0,31.0,-9.0,28.0,-2.0,185.0,-18.0,-16.0,1.0,0.0
14.0,-26.0,26.0,-11.0,18.0,-16.0,185.0,-24.0,-14.0,1.0,0.0
19.0,-31.0,12.0,-16.0,-1.0,-13.0,158.0,-12.0,1.0,-7.0,0.0
17.0,-22.0,4.0,-20.0,-14.0,-14.0,110.0,6.0,-1.0,-8.0,0.0
5.0,-14.0,-33.0,-20.0,-15.0,-29.0,26.0,9.0,-4.0,7.0,0.0
9.0,-8.0,-97.0,-25.0,-11.0,-36.0,1.0,1.0,-6.0,15.0,0.0
5.0,-7.0,-67.0,-32.0,-8.0,-25.0,-35.0,14.0,0.0,-1.0,0.0
3.0,-15.0,4.0,-31.0,1.0,-20.0,-73.0,18.0,-6.0,-17.0,0.0
-3.0,-19.0,10.0,-7.0,5.0,-25.0,-121.0,13.0,-3.0,-17.0,0.0
-23.0,-18.0,3.0,15.0,20.0,2.0,-211.0,13.0,5.0,-16.0,0.0
3.0,-3.0,8.0,24.0,40.0,9.0,-280.0,8.0,15.0,-18.0,0.0
8.0,5.0,18.0,35.0,39.0,21.0,-277.0,3.0,13.0,-24.0,0.0
4.0,14.0,24.0,48.0,48.0,28.0,-203.0,-16.0,0.0,-21.0,0.0
8.0,8.0,22.0,54.0,57.0,30.0,-119.0,-20.0,-11.0,-23.0,0.0
2.0,-8.0,-3.0,40.0,44.0,30.0,-43.0,-9.0,-19.0,-17.0,0.0
4.0,-14.0,-86.0,30.0,22.0,18.0,31.0,4.0,-22.0,-7.0,0.0
11.0,-1.0,-142.0,29.0,9.0,0.0,81.0,11.0,-15.0,-9.0,0.0
14.0,0.0,-140.0,6.0,4.0,-5.0,89.0,8.0,0.0,-5.0,0.0
13.0,1.0,-103.0,-2.0,-12.0,-13.0,72.0,12.0,0.0,-2.0,0.0
10.0,4.0,-3.0,-15.0,-31.0,-47.0,41.0,14.0,-17.0,-12.0,0.0
6.0,-4.0,20.0,-30.0,-37.0,-55.0,-5.0,16.0,-17.0,-10.0,0.0
5.0,-3.0,17.0,-39.0,-47.0,-50.0,-45.0,16.0,-14.0,-9.0,0.0
10.0,3.0,24.0,-53.0,-32.0,-41.0,-92.0,19.0,-16.0,-2.0,0.0
12.0,8.0,25.0,-32.0,-18.0,-45.0,-122.0,12.0,-14.0,6.0,0.0
5.0,12.0,19.0,-12.0,-4.0,-37.0,-157.0,17.0,-3.0,-1.0,0.0
8.0,13.0,15.0,-7.0,10.0,-23.0,-240.0,28.0,0.0,-4.0,0.0
10.0,14.0,22.0,13.0,30.0,3.0,-337.0,28.0,-7.0,-6.0,0.0
-1.0,-3.0,19.0,37.0,45.0,30.0,-403.0,25.0,-11.0,-15.0,0.0
-23.0,-20.0,14.0,54.0,65.0,64.0,-392.0,14.0,-17.0,-26.0,0.0
-25.0,-22.0,25.0,54.0,72.0,81.0,-319.0,4.0,-24.0,-27.0,0.0
-9.0,-13.0,15.0,55.0,68.0,78.0,-235.0,15.0,-15.0,-33.0,0.0
-6.0,-8.0,14.0,49.0,57.0,58.0,-170.0,20.0,-8.0,-25.0,0.0
11.0,11.0,37.0,42.0,22.0,9.0,-96.0,25.0,1.0,-3.0,0.0
9.0,11.0,-17.0,29.0,-6.0,-7.0,-11.0,27.0,21.0,13.0,0.0
6.0,0.0,-115.0,18.0,-20.0,-3.0,16.0,20.0,15.0,5.0,0.0
22.0,12.0,-2.0,8.0,-22.0,-18.0,4.0,3.0,-3.0,10.0,0.0
21.0,20.0,49.0,-16.0,-26.0,-25.0,-32.0,-5.0,0.0,13.0,0.0
15.0,15.0,21.0,-31.0,-49.0,-38.0,-92.0,-8.0,9.0,9.0,0.0
22.0,22.0,-51.0,-28.0,-48.0,-51.0,-125.0,-11.0,7.0,28.0,0.0
25.0,21.0,-110.0,-21.0,-30.0,-54.0,-148.0,-23.0,-4.0,25.0,0.0
18.0,13.0,-126.0,-18.0,-8.0,-47.0,-183.0,-26.0,5.0,6.0,0.0
6.0,12.0,-22.0,-11.0,5.0,-16.0,-220.0,-24.0,14.0,2.0,0.0
6.0,24.0,59.0,5.0,10.0,-18.0,-280.0,-24.0,8.0,22.0,0.0
5.0,20.0,71.0,38.0,9.0,-8.0,-350.0,-17.0,0.0,29.0,0.0
-8.0,14.0,77.0,55.0,18.0,8.0,-366.0,-5.0,-12.0,8.0,0.0
-27.0,4.0,84.0,76.0,47.0,25.0,-294.0,-10.0,-19.0,-1.0,0.0
-30.0,-4.0,71.0,76.0,65.0,54.0,-171.0,-13.0,-14.0,-9.0,0.0
-34.0,-6.0,11.0,75.0,80.0,88.0,-118.0,-25.0,-16.0,-14.0,0.0
-28.0,0.0,-67.0,63.0,58.0,80.0,-96.0,-23.0,-15.0,-6.0,0.0
-21.0,12.0,17.0,49.0,24.0,24.0,-31.0,-18.0,-7.0,-1.0,0.0
-25.0,13.0,24.0,28.0,-15.0,-2.0,23.0,-15.0,-11.0,3.0,0.0
-15.0,9.0,17.0,-5.0,-42.0,-16.0,31.0,-15.0,5.0,28.0,0.0
-14.0,5.0,34.0,-22.0,-51.0,-19.0,-8.0,-10.0,20.0,20.0,0.0
-21.0,-6.0,9.0,-40.0,-53.0,-12.0,-61.0,8.0,25.0,10.0,0.0
-17.0,-10.0,10.0,-51.0,-54.0,0.0,-90.0,31.0,34.0,22.0,0.0
-25.0,-22.0,13.0,-45.0,-50.0,11.0,-97.0,32.0,40.0,14.0,0.0
-36.0,-40.0,-59.0,-50.0,-39.0,37.0,-82.0,27.0,29.0,5.0,0.0
-34.0,-32.0,-157.0,-45.0,-34.0,34.0,-75.0,25.0,31.0,-5.0,0.0
-31.0,-17.0,-160.0,-26.0,-25.0,10.0,-130.0,18.0,15.0,-7.0,0.0
-17.0,-9.0,-129.0,-23.0,-19.0,-7.0,-203.0,10.0,-7.0,-7.0,0.0
2.0,7.0,-35.0,-10.0,-23.0,-22.0,-253.0,9.0,-13.0,11.0,0.0
-5.0,13.0,74.0,8.0,-11.0,-12.0,-217.0,3.0,5.0,15.0,0.0
-2.0,11.0,92.0,16.0,0.0,-5.0,-130.0,-20.0,2.0,10.0,0.0
7.0,5.0,73.0,26.0,8.0,6.0,-56.0,-21.0,-7.0,3.0,0.0
-14.0,10.0,60.0,36.0,16.0,15.0,18.0,-21.0,0.0,-5.0,0.0
-15.0,6.0,68.0,29.0,15.0,25.0,79.0,-17.0,9.0,4.0,0.0
-7.0,4.0,58.0,8.0,12.0,13.0,141.0,-7.0,9.0,9.0,0.0
-5.0,4.0,45.0,5.0,4.0,-1.0,175.0,0.0,4.0,4.0,0.0
5.0,-1.0,37.0,12.0,-11.0,-19.0,173.0,3.0,5.0,9.0,0.0
4.0,-7.0,33.0,-8.0,-25.0,-35.0,124.0,19.0,2.0,7.0,0.0
-16.0,-10.0,24.0,-20.0,-28.0,-41.0,96.0,35.0,-1.0,0.0,0.0
-21.0,-12.0,3.0,-33.0,-27.0,-36.0,73.0,26.0,5.0,-5.0,0.0
-16.0,-9.0,-29.0,-46.0,-17.0,-33.0,59.0,3.0,10.0,-10.0,0.0
-18.0,-1.0,-11.0,-36.0,-18.0,-34.0,44.0,-3.0,6.0,-14.0,0.0
-13.0,2.0,0.0,-23.0,-6.0,-18.0,9.0,-4.0,21.0,-18.0,0.0
-13.0,-7.0,8.0,-3.0,3.0,-8.0,-53.0,-1.0,26.0,-11.0,0.0
-22.0,-17.0,9.0,-7.0,8.0,18.0,-129.0,0.0,41.0,-4.0,0.0
-41.0,-21.0,21.0,-10.0,8.0,39.0,-146.0,0.0,30.0,-9.0,0.0
-38.0,-9.0,28.0,0.0,30.0,48.0,-75.0,-1.0,12.0,-11.0,0.0
-27.0,-13.0,28.0,22.0,40.0,42.0,-1.0,-2.0,4.0,-12.0,0.0
-7.0,0.0,36.0,26.0,11.0,15.0,59.0,3.0,2.0,-12.0,0.0
3.0,1.0,37.0,17.0,-9.0,-14.0,136.0,2.0,13.0,-2.0,0.0
-9.0,-2.0,23.0,20.0,-9.0,1.0,202.0,5.0,3.0,1.0,0.0
-8.0,-13.0,-28.0,11.0,-8.0,4.0,246.0,14.0,14.0,21.0,0.0
0.0,-12.0,-126.0,-9.0,-16.0,-12.0,244.0,18.0,31.0,19.0,0.0
0.0,-15.0,-79.0,-17.0,-32.0,-20.0,226.0,4.0,33.0,7.0,0.0
-11.0,-17.0,-10.0,-23.0,-29.0,-16.0,188.0,15.0,33.0,3.0,0.0
-12.0,-23.0,-13.0,-37.0,-18.0,-22.0,158.0,24.0,32.0,29.0,0.0
1.0,-19.0,-13.0,-36.0,-19.0,-23.0,143.0,20.0,30.0,27.0,0.0
16.0,-9.0,-1.0,-23.0,-17.0,-18.0,137.0,16.0,19.0,11.0,0.0
19.0,-14.0,-2.0,-10.0,-4.0,-12.0,108.0,4.0,17.0,13.0,0.0
8.0,-18.0,-44.0,3.0,23.0,-7.0,37.0,8.0,-4.0,15.0,0.0
-3.0,-14.0,-47.0,14.0,34.0,-1.0,-63.0,14.0,1.0,12.0,0.0
2.0,-12.0,27.0,27.0,27.0,-9.0,-142.0,16.0,-2.0,24.0,0.0
4.0,-11.0,30.0,35.0,28.0,-4.0,-151.0,3.0,-12.0,28.0,0.0
5.0,-8.0,29.0,31.0,44.0,1.0,-53.0,-5.0,-28.0,14.0,0.0
7.0,-3.0,44.0,37.0,57.0,7.0,76.0,-16.0,-30.0,-3.0,0.0
-2.0,-4.0,41.0,32.0,45.0,18.0,139.0,-20.0,-17.0,2.0,0.0
-11.0,-13.0,33.0,36.0,35.0,7.0,149.0,-6.0,-2.0,13.0,0.0
-4.0,-23.0,27.0,27.0,30.0,8.0,201.0,12.0,0.0,12.0,0.0
2.0,-29.0,9.0,-8.0,17.0,7.0,246.0,18.0,20.0,12.0,0.0
0.0,-19.0,9.0,-28.0,10.0,5.0,227.0,17.0,18.0,11.0,0.0
11.0,-8.0,-2.0,-39.0,5.0,-9.0,157.0,9.0,20.0,0.0,0.0
12.0,0.0,-76.0,-41.0,-3.0,-27.0,99.0,5.0,23.0,-10.0,0.0
5.0,-11.0,-91.0,-37.0,-16.0,-31.0,66.0,12.0,25.0,5.0,0.0
21.0,-8.0,-18.0,-36.0,-21.0,-24.0,13.0,17.0,13.0,11.0,0.0
26.0,4.0,0.0,-30.0,-16.0,-17.0,0.0,17.0,12.0,4.0,0.0
12.0,-3.0,0.0,-29.0,-17.0,-11.0,-30.0,15.0,21.0,3.0,0.0
7.0,-8.0,9.0,-17.0,-11.0,2.0,-113.0,7.0,17.0,0.0,0.0
6.0,-15.0,3.0,-8.0,-1.0,8.0,-216.0,-4.0,10.0,-4.0,0.0
0.0,-20.0,11.0,4.0,10.0,14.0,-262.0,-18.0,-1.0,-7.0,0.0
-2.0,-9.0,10.0,11.0,21.0,16.0,-193.0,-16.0,-7.0,1.0,0.0
-5.0,-9.0,8.0,16.0,22.0,30.0,-93.0,-13.0,1.0,0.0,0.0
1.0,-9.0,21.0,20.0,22.0,42.0,-30.0,-12.0,5.0,-5.0,0.0
16.0,-14.0,25.0,24.0,12.0,44.0,20.0,-8.0,10.0,-13.0,0.0
29.0,-2.0,21.0,29.0,10.0,33.0,93.0,-5.0,-2.0,-15.0,0.0
24.0,2.0,18.0,9.0,3.0,22.0,122.0,-1.0,4.0,5.0,0.0
6.0,-4.0,10.0,-4.0,-13.0,-3.0,122.0,-3.0,9.0,10.0,0.0
19.0,-6.0,-38.0,-5.0,-17.0,-13.0,135.0,2.0,0.0,-2.0,0.0
30.0,-8.0,-55.0,-24.0,-25.0,-20.0,104.0,9.0,-5.0,6.0,0.0
34.0,-2.0,-13.0,-40.0,-40.0,-35.0,58.0,3.0,-3.0,3.0,0.0
37.0,6.0,-1.0,-50.0,-41.0,-33.0,49.0,-2.0,-2.0,2.0,0.0
26.0,4.0,-25.0,-40.0,-30.0,-11.0,25.0,4.0,-5.0,10.0,0.0
17.0,10.0,-59.0,-37.0,-15.0,-9.0,-12.0,15.0,-12.0,13.0,0.0
9.0,5.0,-92.0,-27.0,-8.0,-7.0,-50.0,15.0,0.0,5.0,0.0
-9.0,5.0,-98.0,-4.0,-3.0,0.0,-153.0,13.0,7.0,12.0,0.0
-21.0,11.0,-104.0,6.0,-8.0,13.0,-238.0,11.0,12.0,14.0,0.0
-21.0,0.0,-127.0,20.0,-1.0,35.0,-254.0,1.0,-5.0,14.0,0.0
-27.0,-1.0,-28.0,12.0,18.0,41.0,-168.0,-13.0,-7.0,-1.0,0.0
-25.0,0.0,48.0,15.0,28.0,46.0,-74.0,-30.0,-22.0,-11.0,0.0
-12.0,5.0,69.0,25.0,25.0,44.0,-9.0,-46.0,-36.0,-12.0,0.0
0.0,0.0,65.0,22.0,16.0,38.0,57.0,-55.0,-44.0,4.0,0.0
4.0,-6.0,-14.0,13.0,12.0,29.0,134.0,-49.0,-46.0,5.0,0.0
7.0,-1.0,-114.0,-3.0,-1.0,4.0,174.0,-36.0,-18.0,-3.0,0.0
12.0,0.0,-72.0,-22.0,-19.0,-8.0,181.0,-15.0,-5.0,3.0,0.0
11.0,8.0,50.0,-29.0,-22.0,-24.0,146.0,0.0,16.0,-8.0,0.0
13.0,9.0,31.0,-40.0,-22.0,-36.0,84.0,1.0,34.0,-4.0,0.0
9.0,17.0,-39.0,-47.0,-29.0,-36.0,35.0,-2.0,11.0,6.0,0.0
6.0,8.0,30.0,-42.0,-19.0,-35.0,2.0,0.0,9.0,-5.0,0.0
12.0,-13.0,46.0,-37.0,-15.0,-30.0,-33.0,-1.0,0.0,-8.0,0.0
24.0,-3.0,39.0,-32.0,-17.0,-30.0,-63.0,-2.0,-4.0,-15.0,0.0
19.0,1.0,32.0,-26.0,5.0,-8.0,-138.0,-3.0,-12.0,-20.0,0.0
14.0,2.0,-18.0,-14.0,18.0,-2.0,-221.0,-6.0,-24.0,-10.0,0.0
10.0,20.0,-67.0,-10.0,23.0,-19.0,-284.0,-8.0,-8.0,5.0,0.0
15.0,18.0,44.0,8.0,25.0,-15.0,-263.0,-23.0,-13.0,15.0,0.0
19.0,4.0,75.0,18.0,11.0,-4.0,-182.0,-44.0,-29.0,12.0,0.0
8.0,4.0,72.0,14.0,7.0,11.0,-91.0,-39.0,-24.0,8.0,0.0
7.0,10.0,65.0,23.0,2.0,20.0,-14.0,-29.0,-3.0,-1.0,0.0
13.0,22.0,76.0,25.0,-11.0,17.0,42.0,-26.0,16.0,-5.0,0.0
16.0,17.0,59.0,14.0,-11.0,10.0,79.0,-20.0,18.0,-2.0,0.0
15.0,17.0,40.0,-15.0,-10.0,-2.0,88.0,-15.0,12.0,5.0,0.0
25.0,14.0,38.0,-21.0,-2.0,-3.0,49.0,-5.0,11.0,-2.0,0.0
35.0,17.0,49.0,-8.0,-10.0,-22.0,-15.0,-4.0,7.0,-6.0,0.0
22.0,18.0,45.0,-13.0,-23.0,-51.0,-82.0,-12.0,-2.0,-14.0,0.0
8.0,11.0,23.0,-23.0,-38.0,-56.0,-131.0,-11.0,5.0,-5.0,0.0
-3.0,6.0,6.0,-32.0,-44.0,-51.0,-166.0,2.0,15.0,-8.0,0.0
3.0,13.0,-3.0,-42.0,-58.0,-33.0,-163.0,15.0,15.0,-14.0,0.0
6.0,10.0,-2.0,-44.0,-57.0,-2.0,-167.0,18.0,27.0,-18.0,0.0
-5.0,7.0,-7.0,-17.0,-31.0,17.0,-253.0,23.0,8.0,-22.0,0.0
-17.0,6.0,0.0,5.0,-2.0,30.0,-342.0,4.0,-4.0,-34.0,0.0
-12.0,1.0,-20.0,28.0,23.0,45.0,-355.0,-13.0,-16.0,-34.0,0.0
-21.0,-6.0,-34.0,41.0,20.0,47.0,-272.0,-25.0,-15.0,-12.0,0.0
-7.0,9.0,17.0,35.0,2.0,8.0,-176.0,-26.0,-11.0,5.0,0.0
4.0,23.0,41.0,21.0,-18.0,-8.0,-126.0,-26.0,-6.0,19.0,0.0
13.0,20.0,46.0,2.0,-31.0,-11.0,-64.0,-18.0,23.0,20.0,0.0
-9.0,13.0,35.0,-17.0,-51.0,-25.0,2.0,-9.0,20.0,11.0,0.0
-47.0,9.0,30.0,-30.0,-66.0,-36.0,49.0,-12.0,24.0,13.0,0.0
-57.0,5.0,15.0,-26.0,-55.0,-29.0,50.0,-5.0,14.0,2.0,0.0
-42.0,1.0,-1.0,-28.0,-56.0,-25.0,16.0,2.0,8.0,6.0,0.0
-12.0,1.0,-32.0,-29.0,-62.0,-26.0,-23.0,0.0,-2.0,-5.0,0.0
-9.0,0.0,-136.0,-24.0,-45.0,-24.0,-68.0,-9.0,-3.0,-31.0,0.0
-13.0,-1.0,-108.0,-4.0,-15.0,-15.0,-94.0,-10.0,-8.0,-25.0,0.0
-17.0,-7.0,-24.0,2.0,10.0,-2.0,-84.0,-13.0,-1.0,-17.0,0.0
-21.0,-15.0,-11.0,11.0,14.0,15.0,-58.0,-1.0,-8.0,-15.0,0.0
-1.0,-4.0,-62.0,7.0,6.0,18.0,-65.0,13.0,0.0,-6.0,0.0
4.0,8.0,-78.0,0.0,-4.0,20.0,-109.0,9.0,-10.0,6.0,0.0
13.0,1.0,24.0,4.0,-15.0,10.0,-156.0,2.0,-7.0,10.0,0.0
0.0,-26.0,30.0,-9.0,-19.0,10.0,-143.0,2.0,-2.0,4.0,0.0
-9.0,-42.0,25.0,-17.0,-6.0,22.0,-56.0,6.0,-7.0,0.0,0.0
8.0,-35.0,30.0,8.0,7.0,28.0,42.0,11.0,-19.0,-7.0,0.0
3.0,-28.0,-36.0,9.0,15.0,33.0,120.0,15.0,-21.0,0.0,0.0
-1.0,-16.0,-120.0,-2.0,5.0,35.0,174.0,16.0,-19.0,-9.0,0.0
-4.0,-12.0,-105.0,-15.0,5.0,23.0,200.0,15.0,-17.0,-5.0,0.0
10.0,-11.0,-28.0,-28.0,0.0,3.0,214.0,19.0,-22.0,-14.0,0.0
27.0,-7.0,18.0,-34.0,-21.0,-9.0,216.0,24.0,-8.0,-16.0,0.0
31.0,-11.0,3.0,-32.0,-27.0,-10.0,195.0,30.0,5.0,-10.0,0.0
43.0,-14.0,6.0,-23.0,-25.0,-25.0,170.0,29.0,-8.0,1.0,0.0
46.0,-13.0,8.0,-38.0,-27.0,-39.0,147.0,24.0,12.0,0.0,0.0
39.0,-4.0,7.0,-33.0,-22.0,-23.0,124.0,9.0,13.0,-5.0,0.0
38.0,2.0,5.0,-23.0,9.0,-8.0,99.0,4.0,15.0,-3.0,0.0
21.0,1.0,5.0,-13.0,29.0,-3.0,85.0,10.0,4.0,2.0,0.0
12.0,-9.0,-34.0,15.0,30.0,6.0,15.0,22.0,-3.0,0.0,0.0
6.0,-6.0,-14.0,28.0,31.0,12.0,-99.0,22.0,-19.0,-8.0,0.0
4.0,-6.0,49.0,24.0,28.0,10.0,-133.0,19.0,-22.0,-10.0,0.0
0.0,-4.0,47.0,25.0,19.0,14.0,-73.0,10.0,-18.0,-8.0,0.0
-6.0,5.0,26.0,14.0,22.0,19.0,21.0,-4.0,-22.0,-6.0,0.0
-4.0,0.0,-8.0,17.0,31.0,31.0,108.0,-2.0,-14.0,-12.0,0.0
5.0,4.0,-103.0,26.0,24.0,25.0,197.0,-1.0,-5.0,-14.0,0.0
14.0,10.0,-50.0,29.0,14.0,17.0,255.0,-1.0,-5.0,-10.0,0.0
-4.0,10.0,43.0,15.0,15.0,3.0,285.0,-2.0,-15.0,-7.0,0.0
-1.0,6.0,38.0,10.0,6.0,-7.0,280.0,0.0,-8.0,0.0,0.0
15.0,2.0,28.0,-8.0,-1.0,-17.0,242.0,7.0,-15.0,3.0,0.0
9.0,-11.0,22.0,-22.0,-4.0,-18.0,195.0,12.0,-21.0,-3.0,0.0
-15.0,-13.0,26.0,-16.0,0.0,-13.0,162.0,18.0,-11.0,-12.0,0.0
-11.0,-10.0,39.0,-9.0,1.0,-10.0,119.0,20.0,-13.0,-6.0,0.0
1.0,-6.0,31.0,-14.0,-5.0,-19.0,89.0,18.0,-1.0,-4.0,0.0
3.0,-4.0,29.0,-11.0,-15.0,-25.0,62.0,24.0,-2.0,1.0,0.0
6.0,-1.0,36.0,-13.0,-24.0,-17.0,9.0,23.0,-8.0,0.0,0.0
18.0,-5.0,41.0,-6.0,-12.0,-27.0,-59.0,32.0,3.0,20.0,0.0
20.0,0.0,42.0,2.0,-3.0,-45.0,-111.0,32.0,8.0,36.0,0.0
20.0,3.0,53.0,13.0,-7.0,-48.0,-103.0,23.0,-1.0,23.0,0.0
13.0,-2.0,39.0,24.0,7.0,-31.0,-9.0,21.0,7.0,16.0,0.0
1.0,-15.0,-73.0,20.0,14.0,2.0,85.0,28.0,-10.0,2.0,0.0
-22.0,-24.0,-141.0,5.0,8.0,44.0,146.0,35.0,-16.0,-14.0,0.0
-20.0,-21.0,-59.0,-4.0,14.0,50.0,197.0,21.0,0.0,-13.0,0.0
-3.0,-9.0,44.0,-5.0,14.0,8.0,256.0,12.0,4.0,-12.0,0.0
1.0,-7.0,52.0,0.0,4.0,-22.0,288.0,13.0,-2.0,-4.0,0.0
-9.0,4.0,38.0,-11.0,-3.0,-17.0,301.0,8.0,-1.0,2.0,0.0
-36.0,4.0,15.0,-37.0,-2.0,-19.0,265.0,10.0,3.0,-2.0,0.0
-25.0,0.0,-75.0,-40.0,-1.0,-26.0,218.0,25.0,2.0,-8.0,0.0
-9.0,7.0,-164.0,-40.0,-13.0,-25.0,196.0,23.0,9.0,-6.0,0.0
-15.0,5.0,-171.0,-24.0,-20.0,-22.0,170.0,12.0,15.0,-3.0,0.0
-22.0,-7.0,-159.0,-17.0,-8.0,1.0,138.0,17.0,28.0,3.0,0.0
-26.0,-4.0,-48.0,-16.0,-1.0,16.0,103.0,8.0,25.0,14.0,0.0
-14.0,8.0,1.0,3.0,0.0,17.0,42.0,-8.0,16.0,21.0,0.0
-15.0,17.0,-6.0,18.0,11.0,23.0,-44.0,-20.0,5.0,13.0,0.0
-13.0,14.0,48.0,25.0,17.0,5.0,-120.0,-25.0,4.0,-2.0,0.0
-2.0,19.0,62.0,36.0,12.0,-18.0,-84.0,-33.0,-6.0,5.0,0.0
8.0,26.0,73.0,35.0,7.0,-21.0,5.0,-35.0,0.0,19.0,0.0
1.0,19.0,62.0,28.0,11.0,-16.0,63.0,-28.0,-2.0,10.0,0.0
-8.0,17.0,54.0,33.0,16.0,-3.0,102.0,-26.0,0.0,21.0,0.0
-7.0,23.0,34.0,19.0,24.0,3.0,170.0,-26.0,14.0,22.0,0.0
-4.0,24.0,-56.0,-1.0,27.0,-2.0,198.0,-21.0,12.0,16.0,0.0
-15.0,19.0,-64.0,2.0,15.0,0.0,186.0,-14.0,2.0,15.0,0.0
-15.0,10.0,28.0,7.0,13.0,-2.0,151.0,-9.0,0.0,14.0,0.0
-23.0,12.0,47.0,0.0,5.0,-14.0,99.0,-7.0,16.0,4.0,0.0
-22.0,19.0,36.0,-10.0,3.0,-34.0,40.0,0.0,19.0,6.0,0.0
-1.0,28.0,22.0,-28.0,-7.0,-59.0,9.0,-2.0,9.0,21.0,0.0
4.0,32.0,-44.0,-22.0,-20.0,-61.0,-18.0,3.0,9.0,21.0,0.0
-4.0,11.0,5.0,-27.0,-13.0,-35.0,-50.0,3.0,3.0,18.0,0.0
-7.0,3.0,37.0,-45.0,-19.0,-16.0,-96.0,7.0,9.0,20.0,0.0
-9.0,5.0,46.0,-26.0,-14.0,-8.0,-184.0,-1.0,5.0,14.0,0.0
-6.0,7.0,50.0,-2.0,-6.0,4.0,-268.0,-2.0,2.0,4.0,0.0
-1.0,4.0,44.0,4.0,5.0,16.0,-294.0,-3.0,-18.0,-9.0,0.0
-6.0,-5.0,48.0,24.0,20.0,30.0,-235.0,-1.0,-29.0,-18.0,0.0
-19.0,-9.0,57.0,36.0,24.0,39.0,-153.0,0.0,-30.0,-28.0,0.0
-3.0,-4.0,68.0,50.0,15.0,34.0,-72.0,3.0,-8.0,-20.0,0.0
9.0,5.0,73.0,55.0,17.0,35.0,1.0,-3.0,-4.0,-15.0,0.0
14.0,3.0,66.0,46.0,11.0,16.0,72.0,-10.0,-5.0,-14.0,0.0
10.0,-3.0,40.0,28.0,-3.0,11.0,104.0,3.0,-2.0,0.0,0.0
10.0,-1.0,25.0,7.0,-14.0,3.0,108.0,12.0,8.0,12.0,0.0
10.0,-4.0,1.0,-8.0,-24.0,-14.0,88.0,18.0,6.0,6.0,0.0
0.0,-5.0,-65.0,-19.0,-34.0,-32.0,49.0,15.0,-1.0,9.0,0.0
-10.0,-2.0,-34.0,-16.0,-33.0,-23.0,2.0,19.0,-13.0,15.0,0.0
-12.0,0.0,-7.0,-17.0,-26.0,-18.0,-25.0,24.0,-7.0,2.0,0.0
-4.0,-3.0,-11.0,-22.0,-27.0,-19.0,-32.0,26.0,-3.0,0.0,0.0
-3.0,1.0,-53.0,-20.0,-21.0,-19.0,-54.0,26.0,3.0,12.0,0.0
-11.0,0.0,-47.0,-10.0,-7.0,-1.0,-119.0,15.0,-9.0,9.0,0.0
-14.0,-5.0,3.0,-11.0,0.0,27.0,-203.0,0.0,-14.0,-12.0,0.0
-3.0,-3.0,23.0,3.0,11.0,37.0,-261.0,-11.0,-18.0,-13.0,0.0
-1.0,-11.0,35.0,13.0,12.0,51.0,-240.0,-16.0,-1.0,10.0,0.0
1.0,-9.0,28.0,29.0,22.0,47.0,-156.0,6.0,27.0,12.0,0.0
4.0,0.0,37.0,42.0,20.0,38.0,-58.0,19.0,24.0,2.0,0.0
3.0,0.0,41.0,34.0,12.0,24.0,18.0,3.0,4.0,12.0,0.0
2.0,1.0,49.0,18.0,14.0,28.0,69.0,-1.0,-2.0,5.0,0.0
-12.0,-16.0,46.0,8.0,29.0,24.0,117.0,-6.0,-4.0,4.0,0.0
-25.0,-19.0,36.0,0.0,22.0,13.0,144.0,-12.0,-10.0,14.0,0.0
-19.0,-15.0,25.0,-6.0,9.0,1.0,126.0,-3.0,1.0,14.0,0.0
-25.0,-12.0,13.0,-14.0,0.0,-14.0,61.0,5.0,10.0,14.0,0.0
-15.0,-13.0,4.0,-25.0,-12.0,-29.0,-7.0,3.0,11.0,10.0,0.0
-17.0,-11.0,0.0,-30.0,-34.0,-30.0,-51.0,1.0,5.0,3.0,0.0
-17.0,-10.0,-30.0,-37.0,-49.0,-26.0,-82.0,2.0,8.0,17.0,0.0
-13.0,-8.0,-77.0,-35.0,-46.0,-31.0,-107.0,2.0,11.0,10.0,0.0
-11.0,-10.0,-12.0,-12.0,-18.0,-13.0,-117.0,5.0,6.0,3.0,0.0
-8.0,-9.0,10.0,0.0,5.0,16.0,-184.0,8.0,13.0,7.0,0.0
-16.0,-18.0,-10.0,27.0,16.0,30.0,-289.0,-9.0,-3.0,-5.0,0.0
-18.0,-18.0,-49.0,44.0,16.0,41.0,-342.0,-16.0,-14.0,-9.0,0.0
-14.0,-4.0,-88.0,44.0,23.0,42.0,-291.0,-17.0,-13.0,-9.0,0.0
-13.0,-3.0,-19.0,48.0,22.0,40.0,-201.0,-13.0,-4.0,-5.0,0.0
-24.0,-3.0,-43.0,50.0,14.0,33.0,-105.0,-6.0,-5.0,-13.0,0.0
-33.0,-10.0,-72.0,30.0,5.0,32.0,-36.0,1.0,-4.0,-19.0,0.0
-21.0,-16.0,8.0,17.0,-15.0,20.0,25.0,12.0,-9.0,-4.0,0.0
-3.0,-4.0,-70.0,6.0,-30.0,14.0,73.0,2.0,-11.0,2.0,0.0
9.0,4.0,-106.0,10.0,-25.0,9.0,65.0,6.0,-1.0,0.0,0.0
12.0,-1.0,9.0,-5.0,-25.0,0.0,44.0,16.0,18.0,-2.0,0.0
1.0,0.0,44.0,-31.0,-34.0,-12.0,-15.0,16.0,30.0,8.0,0.0
-13.0,18.0,42.0,-33.0,-38.0,-18.0,-79.0,15.0,32.0,2.0,0.0
-6.0,20.0,35.0,-42.0,-35.0,-36.0,-104.0,25.0,28.0,12.0,0.0
0.0,2.0,26.0,-35.0,-29.0,-37.0,-136.0,32.0,27.0,15.0,0.0
-1.0,-1.0,21.0,-24.0,-25.0,-25.0,-164.0,33.0,16.0,2.0,0.0
-18.0,3.0,14.0,-24.0,-26.0,-13.0,-216.0,36.0,28.0,10.0,0.0
-39.0,-4.0,8.0,-20.0,-16.0,-19.0,-322.0,32.0,21.0,6.0,0.0
-37.0,0.0,5.0,-9.0,-14.0,-31.0,-389.0,30.0,23.0,7.0,0.0
-29.0,-4.0,-3.0,2.0,-9.0,-22.0,-377.0,20.0,-1.0,-8.0,0.0
-16.0,0.0,6.0,16.0,7.0,-11.0,-307.0,13.0,-13.0,-17.0,0.0
-24.0,0.0,23.0,27.0,16.0,0.0,-219.0,-4.0,-13.0,-21.0,0.0
-24.0,12.0,15.0,38.0,22.0,11.0,-141.0,-18.0,-6.0,-27.0,0.0
-18.0,9.0,5.0,43.0,19.0,23.0,-41.0,-24.0,0.0,-25.0,0.0
-22.0,9.0,-46.0,37.0,6.0,24.0,51.0,-17.0,-6.0,-17.0,0.0
-21.0,3.0,-19.0,28.0,2.0,15.0,70.0,-13.0,-14.0,-23.0,0.0
-7.0,6.0,-7.0,24.0,0.0,2.0,53.0,-27.0,-19.0,-17.0,0.0
0.0,6.0,-111.0,16.0,14.0,2.0,11.0,-32.0,-13.0,-9.0,0.0
0.0,12.0,-169.0,12.0,13.0,1.0,-26.0,-27.0,-5.0,-4.0,0.0
18.0,22.0,-141.0,13.0,-7.0,-25.0,-62.0,-27.0,0.0,19.0,0.0
35.0,38.0,-51.0,14.0,-33.0,-68.0,-94.0,-24.0,13.0,17.0,0.0
29.0,33.0,-78.0,7.0,-44.0,-77.0,-111.0,-22.0,11.0,31.0,0.0
24.0,21.0,-46.0,4.0,-36.0,-55.0,-153.0,-23.0,21.0,20.0,0.0
21.0,20.0,-87.0,-11.0,-41.0,-26.0,-219.0,-19.0,3.0,15.0,0.0
25.0,23.0,-98.0,-6.0,-26.0,-7.0,-310.0,-17.0,2.0,13.0,0.0
29.0,10.0,-13.0,0.0,-1.0,3.0,-354.0,-18.0,8.0,15.0,0.0
8.0,9.0,60.0,26.0,4.0,4.0,-312.0,-22.0,20.0,8.0,0.0
-13.0,8.0,59.0,36.0,5.0,21.0,-231.0,-10.0,-12.0,-6.0,0.0
-21.0,-4.0,60.0,25.0,19.0,29.0,-136.0,-21.0,-14.0,-11.0,0.0
-11.0,-6.0,71.0,17.0,13.0,17.0,-70.0,-41.0,-19.0,-19.0,0.0
0.0,3.0,71.0,17.0,9.0,17.0,-2.0,-44.0,-17.0,-9.0,0.0
1.0,2.0,70.0,5.0,8.0,13.0,50.0,-43.0,-8.0,1.0,0.0
12.0,17.0,59.0,0.0,7.0,3.0,53.0,-44.0,-16.0,-17.0,0.0
10.0,13.0,44.0,3.0,11.0,-6.0,28.0,-34.0,-2.0,-20.0,0.0
0.0,5.0,26.0,-7.0,28.0,-12.0,-3.0,-22.0,3.0,-22.0,0.0
0.0,10.0,-20.0,-5.0,27.0,-15.0,-30.0,-7.0,-3.0,-14.0,0.0
4.0,19.0,-96.0,-6.0,6.0,-36.0,-53.0,-12.0,7.0,5.0,0.0
-8.0,14.0,-126.0,-11.0,-15.0,-34.0,-71.0,-21.0,7.0,8.0,0.0
-16.0,10.0,-104.0,-3.0,-20.0,-22.0,-83.0,-5.0,0.0,2.0,0.0
-9.0,1.0,4.0,-17.0,-27.0,-15.0,-103.0,15.0,1.0,17.0,0.0
-19.0,-8.0,49.0,-22.0,-14.0,-4.0,-153.0,24.0,18.0,10.0,0.0
-28.0,-13.0,50.0,-6.0,3.0,14.0,-230.0,34.0,5.0,-2.0,0.0
-7.0,-10.0,-18.0,15.0,17.0,31.0,-247.0,37.0,2.0,-8.0,0.0
-5.0,-12.0,0.0,19.0,32.0,49.0,-191.0,10.0,0.0,-1.0,0.0
-16.0,-13.0,41.0,25.0,46.0,53.0,-107.0,0.0,-10.0,-29.0,0.0
-4.0,-10.0,43.0,44.0,46.0,46.0,-60.0,-6.0,-10.0,-24.0,0.0
15.0,1.0,46.0,46.0,22.0,26.0,-22.0,-14.0,-22.0,0.0,0.0
31.0,20.0,60.0,36.0,0.0,-7.0,68.0,-30.0,-28.0,4.0,0.0
32.0,28.0,63.0,20.0,-9.0,-20.0,135.0,-28.0,-17.0,21.0,0.0
51.0,20.0,47.0,0.0,-26.0,-17.0,158.0,-21.0,-5.0,29.0,0.0
43.0,5.0,33.0,-3.0,-25.0,-17.0,162.0,-3.0,-8.0,9.0,0.0
36.0,7.0,25.0,-20.0,-13.0,-24.0,131.0,20.0,-4.0,13.0,0.0
27.0,10.0,18.0,-35.0,-9.0,-16.0,115.0,29.0,-7.0,17.0,0.0
23.0,7.0,17.0,-18.0,-9.0,-9.0,96.0,19.0,-8.0,23.0,0.0
16.0,3.0,2.0,-11.0,-9.0,-7.0,90.0,9.0,-4.0,21.0,0.0
7.0,-4.0,-64.0,-11.0,-8.0,-11.0,70.0,15.0,-8.0,21.0,0.0
3.0,-6.0,-128.0,8.0,0.0,-1.0,27.0,13.0,-22.0,25.0,0.0
7.0,-17.0,-26.0,19.0,11.0,9.0,-40.0,0.0,-30.0,19.0,0.0
4.0,-19.0,44.0,8.0,15.0,13.0,-76.0,-6.0,-34.0,0.0,0.0
7.0,-4.0,28.0,15.0,23.0,34.0,-62.0,-5.0,-28.0,7.0,0.0
2.0,6.0,-78.0,24.0,31.0,49.0,-3.0,-5.0,-18.0,6.0,0.0
-1.0,17.0,-120.0,40.0,43.0,46.0,80.0,-9.0,-12.0,8.0,0.0
12.0,19.0,-97.0,40.0,34.0,35.0,160.0,-4.0,-5.0,13.0,0.0
15.0,19.0,-4.0,41.0,15.0,31.0,228.0,9.0,-15.0,0.0,0.0
10.0,2.0,71.0,45.0,13.0,34.0,309.0,5.0,-19.0,-3.0,0.0
9.0,3.0,75.0,29.0,12.0,19.0,344.0,0.0,-21.0,-10.0,0.0
8.0,-5.0,70.0,21.0,6.0,9.0,310.0,6.0,-17.0,-16.0,0.0
7.0,-7.0,54.0,8.0,-3.0,1.0,261.0,13.0,9.0,-15.0,0.0
4.0,-3.0,49.0,-6.0,-7.0,0.0,203.0,14.0,17.0,-1.0,0.0
5.0,-8.0,37.0,4.0,-6.0,-5.0,161.0,24.0,29.0,-5.0,0.0
10.0,-6.0,37.0,29.0,-3.0,-22.0,140.0,42.0,32.0,-9.0,0.0
14.0,10.0,44.0,9.0,-7.0,-19.0,128.0,39.0,14.0,-6.0,0.0
-5.0,14.0,29.0,-14.0,-1.0,-18.0,88.0,29.0,0.0,-2.0,0.0
-13.0,2.0,13.0,-25.0,-6.0,5.0,17.0,18.0,0.0,-13.0,0.0
-21.0,-7.0,7.0,-21.0,1.0,62.0,-63.0,9.0,8.0,-27.0,0.0
-32.0,0.0,16.0,-11.0,17.0,76.0,-95.0,-2.0,16.0,-22.0,0.0
-23.0,1.0,29.0,-5.0,22.0,63.0,-34.0,-10.0,6.0,-25.0,0.0
-14.0,5.0,39.0,16.0,37.0,48.0,30.0,-16.0,-12.0,-27.0,0.0
-11.0,21.0,52.0,42.0,47.0,21.0,98.0,-13.0,3.0,-19.0,0.0
5.0,29.0,54.0,48.0,10.0,-51.0,163.0,-15.0,7.0,-4.0,0.0
26.0,36.0,46.0,21.0,-20.0,-81.0,231.0,-12.0,18.0,16.0,0.0
17.0,33.0,39.0,-6.0,-18.0,-53.0,290.0,-1.0,21.0,24.0,0.0
17.0,24.0,28.0,-19.0,-14.0,-22.0,289.0,2.0,20.0,31.0,0.0
13.0,16.0,13.0,-26.0,-15.0,-23.0,245.0,-3.0,37.0,26.0,0.0
3.0,14.0,1.0,-29.0,-15.0,-35.0,199.0,-11.0,58.0,18.0,0.0
1.0,29.0,1.0,-36.0,-11.0,-33.0,183.0,-25.0,42.0,8.0,0.0
5.0,24.0,-8.0,-39.0,-3.0,-33.0,144.0,-32.0,33.0,20.0,0.0
11.0,21.0,-12.0,-25.0,2.0,-33.0,118.0,-47.0,6.0,13.0,0.0
4.0,20.0,-3.0,-22.0,2.0,-44.0,94.0,-68.0,-11.0,16.0,0.0
-1.0,15.0,4.0,-36.0,15.0,-32.0,46.0,-77.0,-4.0,16.0,0.0
-8.0,12.0,9.0,-33.0,27.0,-12.0,-26.0,-72.0,-5.0,8.0,0.0
-11.0,5.0,-10.0,-5.0,25.0,7.0,-101.0,-60.0,-7.0,-6.0,0.0
-17.0,-13.0,-91.0,14.0,27.0,18.0,-106.0,-55.0,-8.0,0.0,0.0
-21.0,-14.0,-55.0,31.0,23.0,31.0,-16.0,-51.0,-17.0,1.0,0.0
-18.0,-3.0,38.0,19.0,21.0,31.0,82.0,-43.0,-13.0,-1.0,0.0
-7.0,7.0,34.0,2.0,24.0,28.0,167.0,-39.0,-4.0,3.0,0.0
8.0,12.0,34.0,-10.0,5.0,23.0,222.0,-40.0,-10.0,17.0,0.0
9.0,13.0,21.0,-10.0,0.0,0.0,272.0,-30.0,-8.0,21.0,0.0
9.0,9.0,10.0,0.0,-2.0,5.0,311.0,-14.0,-13.0,27.0,0.0
11.0,14.0,5.0,-16.0,-20.0,-3.0,319.0,-17.0,-25.0,21.0,0.0
14.0,12.0,-2.0,-22.0,-16.0,-22.0,280.0,-12.0,-16.0,1.0,0.0
0.0,-7.0,-17.0,-33.0,0.0,-12.0,247.0,0.0,-5.0,2.0,0.0
4.0,-5.0,-21.0,-40.0,-2.0,-3.0,210.0,17.0,-10.0,-4.0,0.0
3.0,-5.0,-10.0,-29.0,2.0,-11.0,198.0,23.0,6.0,-7.0,0.0
8.0,-7.0,2.0,-11.0,0.0,-6.0,180.0,6.0,20.0,-1.0,0.0
6.0,4.0,16.0,-5.0,-11.0,5.0,153.0,4.0,20.0,3.0,0.0
2.0,12.0,22.0,-14.0,-8.0,2.0,83.0,-2.0,24.0,5.0,0.0
-2.0,7.0,14.0,-4.0,-4.0,9.0,-19.0,-3.0,19.0,-7.0,0.0
-22.0,-3.0,0.0,2.0,-4.0,15.0,-64.0,-4.0,15.0,0.0,0.0
-26.0,0.0,6.0,7.0,2.0,18.0,-34.0,2.0,0.0,-5.0,0.0
-25.0,-3.0,13.0,22.0,16.0,33.0,35.0,12.0,-7.0,-17.0,0.0
-21.0,5.0,19.0,28.0,23.0,27.0,113.0,17.0,-22.0,-6.0,0.0
-5.0,15.0,22.0,19.0,12.0,32.0,143.0,2.0,-36.0,10.0,0.0
-5.0,5.0,22.0,0.0,11.0,33.0,179.0,-8.0,-37.0,6.0,0.0
-14.0,0.0,-28.0,0.0,5.0,29.0,244.0,2.0,-24.0,2.0,0.0
-7.0,-19.0,-61.0,-8.0,2.0,15.0,261.0,3.0,-21.0,0.0,0.0
7.0,-13.0,0.0,-18.0,-10.0,2.0,205.0,1.0,-23.0,10.0,0.0
6.0,-9.0,-4.0,-34.0,-18.0,8.0,150.0,-4.0,-10.0,21.0,0.0
14.0,-4.0,-15.0,-57.0,-27.0,-5.0,93.0,-3.0,-6.0,20.0,0.0
21.0,-7.0,-25.0,-56.0,-28.0,-10.0,26.0,15.0,1.0,15.0,0.0
-4.0,-14.0,-23.0,-35.0,-31.0,0.0,-18.0,25.0,0.0,5.0,0.0
-15.0,-8.0,-18.0,-15.0,-20.0,13.0,-12.0,34.0,-5.0,9.0,0.0
-2.0,-6.0,-6.0,-1.0,-12.0,26.0,-32.0,48.0,5.0,13.0,0.0
-14.0,-16.0,3.0,-1.0,-3.0,20.0,-135.0,49.0,-1.0,7.0,0.0
-13.0,-17.0,6.0,-2.0,9.0,32.0,-213.0,30.0,-18.0,-13.0,0.0
-6.0,-18.0,16.0,10.0,14.0,45.0,-218.0,19.0,-37.0,-4.0,0.0
-13.0,-15.0,22.0,16.0,12.0,59.0,-155.0,22.0,-41.0,-4.0,0.0
-14.0,-19.0,18.0,14.0,15.0,73.0,-74.0,25.0,-25.0,-14.0,0.0
-14.0,-17.0,15.0,19.0,27.0,66.0,-13.0,33.0,-16.0,-3.0,0.0
-11.0,-16.0,10.0,17.0,31.0,74.0,28.0,24.0,0.0,0.0,0.0
-8.0,-19.0,0.0,14.0,15.0,68.0,61.0,14.0,3.0,-8.0,0.0
-6.0,-16.0,-12.0,7.0,-1.0,59.0,91.0,13.0,0.0,-14.0,0.0
-3.0,-21.0,-32.0,7.0,-2.0,39.0,92.0,9.0,-13.0,-18.0,0.0
1.0,-21.0,-53.0,1.0,-1.0,16.0,78.0,21.0,-4.0,-8.0,0.0
9.0,-13.0,-34.0,-10.0,-10.0,-6.0,50.0,20.0,12.0,6.0,0.0
5.0,-4.0,-30.0,-19.0,-9.0,-11.0,29.0,12.0,12.0,0.0,0.0
10.0,0.0,-15.0,-18.0,-3.0,-27.0,28.0,5.0,5.0,2.0,0.0
12.0,5.0,-7.0,-1.0,-15.0,-29.0,10.0,-4.0,9.0,-6.0,0.0
3.0,1.0,-13.0,-1.0,-29.0,-41.0,-22.0,-15.0,4.0,-1.0,0.0
-4.0,0.0,-25.0,-4.0,-27.0,-33.0,-53.0,-5.0,11.0,0.0,0.0
-9.0,9.0,-34.0,0.0,-9.0,-10.0,-134.0,0.0,12.0,2.0,0.0
-4.0,15.0,-110.0,8.0,4.0,3.0,-177.0,-9.0,0.0,11.0,0.0
4.0,20.0,-97.0,18.0,6.0,14.0,-145.0,-19.0,2.0,6.0,0.0
-1.0,18.0,7.0,21.0,6.0,26.0,-77.0,-14.0,-3.0,0.0,0.0
1.0,9.0,38.0,24.0,16.0,38.0,-12.0,-5.0,-15.0,-13.0,0.0
6.0,0.0,33.0,34.0,21.0,26.0,38.0,-4.0,-10.0,-17.0,0.0
-7.0,1.0,-16.0,38.0,14.0,15.0,109.0,12.0,-12.0,-10.0,0.0
-17.0,-7.0,-23.0,21.0,17.0,21.0,173.0,10.0,1.0,-20.0,0.0
-11.0,-18.0,31.0,10.0,9.0,32.0,184.0,0.0,8.0,-24.0,0.0
-10.0,-8.0,31.0,-2.0,10.0,14.0,177.0,6.0,10.0,-25.0,0.0
-9.0,0.0,21.0,-9.0,7.0,-9.0,155.0,8.0,17.0,-11.0,0.0
-8.0,-7.0,-23.0,-29.0,-5.0,-15.0,119.0,11.0,30.0,-1.0,0.0
-4.0,-6.0,-28.0,-35.0,-6.0,-25.0,91.0,14.0,38.0,0.0,0.0
11.0,3.0,12.0,-24.0,-12.0,-39.0,62.0,20.0,45.0,7.0,0.0
7.0,10.0,16.0,-22.0,-10.0,-17.0,39.0,-2.0,40.0,6.0,0.0
15.0,15.0,-34.0,-31.0,-4.0,-15.0,3.0,-15.0,26.0,5.0,0.0
9.0,9.0,-98.0,-23.0,0.0,-12.0,-71.0,-8.0,26.0,16.0,0.0
-10.0,0.0,7.0,-12.0,15.0,7.0,-158.0,-17.0,24.0,6.0,0.0
-1.0,-2.0,66.0,0.0,23.0,11.0,-186.0,-25.0,23.0,8.0,0.0
0.0,-2.0,58.0,-2.0,16.0,14.0,-127.0,-15.0,3.0,-2.0,0.0
0.0,4.0,49.0,-1.0,7.0,13.0,-45.0,-12.0,5.0,1.0,0.0
-9.0,1.0,61.0,2.0,6.0,22.0,20.0,-14.0,14.0,10.0,0.0
-16.0,5.0,57.0,0.0,8.0,23.0,62.0,-1.0,18.0,13.0,0.0
-10.0,7.0,52.0,-8.0,5.0,13.0,120.0,0.0,5.0,-3.0,0.0
-9.0,-9.0,37.0,-13.0,10.0,9.0,163.0,1.0,-2.0,-13.0,0.0
-13.0,-21.0,33.0,-32.0,28.0,2.0,175.0,-3.0,0.0,-4.0,0.0
-11.0,-25.0,30.0,-40.0,36.0,-5.0,156.0,-6.0,3.0,-2.0,0.0
-6.0,-19.0,17.0,-40.0,19.0,-2.0,98.0,5.0,7.0,-7.0,0.0
7.0,-3.0,-17.0,-49.0,-4.0,-11.0,72.0,19.0,-1.0,11.0,0.0
27.0,-3.0,-83.0,-52.0,-36.0,-56.0,62.0,25.0,-9.0,26.0,0.0
35.0,9.0,-22.0,-51.0,-58.0,-80.0,38.0,20.0,3.0,26.0,0.0
32.0,-9.0,-6.0,-37.0,-45.0,-48.0,0.0,26.0,19.0,14.0,0.0
30.0,-16.0,-6.0,-6.0,-35.0,-32.0,-55.0,29.0,16.0,15.0,0.0
33.0,-16.0,3.0,4.0,-20.0,-25.0,-141.0,26.0,8.0,20.0,0.0
30.0,-17.0,21.0,9.0,-1.0,-15.0,-205.0,20.0,7.0,12.0,0.0
24.0,-24.0,33.0,30.0,9.0,0.0,-168.0,31.0,18.0,0.0,0.0
14.0,-33.0,29.0,48.0,24.0,32.0,-100.0,25.0,5.0,-14.0,0.0
16.0,-26.0,23.0,42.0,28.0,31.0,-50.0,14.0,-15.0,0.0,0.0
15.0,-15.0,30.0,44.0,22.0,15.0,22.0,-1.0,-24.0,7.0,0.0
19.0,1.0,37.0,42.0,9.0,-4.0,87.0,-16.0,-32.0,17.0,0.0
13.0,-3.0,29.0,26.0,8.0,-5.0,152.0,-15.0,-25.0,1.0,0.0
5.0,-2.0,-40.0,19.0,9.0,-12.0,178.0,-5.0,-21.0,1.0,0.0
24.0,2.0,-138.0,-2.0,-2.0,-29.0,186.0,-1.0,-23.0,7.0,0.0
18.0,4.0,-149.0,-13.0,-10.0,-44.0,160.0,1.0,-16.0,21.0,0.0
-11.0,5.0,-142.0,-18.0,-10.0,-38.0,126.0,15.0,0.0,26.0,0.0
-15.0,14.0,-99.0,-16.0,-2.0,-39.0,84.0,-9.0,-12.0,24.0,0.0
-6.0,14.0,9.0,-8.0,4.0,-21.0,56.0,-26.0,-27.0,4.0,0.0
-17.0,13.0,32.0,3.0,10.0,-14.0,41.0,-27.0,-29.0,-6.0,0.0
-28.0,0.0,23.0,14.0,20.0,-4.0,-3.0,-21.0,-19.0,-7.0,0.0
-26.0,3.0,39.0,11.0,18.0,-5.0,-76.0,-14.0,-10.0,-8.0,0.0
-15.0,12.0,63.0,20.0,6.0,-4.0,-164.0,-7.0,-8.0,-4.0,0.0
-13.0,10.0,40.0,18.0,-2.0,-1.0,-201.0,2.0,-19.0,0.0,0.0
-12.0,-3.0,-1.0,15.0,-20.0,-1.0,-142.0,1.0,-12.0,4.0,0.0
-1.0,-12.0,57.0,28.0,-11.0,13.0,-42.0,-3.0,5.0,-5.0,0.0
11.0,-5.0,74.0,27.0,7.0,16.0,48.0,-11.0,14.0,-1.0,0.0
13.0,7.0,70.0,31.0,12.0,17.0,84.0,-2.0,28.0,3.0,0.0
14.0,8.0,18.0,32.0,17.0,17.0,148.0,8.0,22.0,0.0,0.0
25.0,2.0,8.0,15.0,25.0,3.0,183.0,2.0,0.0,2.0,0.0
31.0,9.0,33.0,-8.0,21.0,-20.0,176.0,-15.0,-11.0,0.0,0.0
28.0,7.0,41.0,-9.0,10.0,-30.0,163.0,-17.0,0.0,-9.0,0.0
16.0,3.0,26.0,-11.0,-4.0,-23.0,120.0,-8.0,6.0,-10.0,0.0
31.0,6.0,22.0,-21.0,-15.0,-37.0,62.0,0.0,16.0,0.0,0.0
21.0,-3.0,20.0,-24.0,-19.0,-41.0,13.0,2.0,28.0,2.0,0.0
9.0,-8.0,16.0,-26.0,-7.0,-30.0,7.0,7.0,13.0,-12.0,0.0
3.0,4.0,6.0,-22.0,8.0,-19.0,3.0,11.0,23.0,-25.0,0.0
9.0,20.0,14.0,-15.0,9.0,-21.0,-20.0,0.0,1.0,-14.0,0.0
15.0,13.0,16.0,-9.0,24.0,-14.0,-88.0,-16.0,10.0,-2.0,0.0
15.0,5.0,25.0,-2.0,24.0,5.0,-179.0,-26.0,3.0,-3.0,0.0
3.0,-3.0,27.0,12.0,28.0,20.0,-207.0,-34.0,-2.0,-9.0,0.0
-5.0,-8.0,28.0,25.0,26.0,26.0,-153.0,-32.0,-12.0,-21.0,0.0
-13.0,2.0,36.0,40.0,20.0,24.0,-77.0,-25.0,-23.0,-25.0,0.0
-11.0,-3.0,43.0,40.0,2.0,28.0,-5.0,-30.0,-34.0,-32.0,0.0
-7.0,-3.0,40.0,21.0,-1.0,29.0,68.0,-26.0,-34.0,-12.0,0.0
-7.0,-3.0,38.0,9.0,-12.0,18.0,125.0,-10.0,-28.0,-5.0,0.0
0.0,-16.0,24.0,1.0,-19.0,-10.0,189.0,0.0,-7.0,-6.0,0.0
7.0,-25.0,11.0,3.0,-25.0,-20.0,223.0,2.0,20.0,-5.0,0.0
8.0,-9.0,-7.0,4.0,-27.0,-24.0,206.0,10.0,18.0,4.0,0.0
1.0,-14.0,3.0,-8.0,-28.0,-19.0,153.0,23.0,17.0,-8.0,0.0
-3.0,-24.0,8.0,-8.0,-15.0,-7.0,122.0,18.0,1.0,5.0,0.0
-7.0,-14.0,6.0,-14.0,0.0,-6.0,86.0,13.0,-9.0,5.0,0.0
-6.0,-4.0,0.0,-2.0,-2.0,-6.0,64.0,11.0,-8.0,12.0,0.0
7.0,6.0,9.0,13.0,-2.0,0.0,48.0,-5.0,-1.0,8.0,0.0
6.0,3.0,17.0,19.0,4.0,6.0,-2.0,-8.0,-5.0,2.0,0.0
-9.0,-3.0,16.0,30.0,9.0,9.0,-85.0,-5.0,-15.0,-3.0,0.0
-11.0,-6.0,25.0,25.0,21.0,18.0,-149.0,3.0,-13.0,-12.0,0.0
-16.0,0.0,31.0,29.0,26.0,27.0,-121.0,-8.0,-1.0,-2.0,0.0
-2.0,-3.0,-2.0,45.0,26.0,35.0,-37.0,-18.0,0.0,-1.0,0.0
10.0,-9.0,-62.0,60.0,31.0,32.0,56.0,-4.0,11.0,2.0,0.0
6.0,2.0,15.0,57.0,39.0,25.0,97.0,15.0,17.0,9.0,0.0
-5.0,-3.0,42.0,42.0,46.0,11.0,119.0,6.0,11.0,-3.0,0.0
-2.0,-7.0,6.0,36.0,31.0,-4.0,150.0,4.0,15.0,-4.0,0.0
-9.0,-3.0,-104.0,36.0,21.0,-3.0,155.0,7.0,11.0,6.0,0.0
-7.0,-16.0,-182.0,18.0,16.0,1.0,123.0,8.0,24.0,6.0,0.0
-7.0,-25.0,-138.0,-4.0,0.0,-12.0,64.0,9.0,12.0,-3.0,0.0
7.0,-23.0,-21.0,-7.0,-9.0,-24.0,22.0,20.0,19.0,-17.0,0.0
13.0,-8.0,10.0,-8.0,-19.0,-25.0,-19.0,21.0,1.0,-14.0,0.0
16.0,-3.0,2.0,-13.0,-21.0,-18.0,-49.0,12.0,3.0,-4.0,0.0
10.0,-2.0,8.0,-15.0,-14.0,-1.0,-46.0,12.0,17.0,0.0,0.0
-4.0,-4.0,18.0,-15.0,-4.0,-11.0,-81.0,19.0,29.0,6.0,0.0
5.0,0.0,23.0,-5.0,3.0,-26.0,-155.0,24.0,28.0,11.0,0.0
12.0,-10.0,43.0,8.0,11.0,-18.0,-261.0,3.0,23.0,10.0,0.0
4.0,-15.0,55.0,34.0,12.0,-3.0,-297.0,-7.0,-8.0,3.0,0.0
3.0,-4.0,40.0,41.0,15.0,6.0,-241.0,0.0,-12.0,-10.0,0.0
0.0,0.0,34.0,22.0,17.0,8.0,-147.0,3.0,0.0,-10.0,0.0
3.0,0.0,0.0,16.0,18.0,9.0,-78.0,0.0,-17.0,-1.0,0.0
5.0,-4.0,-97.0,5.0,15.0,13.0,-24.0,-1.0,-13.0,-2.0,0.0
3.0,-5.0,-133.0,-8.0,15.0,8.0,22.0,-5.0,3.0,8.0,0.0
7.0,-8.0,-121.0,0.0,21.0,3.0,54.0,-6.0,6.0,-3.0,0.0
4.0,-7.0,-49.0,-13.0,13.0,10.0,51.0,0.0,7.0,-18.0,0.0
-23.0,-10.0,29.0,-24.0,5.0,19.0,11.0,2.0,12.0,-3.0,0.0
-35.0,-6.0,37.0,-29.0,-3.0,8.0,-31.0,-2.0,24.0,8.0,0.0
-29.0,8.0,31.0,-52.0,-12.0,-8.0,-54.0,-8.0,31.0,0.0,0.0
-23.0,12.0,22.0,-60.0,-16.0,-21.0,-79.0,-3.0,21.0,11.0,0.0
-8.0,11.0,26.0,-40.0,-21.0,-53.0,-81.0,-2.0,19.0,12.0,0.0
6.0,15.0,49.0,-33.0,-39.0,-83.0,-92.0,4.0,13.0,20.0,0.0
11.0,16.0,41.0,-38.0,-33.0,-62.0,-160.0,0.0,23.0,20.0,0.0
-2.0,4.0,-37.0,-28.0,-19.0,-28.0,-268.0,7.0,17.0,1.0,0.0
-18.0,-3.0,-28.0,-14.0,-4.0,-7.0,-349.0,1.0,20.0,-13.0,0.0
-17.0,0.0,47.0,15.0,3.0,-1.0,-326.0,-14.0,3.0,-16.0,0.0
-18.0,0.0,56.0,26.0,4.0,21.0,-237.0,-5.0,7.0,-13.0,0.0
-23.0,-5.0,42.0,19.0,4.0,32.0,-151.0,5.0,-2.0,-20.0,0.0
-21.0,-9.0,41.0,4.0,13.0,36.0,-91.0,17.0,9.0,-26.0,0.0
-11.0,8.0,50.0,5.0,7.0,25.0,-32.0,10.0,-3.0,-21.0,0.0
-5.0,15.0,44.0,1.0,-2.0,4.0,44.0,5.0,-7.0,-5.0,0.0
3.0,21.0,-17.0,5.0,-14.0,-9.0,83.0,-8.0,-8.0,2.0,0.0
13.0,25.0,-33.0,-7.0,-27.0,-27.0,84.0,-8.0,-5.0,-3.0,0.0
16.0,17.0,23.0,0.0,-34.0,-38.0,83.0,3.0,0.0,-9.0,0.0
17.0,9.0,14.0,-7.0,-36.0,-46.0,28.0,5.0,7.0,1.0,0.0
5.0,0.0,12.0,-22.0,-29.0,-32.0,-48.0,20.0,-5.0,-4.0,0.0
4.0,-9.0,4.0,-15.0,-29.0,-23.0,-81.0,32.0,0.0,-22.0,0.0
-4.0,-16.0,2.0,-6.0,-29.0,-21.0,-88.0,29.0,-5.0,-26.0,0.0
-6.0,-16.0,13.0,-1.0,-19.0,-7.0,-137.0,15.0,-5.0,-26.0,0.0
-6.0,-22.0,-5.0,14.0,-18.0,0.0,-242.0,14.0,6.0,-28.0,0.0
-5.0,-11.0,-56.0,30.0,-13.0,-1.0,-328.0,28.0,6.0,-9.0,0.0
9.0,4.0,-74.0,49.0,-8.0,10.0,-350.0,25.0,9.0,7.0,0.0
5.0,4.0,20.0,50.0,9.0,31.0,-299.0,6.0,-1.0,-3.0,0.0
2.0,-6.0,47.0,40.0,20.0,37.0,-222.0,7.0,1.0,-10.0,0.0
-7.0,-16.0,38.0,37.0,16.0,31.0,-165.0,13.0,2.0,-19.0,0.0
-10.0,-12.0,26.0,48.0,18.0,23.0,-112.0,10.0,-8.0,-23.0,0.0
-9.0,-12.0,12.0,55.0,10.0,18.0,-14.0,1.0,-17.0,-17.0,0.0
-8.0,-8.0,31.0,48.0,-17.0,7.0,47.0,-6.0,-3.0,-4.0,0.0
-15.0,-9.0,30.0,23.0,-34.0,0.0,47.0,0.0,-9.0,0.0,0.0
19.0,-13.0,-7.0,0.0,-23.0,-54.0,-78.0,-31.0,14.0,12.0,0.0
5.0,-10.0,-12.0,0.0,-8.0,-40.0,-86.0,-25.0,0.0,18.0,0.0
-6.0,4.0,-11.0,4.0,7.0,-24.0,-95.0,-6.0,17.0,12.0,0.0
-7.0,0.0,-6.0,3.0,23.0,1.0,-174.0,12.0,14.0,12.0,0.0
-23.0,-13.0,-12.0,9.0,37.0,16.0,-262.0,15.0,9.0,11.0,0.0
-27.0,-17.0,-7.0,17.0,40.0,18.0,-282.0,5.0,0.0,-9.0,0.0
-41.0,-19.0,-6.0,26.0,45.0,18.0,-234.0,0.0,0.0,-19.0,0.0
-35.0,-12.0,-3.0,20.0,46.0,13.0,-151.0,-9.0,-18.0,-21.0,0.0
-31.0,-16.0,-2.0,14.0,33.0,17.0,-100.0,-7.0,-27.0,-15.0,0.0
-20.0,-13.0,-2.0,9.0,29.0,21.0,-56.0,0.0,-17.0,-6.0,0.0
-22.0,-16.0,-5.0,16.0,26.0,25.0,0.0,0.0,-24.0,6.0,0.0
-25.0,-12.0,-2.0,20.0,23.0,20.0,22.0,-2.0,-13.0,1.0,0.0
-12.0,0.0,-1.0,19.0,8.0,-5.0,46.0,-1.0,-7.0,8.0,0.0
0.0,-4.0,-1.0,11.0,-11.0,-17.0,36.0,0.0,4.0,17.0,0.0
4.0,5.0,-7.0,-14.0,-22.0,-35.0,1.0,10.0,16.0,26.0,0.0
10.0,0.0,-53.0,-7.0,-20.0,-37.0,-42.0,12.0,23.0,23.0,0.0
6.0,0.0,-161.0,0.0,-27.0,-35.0,-64.0,16.0,14.0,17.0,0.0
1.0,-5.0,-206.0,-11.0,-28.0,-26.0,-76.0,12.0,0.0,24.0,0.0
0.0,-18.0,-136.0,-9.0,-15.0,-28.0,-102.0,14.0,-5.0,24.0,0.0
-9.0,-17.0,-4.0,-4.0,-10.0,-29.0,-160.0,16.0,0.0,20.0,0.0
0.0,-3.0,41.0,8.0,-8.0,-19.0,-253.0,10.0,-2.0,10.0,0.0
4.0,-10.0,46.0,16.0,-4.0,-6.0,-310.0,10.0,-6.0,25.0,0.0
7.0,-14.0,45.0,15.0,18.0,2.0,-251.0,16.0,-8.0,13.0,0.0
-5.0,-22.0,6.0,21.0,31.0,13.0,-157.0,22.0,-10.0,13.0,0.0
-4.0,-21.0,-26.0,24.0,34.0,15.0,-81.0,30.0,18.0,5.0,0.0
-3.0,-9.0,28.0,18.0,31.0,10.0,-19.0,27.0,18.0,2.0,0.0
-16.0,1.0,44.0,21.0,27.0,13.0,42.0,13.0,0.0,9.0,0.0
-11.0,0.0,35.0,8.0,17.0,9.0,95.0,1.0,-1.0,11.0,0.0
3.0,7.0,27.0,-4.0,10.0,-6.0,120.0,-8.0,14.0,15.0,0.0
23.0,14.0,14.0,-16.0,-9.0,-25.0,126.0,-13.0,-1.0,10.0,0.0
20.0,12.0,6.0,-29.0,-16.0,-33.0,108.0,-13.0,-13.0,14.0,0.0
5.0,8.0,-2.0,-46.0,-28.0,-35.0,62.0,-22.0,-20.0,14.0,0.0
3.0,0.0,-1.0,-50.0,-39.0,-40.0,1.0,-16.0,-10.0,18.0,0.0
2.0,-1.0,2.0,-39.0,-31.0,-22.0,-27.0,-11.0,-18.0,18.0,0.0
1.0,-5.0,3.0,-24.0,-17.0,9.0,-27.0,-19.0,-17.0,12.0,0.0
-10.0,-10.0,-1.0,-30.0,1.0,30.0,-73.0,-17.0,-3.0,5.0,0.0
-6.0,-7.0,9.0,-29.0,4.0,46.0,-166.0,-5.0,-10.0,2.0,0.0
1.0,-3.0,-39.0,-16.0,9.0,32.0,-250.0,7.0,7.0,15.0,0.0
6.0,2.0,0.0,5.0,-1.0,0.0,-286.0,12.0,1.0,14.0,0.0
4.0,7.0,31.0,12.0,-1.0,3.0,-249.0,7.0,1.0,6.0,0.0
-4.0,-2.0,-15.0,21.0,3.0,33.0,-195.0,2.0,-15.0,3.0,0.0
-9.0,-8.0,-71.0,21.0,15.0,58.0,-105.0,0.0,-13.0,2.0,0.0
-7.0,-14.0,2.0,11.0,25.0,45.0,-42.0,-4.0,-14.0,5.0,0.0
0.0,-8.0,31.0,11.0,26.0,23.0,0.0,-4.0,-22.0,-5.0,0.0
18.0,1.0,27.0,0.0,6.0,7.0,36.0,0.0,-3.0,3.0,0.0
26.0,8.0,-28.0,-14.0,-26.0,-12.0,45.0,0.0,1.0,12.0,0.0
18.0,6.0,-75.0,-12.0,-33.0,-17.0,20.0,18.0,12.0,17.0,0.0
1.0,2.0,-143.0,-21.0,-24.0,-18.0,-21.0,34.0,19.0,21.0,0.0
12.0,0.0,-158.0,-28.0,-23.0,-26.0,-40.0,30.0,21.0,28.0,0.0
16.0,-1.0,-153.0,-25.0,-24.0,-36.0,-67.0,22.0,0.0,21.0,0.0
28.0,-1.0,-43.0,-23.0,-12.0,-42.0,-88.0,6.0,-22.0,20.0,0.0
37.0,-2.0,44.0,-10.0,-18.0,-34.0,-98.0,7.0,-16.0,25.0,0.0
28.0,-9.0,61.0,-9.0,-15.0,-20.0,-173.0,5.0,-15.0,23.0,0.0
28.0,-15.0,57.0,-8.0,-12.0,-18.0,-288.0,14.0,-23.0,7.0,0.0
21.0,-25.0,59.0,-2.0,-2.0,-10.0,-370.0,31.0,-18.0,9.0,0.0
3.0,-30.0,58.0,-4.0,14.0,0.0,-342.0,30.0,-10.0,0.0,0.0
6.0,-31.0,56.0,2.0,24.0,16.0,-253.0,24.0,3.0,-7.0,0.0
12.0,-32.0,57.0,8.0,32.0,26.0,-174.0,30.0,9.0,-17.0,0.0
20.0,-23.0,41.0,24.0,31.0,25.0,-141.0,23.0,11.0,-14.0,0.0
8.0,-27.0,36.0,13.0,33.0,31.0,-80.0,28.0,13.0,-19.0,0.0
9.0,-11.0,30.0,3.0,14.0,10.0,-8.0,26.0,10.0,-19.0,0.0
24.0,0.0,38.0,2.0,-8.0,-18.0,23.0,5.0,-13.0,-10.0,0.0
25.0,0.0,41.0,-1.0,-39.0,-43.0,14.0,-6.0,-21.0,0.0,0.0
28.0,-2.0,8.0,-16.0,-45.0,-51.0,-14.0,-2.0,-7.0,-9.0,0.0
35.0,-3.0,-56.0,-21.0,-31.0,-41.0,-27.0,-4.0,-8.0,-13.0,0.0
38.0,9.0,-6.0,-16.0,-24.0,-38.0,-43.0,-12.0,-15.0,-9.0,0.0
38.0,17.0,18.0,-13.0,-26.0,-44.0,-77.0,-14.0,-7.0,-8.0,0.0
30.0,11.0,31.0,-7.0,-30.0,-42.0,-71.0,-14.0,-11.0,10.0,0.0
9.0,8.0,11.0,3.0,-15.0,-23.0,-98.0,-5.0,-14.0,5.0,0.0
-3.0,1.0,-74.0,2.0,14.0,23.0,-169.0,4.0,-4.0,-10.0,0.0
-2.0,-25.0,-56.0,0.0,46.0,60.0,-230.0,10.0,-1.0,-39.0,0.0
-14.0,-31.0,-110.0,26.0,50.0,79.0,-267.0,4.0,7.0,-37.0,0.0
-11.0,-17.0,-98.0,49.0,40.0,62.0,-254.0,-21.0,-16.0,-26.0,0.0
2.0,7.0,19.0,46.0,23.0,27.0,-158.0,-27.0,-23.0,-4.0,0.0
15.0,13.0,46.0,20.0,-17.0,-5.0,-100.0,-9.0,-18.0,-8.0,0.0
26.0,-4.0,45.0,-10.0,-42.0,-35.0,-71.0,5.0,-8.0,-14.0,0.0
21.0,-14.0,29.0,-18.0,-40.0,-35.0,-12.0,-3.0,-8.0,1.0,0.0
7.0,-14.0,22.0,-17.0,-24.0,-21.0,38.0,2.0,-2.0,32.0,0.0
2.0,-8.0,19.0,-12.0,-9.0,-15.0,61.0,10.0,1.0,-6.0,0.0
8.0,3.0,23.0,-3.0,-12.0,-26.0,54.0,7.0,8.0,-16.0,0.0
15.0,4.0,13.0,-24.0,-23.0,-38.0,51.0,16.0,3.0,1.0,0.0
24.0,0.0,14.0,-39.0,-34.0,-44.0,47.0,11.0,9.0,-10.0,0.0
22.0,3.0,12.0,-45.0,-38.0,-53.0,2.0,4.0,30.0,-23.0,0.0
11.0,8.0,0.0,-34.0,-43.0,-54.0,-2.0,19.0,34.0,-4.0,0.0
12.0,5.0,7.0,-20.0,-44.0,-42.0,7.0,38.0,11.0,-1.0,0.0
5.0,-6.0,17.0,-17.0,-30.0,-28.0,-42.0,33.0,7.0,-12.0,0.0
-33.0,-18.0,15.0,-6.0,-18.0,-11.0,-142.0,13.0,3.0,-9.0,0.0
-49.0,-18.0,18.0,10.0,-10.0,2.0,-222.0,5.0,0.0,-16.0,0.0
-58.0,-16.0,32.0,15.0,-11.0,15.0,-239.0,3.0,-9.0,-25.0,0.0
-50.0,-16.0,32.0,23.0,-3.0,22.0,-183.0,-2.0,-16.0,-19.0,0.0
-44.0,-6.0,39.0,28.0,-9.0,32.0,-91.0,-15.0,-14.0,-33.0,0.0
-28.0,11.0,32.0,22.0,0.0,15.0,-9.0,-23.0,-3.0,-26.0,0.0
-3.0,15.0,29.0,15.0,15.0,24.0,62.0,-18.0,8.0,-9.0,0.0
-3.0,12.0,29.0,0.0,20.0,28.0,119.0,-8.0,10.0,-7.0,0.0
-6.0,21.0,22.0,-2.0,0.0,12.0,165.0,-7.0,-2.0,-11.0,0.0
0.0,22.0,25.0,-1.0,-3.0,7.0,187.0,-19.0,15.0,-12.0,0.0
9.0,19.0,22.0,-18.0,0.0,0.0,166.0,-29.0,7.0,-6.0,0.0
4.0,12.0,2.0,-32.0,-11.0,-12.0,130.0,-26.0,15.0,1.0,0.0
-10.0,0.0,-15.0,-47.0,-18.0,-29.0,99.0,3.0,0.0,-2.0,0.0
-14.0,-8.0,-14.0,-47.0,-8.0,-31.0,83.0,23.0,-3.0,-6.0,0.0
-30.0,-10.0,-25.0,-34.0,-2.0,-15.0,81.0,13.0,0.0,-8.0,0.0
-34.0,-11.0,-132.0,-22.0,9.0,2.0,58.0,2.0,-4.0,1.0,0.0
-30.0,-8.0,-118.0,-12.0,17.0,16.0,-2.0,7.0,-14.0,-16.0,0.0
-31.0,-13.0,-10.0,-1.0,28.0,18.0,-77.0,11.0,-28.0,-24.0,0.0
-30.0,-12.0,12.0,12.0,35.0,28.0,-100.0,16.0,-10.0,-21.0,0.0
-29.0,-9.0,8.0,16.0,45.0,43.0,-72.0,12.0,-7.0,-26.0,0.0
-27.0,-12.0,-42.0,28.0,50.0,49.0,5.0,3.0,-17.0,-22.0,0.0
-30.0,-8.0,-102.0,24.0,41.0,40.0,87.0,-6.0,-9.0,-22.0,0.0
-10.0,5.0,3.0,19.0,10.0,17.0,150.0,-21.0,-6.0,-17.0,0.0
4.0,8.0,48.0,14.0,6.0,17.0,190.0,-23.0,-13.0,-19.0,0.0
20.0,-5.0,42.0,18.0,12.0,13.0,237.0,-16.0,-26.0,-27.0,0.0
33.0,-18.0,46.0,7.0,6.0,-1.0,267.0,-14.0,-10.0,-21.0,0.0
19.0,-11.0,23.0,-9.0,-10.0,-14.0,265.0,-21.0,-11.0,-13.0,0.0
39.0,-8.0,25.0,-20.0,-36.0,-21.0,220.0,-29.0,-16.0,-10.0,0.0
47.0,-22.0,28.0,-35.0,-38.0,-30.0,186.0,-27.0,-10.0,-7.0,0.0
39.0,-25.0,7.0,-39.0,-24.0,-27.0,172.0,-20.0,-14.0,-12.0,0.0
35.0,-9.0,-7.0,-27.0,-17.0,-22.0,150.0,-18.0,-12.0,-10.0,0.0
34.0,-14.0,6.0,-19.0,-10.0,-13.0,139.0,-14.0,8.0,-5.0,0.0
21.0,-7.0,15.0,-10.0,0.0,15.0,119.0,0.0,12.0,-10.0,0.0
-5.0,2.0,34.0,2.0,17.0,25.0,24.0,1.0,18.0,-5.0,0.0
-3.0,8.0,26.0,6.0,16.0,31.0,-58.0,-2.0,3.0,8.0,0.0
-3.0,18.0,30.0,2.0,12.0,33.0,-72.0,4.0,16.0,9.0,0.0
-6.0,5.0,22.0,6.0,23.0,44.0,-1.0,-7.0,16.0,-5.0,0.0
-12.0,-2.0,-17.0,7.0,34.0,47.0,80.0,-12.0,5.0,-13.0,0.0
-11.0,-8.0,-46.0,8.0,42.0,33.0,114.0,-15.0,9.0,-6.0,0.0
-5.0,-14.0,20.0,16.0,48.0,21.0,148.0,-16.0,8.0,-1.0,0.0
-11.0,-11.0,24.0,7.0,36.0,8.0,218.0,-17.0,4.0,-2.0,0.0
-11.0,-15.0,20.0,-12.0,19.0,14.0,249.0,-16.0,6.0,-4.0,0.0
-4.0,0.0,24.0,-20.0,12.0,3.0,224.0,-16.0,8.0,-14.0,0.0
12.0,7.0,11.0,-21.0,13.0,-1.0,193.0,-10.0,19.0,-11.0,0.0
15.0,0.0,-23.0,-19.0,5.0,-8.0,165.0,-1.0,27.0,-1.0,0.0
10.0,3.0,-123.0,-25.0,5.0,-19.0,150.0,-3.0,11.0,2.0,0.0
3.0,7.0,-79.0,-35.0,3.0,-24.0,109.0,-5.0,5.0,1.0,0.0
6.0,9.0,13.0,-5.0,8.0,-27.0,67.0,-2.0,13.0,-3.0,0.0
18.0,0.0,18.0,4.0,11.0,-16.0,53.0,-24.0,2.0,-12.0,0.0
14.0,-8.0,11.0,3.0,25.0,-15.0,-10.0,-38.0,-7.0,-7.0,0.0
9.0,-6.0,15.0,-4.0,37.0,-14.0,-82.0,-43.0,-10.0,-5.0,0.0
12.0,-12.0,-44.0,-15.0,43.0,17.0,-141.0,-40.0,-8.0,-4.0,0.0
19.0,-26.0,-153.0,-10.0,41.0,54.0,-136.0,-32.0,-22.0,-2.0,0.0
10.0,-35.0,-167.0,-7.0,47.0,68.0,-65.0,-35.0,-21.0,-5.0,0.0
14.0,-27.0,-152.0,13.0,47.0,75.0,12.0,-29.0,-18.0,-26.0,0.0
28.0,-20.0,-116.0,25.0,48.0,66.0,70.0,-13.0,-9.0,-5.0,0.0
43.0,-14.0,0.0,42.0,51.0,38.0,124.0,-11.0,8.0,10.0,0.0
46.0,-3.0,62.0,27.0,27.0,10.0,156.0,-20.0,19.0,27.0,0.0
30.0,-3.0,66.0,4.0,-5.0,-18.0,168.0,-37.0,7.0,32.0,0.0
22.0,-6.0,56.0,-22.0,-34.0,-35.0,164.0,-33.0,13.0,20.0,0.0
17.0,4.0,35.0,-59.0,-65.0,-45.0,123.0,-22.0,11.0,11.0,0.0
22.0,-3.0,13.0,-73.0,-72.0,-43.0,69.0,-6.0,6.0,24.0,0.0
12.0,-12.0,-68.0,-55.0,-51.0,-35.0,31.0,6.0,0.0,13.0,0.0
5.0,-15.0,-89.0,-42.0,-27.0,-22.0,23.0,0.0,-10.0,-7.0,0.0
13.0,-23.0,5.0,-29.0,-9.0,-30.0,14.0,-1.0,0.0,-16.0,0.0
12.0,-27.0,28.0,-22.0,-4.0,-22.0,-43.0,7.0,-10.0,-25.0,0.0
-16.0,-31.0,28.0,-4.0,-8.0,-12.0,-115.0,7.0,-3.0,-16.0,0.0
-1.0,-21.0,44.0,16.0,-18.0,-27.0,-176.0,1.0,4.0,-2.0,0.0
13.0,-7.0,32.0,24.0,-14.0,-38.0,-202.0,-4.0,1.0,2.0,0.0
15.0,1.0,31.0,27.0,-1.0,-20.0,-164.0,-17.0,10.0,11.0,0.0
10.0,10.0,72.0,34.0,-3.0,-1.0,-91.0,-35.0,-16.0,26.0,0.0
17.0,19.0,75.0,28.0,-10.0,-7.0,-31.0,-41.0,-30.0,17.0,0.0
8.0,1.0,71.0,25.0,-5.0,-11.0,7.0,-41.0,-30.0,6.0,0.0
-4.0,-6.0,57.0,21.0,-6.0,-5.0,70.0,-32.0,-24.0,0.0,0.0
0.0,0.0,45.0,18.0,-5.0,-9.0,140.0,-18.0,-7.0,19.0,0.0
3.0,-2.0,9.0,8.0,-15.0,-16.0,185.0,-18.0,2.0,20.0,0.0
-6.0,-9.0,-36.0,-4.0,-23.0,-12.0,172.0,-2.0,0.0,11.0,0.0
-3.0,-12.0,-13.0,-23.0,-29.0,-15.0,128.0,11.0,9.0,16.0,0.0
3.0,0.0,-33.0,-26.0,-31.0,-15.0,93.0,19.0,6.0,21.0,0.0
1.0,1.0,0.0,-22.0,-24.0,-9.0,87.0,26.0,11.0,28.0,0.0
8.0,-4.0,21.0,-18.0,-14.0,-4.0,88.0,33.0,34.0,37.0,0.0
10.0,-2.0,22.0,-19.0,-1.0,0.0,70.0,27.0,23.0,27.0,0.0
15.0,3.0,-32.0,-5.0,-1.0,0.0,11.0,27.0,16.0,28.0,0.0
14.0,0.0,-117.0,6.0,2.0,-10.0,-85.0,1.0,-2.0,31.0,0.0
1.0,-3.0,-30.0,4.0,17.0,-12.0,-178.0,3.0,-3.0,29.0,0.0
-1.0,2.0,37.0,21.0,47.0,-3.0,-199.0,0.0,8.0,29.0,0.0
-7.0,7.0,41.0,42.0,55.0,0.0,-129.0,-7.0,2.0,20.0,0.0
-15.0,11.0,37.0,45.0,65.0,9.0,-54.0,-16.0,-1.0,13.0,0.0
-11.0,6.0,36.0,41.0,76.0,6.0,3.0,-18.0,-18.0,5.0,0.0
-3.0,-8.0,36.0,27.0,67.0,29.0,63.0,-14.0,-8.0,-1.0,0.0
-20.0,-17.0,25.0,21.0,55.0,62.0,141.0,10.0,-1.0,0.0,0.0
-24.0,-4.0,-7.0,11.0,24.0,27.0,177.0,20.0,4.0,-9.0,0.0
0.0,10.0,-102.0,-6.0,-31.0,-31.0,182.0,9.0,19.0,1.0,0.0
8.0,13.0,-147.0,-22.0,-49.0,-54.0,176.0,20.0,27.0,17.0,0.0
-9.0,9.0,-160.0,-44.0,-57.0,-63.0,152.0,26.0,46.0,13.0,0.0
-15.0,2.0,-71.0,-51.0,-64.0,-66.0,170.0,26.0,33.0,17.0,0.0
-19.0,-10.0,13.0,-40.0,-44.0,-51.0,147.0,16.0,16.0,10.0,0.0
-19.0,-24.0,18.0,-24.0,-27.0,-38.0,98.0,-3.0,5.0,-1.0,0.0
-21.0,-18.0,24.0,-8.0,-20.0,-38.0,69.0,-8.0,7.0,-9.0,0.0
-23.0,-9.0,33.0,-3.0,-17.0,-46.0,-2.0,-4.0,2.0,16.0,0.0
-14.0,4.0,46.0,-2.0,-15.0,-40.0,-105.0,-6.0,7.0,21.0,0.0
-11.0,12.0,50.0,12.0,1.0,-18.0,-169.0,4.0,-8.0,16.0,0.0
-18.0,9.0,-25.0,1.0,15.0,-1.0,-137.0,12.0,-5.0,-1.0,0.0
-31.0,1.0,-115.0,-3.0,29.0,32.0,-55.0,10.0,-11.0,3.0,0.0
-30.0,-10.0,-47.0,4.0,33.0,40.0,26.0,2.0,-4.0,-4.0,0.0
-35.0,-12.0,4.0,4.0,22.0,36.0,84.0,6.0,-17.0,-12.0,0.0
-29.0,-16.0,31.0,1.0,15.0,31.0,156.0,11.0,-26.0,-4.0,0.0
-25.0,-2.0,68.0,-10.0,0.0,-16.0,200.0,19.0,-1.0,3.0,0.0
-24.0,-4.0,63.0,-7.0,-19.0,-48.0,218.0,13.0,7.0,2.0,0.0
-25.0,-19.0,47.0,-4.0,-22.0,-47.0,213.0,2.0,5.0,1.0,0.0
-26.0,-23.0,39.0,-13.0,-18.0,-36.0,187.0,2.0,-12.0,-3.0,0.0
-12.0,-11.0,27.0,-33.0,-20.0,-37.0,144.0,8.0,-11.0,-19.0,0.0
3.0,7.0,28.0,-37.0,-9.0,-37.0,105.0,7.0,-2.0,-1.0,0.0
3.0,14.0,28.0,-5.0,14.0,-19.0,72.0,3.0,-15.0,10.0,0.0
9.0,19.0,2.0,2.0,23.0,-7.0,55.0,1.0,-3.0,-2.0,0.0
-2.0,26.0,31.0,10.0,8.0,-8.0,20.0,-4.0,5.0,3.0,0.0
-10.0,34.0,69.0,3.0,1.0,-1.0,-76.0,-19.0,6.0,8.0,0.0
-7.0,19.0,56.0,-9.0,2.0,3.0,-160.0,-24.0,3.0,2.0,0.0
0.0,0.0,39.0,-5.0,4.0,0.0,-172.0,-18.0,0.0,-1.0,0.0
-6.0,-12.0,36.0,16.0,12.0,20.0,-102.0,-14.0,-4.0,0.0,0.0
-14.0,-10.0,37.0,34.0,23.0,42.0,-19.0,-6.0,-18.0,-6.0,0.0
-28.0,-14.0,35.0,33.0,36.0,34.0,45.0,-6.0,-7.0,-14.0,0.0
-26.0,-8.0,-14.0,28.0,29.0,15.0,93.0,7.0,-12.0,-24.0,0.0
-10.0,7.0,-63.0,27.0,10.0,4.0,141.0,4.0,-19.0,-25.0,0.0
-9.0,14.0,21.0,9.0,-5.0,-12.0,165.0,-7.0,-5.0,3.0,0.0
