channel0,channel1,channel2,channel3,channel4,channel5,channel6,channel7,channel8,channel9,true_locs
-17.0,6.0,18.0,-8.0,0.0,-21.0,-8.0,-10.0,-17.0,-36.0,0.0
-44.0,-14.0,-22.0,-19.0,-26.0,-33.0,-13.0,-16.0,-10.0,-42.0,0.0
-84.0,-28.0,-50.0,-37.0,-49.0,-40.0,-20.0,-39.0,-6.0,-73.0,0.0
-128.0,-53.0,-61.0,-44.0,-72.0,-45.0,-4.0,-59.0,-30.0,-100.0,0.0
-140.0,-55.0,-67.0,-46.0,-77.0,-48.0,0.0,-59.0,-56.0,-104.0,0.0
-122.0,-52.0,-49.0,-33.0,-67.0,-37.0,-2.0,-53.0,-48.0,-91.0,0.0
-105.0,-37.0,-18.0,-19.0,-43.0,-31.0,-7.0,-41.0,-41.0,-66.0,0.0
-66.0,-12.0,0.0,-2.0,-12.0,-13.0,-10.0,-26.0,-17.0,-30.0,0.0
-30.0,9.0,20.0,31.0,29.0,10.0,-17.0,-6.0,-16.0,-11.0,0.0
2.0,29.0,58.0,54.0,54.0,27.0,-17.0,2.0,-26.0,-8.0,0.0
38.0,45.0,74.0,61.0,77.0,36.0,-8.0,15.0,-4.0,11.0,0.0
74.0,65.0,85.0,85.0,83.0,48.0,-11.0,36.0,37.0,79.0,0.0
120.0,63.0,93.0,96.0,86.0,61.0,-17.0,53.0,70.0,126.0,0.0
133.0,52.0,70.0,78.0,79.0,53.0,-17.0,51.0,63.0,151.0,0.0
101.0,32.0,42.0,51.0,61.0,43.0,-22.0,24.0,48.0,155.0,0.0
62.0,11.0,17.0,31.0,39.0,23.0,-27.0,-8.0,26.0,121.0,0.0
37.0,-21.0,16.0,3.0,0.0,-4.0,-16.0,-16.0,14.0,89.0,0.0
3.0,-44.0,15.0,-24.0,-16.0,-23.0,-1.0,-25.0,19.0,30.0,0.0
-36.0,-57.0,-7.0,-32.0,-20.0,-34.0,10.0,-27.0,2.0,-54.0,0.0
-63.0,-76.0,-29.0,-50.0,-33.0,-48.0,22.0,-22.0,-21.0,-121.0,0.0
-99.0,-88.0,-56.0,-72.0,-50.0,-48.0,32.0,-24.0,-29.0,-159.0,0.0
-109.0,-90.0,-52.0,-64.0,-45.0,-43.0,40.0,-17.0,-40.0,-156.0,0.0
-106.0,-82.0,-32.0,-33.0,-26.0,-31.0,49.0,-5.0,-52.0,-151.0,0.0
-99.0,-68.0,-23.0,-20.0,-22.0,-25.0,40.0,-10.0,-44.0,-141.0,0.0
-75.0,-47.0,-24.0,-18.0,-4.0,-15.0,15.0,-2.0,-18.0,-113.0,0.0
-37.0,-22.0,-6.0,-7.0,16.0,5.0,6.0,17.0,19.0,-51.0,0.0
10.0,15.0,15.0,16.0,25.0,14.0,17.0,28.0,55.0,5.0,0.0
54.0,54.0,39.0,39.0,48.0,39.0,23.0,41.0,84.0,49.0,0.0
85.0,72.0,59.0,62.0,78.0,64.0,27.0,58.0,81.0,94.0,0.0
82.0,80.0,86.0,62.0,94.0,71.0,28.0,62.0,80.0,152.0,0.0
72.0,79.0,66.0,61.0,76.0,71.0,17.0,52.0,68.0,174.0,0.0
52.0,56.0,53.0,35.0,49.0,50.0,5.0,23.0,10.0,91.0,0.0
-7.0,17.0,39.0,-15.0,20.0,8.0,-18.0,-18.0,-47.0,-75.0,0.0
-46.0,-24.0,-10.0,-46.0,-12.0,-14.0,-29.0,-41.0,-39.0,-49.0,0.0
-56.0,-53.0,-47.0,-66.0,-39.0,-33.0,-26.0,-48.0,-28.0,51.0,0.0
-88.0,-65.0,-60.0,-70.0,-54.0,-55.0,-29.0,-52.0,-54.0,26.0,0.0
-111.0,-83.0,-72.0,-80.0,-75.0,-69.0,-25.0,-57.0,-62.0,-25.0,0.0
-124.0,-92.0,-80.0,-91.0,-82.0,-67.0,-18.0,-54.0,-51.0,-39.0,0.0
-111.0,-77.0,-81.0,-94.0,-80.0,-57.0,-19.0,-40.0,-36.0,-30.0,0.0
-85.0,-74.0,-76.0,-84.0,-70.0,-43.0,-7.0,-27.0,-40.0,-26.0,0.0
-49.0,-62.0,-48.0,-62.0,-49.0,-19.0,-4.0,-5.0,-22.0,-10.0,0.0
-9.0,-23.0,15.0,-31.0,-15.0,5.0,-6.0,6.0,-2.0,22.0,0.0
23.0,20.0,52.0,-1.0,17.0,28.0,4.0,29.0,7.0,46.0,0.0
64.0,43.0,65.0,21.0,33.0,49.0,-5.0,38.0,17.0,80.0,0.0
84.0,64.0,64.0,38.0,45.0,55.0,-13.0,45.0,42.0,101.0,0.0
102.0,80.0,54.0,53.0,64.0,72.0,-16.0,57.0,60.0,111.0,0.0
97.0,75.0,44.0,47.0,69.0,79.0,-18.0,57.0,64.0,98.0,0.0
76.0,53.0,27.0,24.0,65.0,70.0,-13.0,44.0,48.0,76.0,0.0
51.0,38.0,20.0,9.0,49.0,44.0,-16.0,23.0,35.0,49.0,0.0
19.0,11.0,20.0,-6.0,33.0,21.0,-10.0,-2.0,21.0,16.0,0.0
-8.0,-15.0,-6.0,-14.0,1.0,4.0,-13.0,-14.0,2.0,-11.0,0.0
-20.0,-35.0,-42.0,-11.0,-24.0,-9.0,-8.0,-13.0,-6.0,-24.0,0.0
-38.0,-54.0,-68.0,-23.0,-50.0,-34.0,2.0,-21.0,-11.0,-47.0,0.0
-50.0,-70.0,-81.0,-45.0,-74.0,-59.0,4.0,-38.0,-16.0,-94.0,0.0
-59.0,-72.0,-62.0,-48.0,-77.0,-58.0,3.0,-40.0,-11.0,-89.0,0.0
-55.0,-51.0,-56.0,-32.0,-68.0,-39.0,12.0,-26.0,10.0,-17.0,0.0
-25.0,-28.0,-45.0,-26.0,-66.0,-33.0,16.0,-16.0,26.0,114.0,0.0
7.0,-11.0,-20.0,-20.0,-44.0,-10.0,22.0,8.0,39.0,194.0,0.0
19.0,6.0,20.0,7.0,-14.0,4.0,12.0,16.0,30.0,212.0,0.0
22.0,26.0,46.0,26.0,14.0,17.0,10.0,18.0,2.0,149.0,0.0
40.0,48.0,55.0,39.0,35.0,31.0,6.0,26.0,-39.0,10.0,0.0
82.0,69.0,80.0,52.0,55.0,40.0,-13.0,12.0,-72.0,-138.0,0.0
111.0,95.0,87.0,64.0,61.0,42.0,-19.0,12.0,-45.0,-170.0,0.0
106.0,114.0,94.0,67.0,60.0,42.0,-15.0,18.0,-15.0,-142.0,0.0
58.0,85.0,74.0,51.0,51.0,35.0,-11.0,9.0,-21.0,-190.0,0.0
6.0,10.0,35.0,30.0,17.0,19.0,-17.0,-7.0,-16.0,-199.0,0.0
-4.0,-30.0,1.0,-5.0,-16.0,-17.0,-19.0,-10.0,-5.0,-72.0,0.0
-8.0,-47.0,-30.0,-53.0,-47.0,-39.0,-14.0,-24.0,-7.0,23.0,0.0
-29.0,-54.0,-55.0,-84.0,-83.0,-56.0,-10.0,-47.0,-10.0,48.0,0.0
-45.0,-63.0,-65.0,-111.0,-106.0,-76.0,-14.0,-71.0,-18.0,20.0,0.0
-75.0,-64.0,-82.0,-110.0,-116.0,-92.0,-20.0,-75.0,-41.0,-33.0,0.0
-112.0,-57.0,-73.0,-84.0,-103.0,-80.0,-20.0,-68.0,-65.0,-89.0,0.0
-131.0,-57.0,-53.0,-57.0,-75.0,-46.0,-16.0,-55.0,-77.0,-117.0,0.0
-119.0,-37.0,-26.0,-41.0,-55.0,-18.0,-13.0,-52.0,-62.0,-101.0,0.0
-87.0,-10.0,24.0,-6.0,-26.0,4.0,0.0,-23.0,-37.0,-39.0,0.0
-33.0,7.0,63.0,33.0,3.0,26.0,8.0,0.0,-3.0,22.0,0.0
23.0,30.0,92.0,68.0,27.0,38.0,13.0,11.0,20.0,45.0,0.0
65.0,71.0,98.0,74.0,58.0,49.0,10.0,27.0,42.0,67.0,0.0
105.0,92.0,81.0,76.0,77.0,58.0,5.0,40.0,49.0,97.0,0.0
123.0,99.0,81.0,77.0,72.0,67.0,0.0,47.0,48.0,91.0,0.0
96.0,87.0,91.0,72.0,55.0,66.0,-5.0,44.0,45.0,66.0,0.0
69.0,71.0,77.0,53.0,49.0,61.0,5.0,37.0,56.0,49.0,0.0
40.0,52.0,27.0,40.0,35.0,39.0,10.0,29.0,71.0,21.0,0.0
13.0,18.0,-5.0,4.0,6.0,14.0,10.0,18.0,51.0,4.0,0.0
-25.0,-22.0,-12.0,-17.0,-21.0,-9.0,3.0,0.0,3.0,-9.0,0.0
-56.0,-39.0,-39.0,-30.0,-40.0,-33.0,8.0,-23.0,-27.0,-32.0,0.0
-79.0,-48.0,-69.0,-36.0,-62.0,-57.0,13.0,-29.0,-43.0,-54.0,0.0
-105.0,-66.0,-91.0,-39.0,-65.0,-72.0,15.0,-28.0,-38.0,-68.0,0.0
-107.0,-73.0,-91.0,-35.0,-63.0,-59.0,18.0,-31.0,-38.0,-73.0,0.0
-87.0,-67.0,-54.0,-22.0,-46.0,-48.0,20.0,-33.0,-27.0,-74.0,0.0
-46.0,-33.0,-25.0,-7.0,-17.0,-29.0,31.0,-26.0,-32.0,-59.0,0.0
12.0,9.0,19.0,15.0,7.0,-4.0,28.0,-3.0,-7.0,-19.0,0.0
61.0,28.0,44.0,26.0,30.0,8.0,25.0,9.0,12.0,17.0,0.0
95.0,55.0,50.0,35.0,45.0,23.0,19.0,33.0,33.0,47.0,0.0
115.0,77.0,69.0,36.0,71.0,40.0,8.0,43.0,47.0,67.0,0.0
132.0,86.0,89.0,50.0,89.0,56.0,-5.0,44.0,58.0,74.0,0.0
133.0,89.0,79.0,50.0,90.0,50.0,-3.0,46.0,67.0,56.0,0.0
129.0,85.0,70.0,34.0,94.0,35.0,2.0,38.0,72.0,43.0,0.0
110.0,62.0,66.0,39.0,77.0,36.0,0.0,32.0,62.0,51.0,0.0
81.0,44.0,50.0,47.0,42.0,14.0,-1.0,25.0,54.0,109.0,0.0
56.0,5.0,4.0,13.0,-9.0,-17.0,-14.0,9.0,49.0,139.0,1.0
28.0,-42.0,-29.0,-22.0,-46.0,-55.0,-23.0,-19.0,43.0,99.0,1.0
-4.0,-71.0,-63.0,-42.0,-70.0,-82.0,-23.0,-45.0,21.0,47.0,1.0
-49.0,-66.0,-70.0,-42.0,-77.0,-81.0,-5.0,-44.0,-22.0,-67.0,1.0
-70.0,-48.0,-61.0,-33.0,-57.0,-60.0,2.0,-39.0,-50.0,-116.0,1.0
-69.0,-42.0,-44.0,-19.0,-43.0,-37.0,15.0,-17.0,-33.0,-14.0,1.0
-78.0,-30.0,-37.0,1.0,-17.0,-10.0,22.0,-2.0,-11.0,43.0,1.0
-101.0,-33.0,-31.0,14.0,-10.0,-1.0,19.0,-1.0,-21.0,-120.0,1.0
-87.0,-36.0,-4.0,18.0,2.0,0.0,-5.0,-11.0,-32.0,-282.0,1.0
-20.0,2.0,16.0,30.0,28.0,27.0,2.0,3.0,17.0,-197.0,1.0
45.0,52.0,38.0,48.0,44.0,39.0,16.0,40.0,64.0,27.0,1.0
89.0,89.0,48.0,73.0,56.0,52.0,4.0,52.0,89.0,204.0,1.0
112.0,94.0,62.0,91.0,64.0,70.0,6.0,49.0,88.0,306.0,1.0
101.0,90.0,47.0,82.0,55.0,56.0,-5.0,46.0,51.0,244.0,1.0
84.0,76.0,19.0,60.0,37.0,31.0,-15.0,13.0,5.0,66.0,1.0
60.0,64.0,1.0,44.0,20.0,7.0,-22.0,-4.0,-17.0,-23.0,1.0
11.0,45.0,-18.0,7.0,0.0,-19.0,-31.0,-27.0,-29.0,-93.0,1.0
-36.0,17.0,-27.0,-19.0,-16.0,-37.0,-18.0,-37.0,-24.0,-93.0,1.0
-83.0,-23.0,-65.0,-39.0,-35.0,-47.0,-6.0,-30.0,-30.0,-101.0,0.0
-140.0,-71.0,-105.0,-66.0,-54.0,-49.0,-8.0,-25.0,-37.0,-201.0,0.0
-167.0,-105.0,-131.0,-82.0,-78.0,-65.0,-8.0,-41.0,-50.0,-273.0,0.0
-147.0,-99.0,-127.0,-71.0,-82.0,-62.0,0.0,-52.0,-59.0,-224.0,0.0
-106.0,-70.0,-104.0,-60.0,-65.0,-55.0,4.0,-30.0,-41.0,-130.0,0.0
-63.0,-47.0,-77.0,-49.0,-49.0,-38.0,0.0,-21.0,-15.0,-67.0,0.0
-17.0,-24.0,-40.0,-15.0,-19.0,-3.0,6.0,-11.0,0.0,-36.0,0.0
29.0,7.0,-17.0,6.0,5.0,20.0,7.0,13.0,17.0,11.0,0.0
88.0,33.0,-1.0,16.0,33.0,27.0,10.0,38.0,21.0,70.0,0.0
125.0,55.0,34.0,31.0,69.0,45.0,14.0,53.0,36.0,85.0,0.0
119.0,70.0,50.0,63.0,99.0,78.0,17.0,63.0,38.0,73.0,0.0
110.0,72.0,48.0,68.0,85.0,79.0,10.0,62.0,27.0,67.0,0.0
106.0,84.0,46.0,59.0,66.0,56.0,2.0,42.0,22.0,60.0,0.0
103.0,86.0,37.0,53.0,58.0,34.0,3.0,36.0,33.0,47.0,0.0
88.0,76.0,27.0,35.0,42.0,9.0,9.0,34.0,38.0,24.0,0.0
56.0,55.0,9.0,18.0,12.0,-6.0,12.0,21.0,41.0,17.0,0.0
29.0,31.0,-22.0,0.0,-4.0,-23.0,11.0,-3.0,51.0,26.0,0.0
-9.0,-5.0,-41.0,-44.0,-23.0,-45.0,7.0,-24.0,31.0,36.0,0.0
-54.0,-41.0,-58.0,-75.0,-54.0,-64.0,6.0,-36.0,-11.0,41.0,0.0
-112.0,-74.0,-83.0,-75.0,-69.0,-70.0,6.0,-60.0,-60.0,47.0,0.0
-149.0,-102.0,-99.0,-74.0,-74.0,-72.0,-4.0,-64.0,-92.0,-22.0,0.0
-149.0,-88.0,-88.0,-68.0,-70.0,-64.0,-3.0,-62.0,-89.0,-143.0,0.0
-88.0,-54.0,-48.0,-41.0,-33.0,-37.0,-2.0,-40.0,-56.0,-126.0,0.0
-22.0,-19.0,-4.0,0.0,3.0,5.0,-7.0,-9.0,-24.0,-57.0,0.0
24.0,15.0,12.0,15.0,33.0,27.0,-4.0,-3.0,0.0,-8.0,0.0
63.0,24.0,41.0,30.0,43.0,47.0,-5.0,0.0,17.0,45.0,0.0
96.0,41.0,57.0,61.0,59.0,60.0,-6.0,11.0,40.0,73.0,0.0
111.0,55.0,67.0,80.0,69.0,75.0,3.0,26.0,44.0,96.0,0.0
101.0,49.0,55.0,86.0,72.0,73.0,5.0,10.0,29.0,79.0,0.0
65.0,24.0,32.0,64.0,52.0,58.0,1.0,2.0,32.0,54.0,0.0
41.0,-7.0,7.0,22.0,20.0,31.0,2.0,63.0,44.0,27.0,0.0
27.0,-24.0,-24.0,-6.0,-9.0,-10.0,-18.0,86.0,31.0,-1.0,0.0
7.0,-46.0,-43.0,-28.0,-23.0,-41.0,-24.0,27.0,5.0,29.0,0.0
-40.0,-51.0,-49.0,-40.0,-36.0,-53.0,-8.0,-1.0,-21.0,0.0,0.0
-99.0,-59.0,-73.0,-54.0,-48.0,-45.0,10.0,-22.0,-41.0,-55.0,0.0
-134.0,-95.0,-105.0,-76.0,-71.0,-70.0,2.0,-33.0,-50.0,-56.0,0.0
-148.0,-99.0,-113.0,-77.0,-81.0,-79.0,6.0,-42.0,-52.0,-46.0,0.0
-139.0,-75.0,-88.0,-63.0,-62.0,-61.0,16.0,-46.0,-45.0,-67.0,0.0
-93.0,-48.0,-48.0,-57.0,-42.0,-49.0,17.0,-23.0,-34.0,-83.0,0.0
-25.0,-13.0,-18.0,-34.0,-23.0,-29.0,15.0,18.0,-1.0,-41.0,0.0
50.0,32.0,7.0,-7.0,2.0,-7.0,13.0,43.0,29.0,10.0,0.0
94.0,63.0,44.0,18.0,35.0,22.0,3.0,41.0,32.0,42.0,0.0
107.0,81.0,76.0,48.0,55.0,42.0,7.0,54.0,38.0,51.0,0.0
132.0,91.0,87.0,70.0,69.0,54.0,15.0,72.0,60.0,106.0,0.0
118.0,89.0,82.0,69.0,70.0,66.0,3.0,67.0,79.0,219.0,0.0
82.0,81.0,67.0,58.0,63.0,55.0,-4.0,44.0,60.0,243.0,0.0
49.0,52.0,53.0,36.0,50.0,43.0,-11.0,32.0,24.0,191.0,0.0
26.0,29.0,31.0,16.0,41.0,26.0,-16.0,33.0,12.0,133.0,0.0
-11.0,11.0,1.0,0.0,8.0,-1.0,-11.0,19.0,0.0,66.0,0.0
-49.0,-23.0,-31.0,-19.0,-19.0,-20.0,0.0,0.0,-21.0,-28.0,0.0
-82.0,-46.0,-70.0,-45.0,-43.0,-42.0,5.0,-20.0,-47.0,-126.0,0.0
-95.0,-68.0,-83.0,-58.0,-65.0,-62.0,12.0,-35.0,-52.0,-145.0,0.0
-98.0,-77.0,-81.0,-71.0,-82.0,-84.0,7.0,-39.0,-57.0,-107.0,0.0
-90.0,-71.0,-74.0,-82.0,-88.0,-94.0,-6.0,-40.0,-40.0,-57.0,0.0
-63.0,-72.0,-68.0,-71.0,-65.0,-71.0,3.0,-25.0,-28.0,-5.0,0.0
-27.0,-57.0,-55.0,-48.0,-24.0,-41.0,12.0,0.0,-10.0,30.0,0.0
15.0,-16.0,-16.0,-15.0,17.0,-12.0,15.0,18.0,2.0,37.0,0.0
37.0,15.0,22.0,32.0,48.0,27.0,7.0,26.0,-21.0,-55.0,0.0
44.0,35.0,59.0,67.0,69.0,48.0,0.0,31.0,-37.0,-209.0,0.0
61.0,63.0,78.0,79.0,84.0,61.0,8.0,59.0,-17.0,-192.0,0.0
80.0,68.0,69.0,76.0,104.0,77.0,15.0,75.0,22.0,-90.0,0.0
99.0,65.0,62.0,72.0,96.0,74.0,15.0,73.0,36.0,-34.0,0.0
79.0,42.0,60.0,57.0,78.0,60.0,6.0,48.0,42.0,5.0,0.0
45.0,10.0,43.0,40.0,61.0,47.0,-4.0,16.0,28.0,60.0,0.0
17.0,-10.0,8.0,12.0,36.0,20.0,-9.0,-24.0,9.0,68.0,0.0
-1.0,-25.0,-8.0,-17.0,4.0,-13.0,-16.0,-51.0,-9.0,11.0,0.0
-20.0,-41.0,-42.0,-42.0,-27.0,-38.0,-11.0,-57.0,-24.0,-39.0,0.0
-49.0,-70.0,-61.0,-71.0,-51.0,-61.0,-2.0,-57.0,-41.0,-54.0,0.0
-68.0,-76.0,-76.0,-85.0,-69.0,-70.0,-6.0,-55.0,-45.0,-43.0,0.0
-78.0,-79.0,-69.0,-94.0,-78.0,-73.0,-13.0,-55.0,-56.0,-51.0,0.0
-70.0,-70.0,-40.0,-73.0,-87.0,-75.0,-20.0,-59.0,-63.0,-61.0,0.0
-45.0,-52.0,0.0,-49.0,-79.0,-69.0,-11.0,-51.0,-55.0,-52.0,0.0
-20.0,-22.0,28.0,-15.0,-35.0,-41.0,1.0,-25.0,-32.0,-28.0,0.0
23.0,6.0,48.0,17.0,7.0,11.0,6.0,9.0,-1.0,2.0,0.0
55.0,20.0,29.0,26.0,36.0,26.0,14.0,33.0,24.0,22.0,0.0
67.0,26.0,28.0,47.0,49.0,38.0,7.0,47.0,35.0,33.0,0.0
67.0,40.0,54.0,70.0,63.0,57.0,5.0,55.0,39.0,46.0,0.0
92.0,52.0,61.0,73.0,71.0,79.0,10.0,54.0,38.0,65.0,0.0
93.0,58.0,55.0,68.0,66.0,84.0,4.0,48.0,43.0,59.0,0.0
94.0,56.0,44.0,46.0,55.0,60.0,-7.0,42.0,53.0,40.0,0.0
98.0,40.0,35.0,23.0,34.0,40.0,-5.0,34.0,67.0,44.0,0.0
61.0,11.0,8.0,-1.0,-3.0,5.0,1.0,23.0,64.0,34.0,0.0
26.0,-15.0,-6.0,-19.0,-32.0,-21.0,6.0,9.0,39.0,32.0,0.0
-12.0,-45.0,-27.0,-40.0,-53.0,-51.0,-4.0,-3.0,28.0,85.0,0.0
-56.0,-63.0,-58.0,-63.0,-73.0,-75.0,-17.0,-23.0,5.0,130.0,0.0
-86.0,-91.0,-90.0,-76.0,-79.0,-77.0,-12.0,-48.0,-48.0,34.0,0.0
-111.0,-97.0,-78.0,-72.0,-91.0,-76.0,-10.0,-82.0,-118.0,-183.0,0.0
-104.0,-84.0,-50.0,-59.0,-69.0,-72.0,-8.0,-72.0,-116.0,-247.0,0.0
-54.0,-54.0,-21.0,-39.0,-52.0,-41.0,7.0,-43.0,-71.0,-150.0,0.0
-10.0,-19.0,4.0,-8.0,-20.0,-5.0,14.0,-16.0,-43.0,-85.0,0.0
33.0,8.0,40.0,18.0,17.0,25.0,26.0,7.0,-21.0,-44.0,0.0
80.0,28.0,73.0,47.0,48.0,62.0,32.0,27.0,-5.0,15.0,0.0
124.0,43.0,75.0,69.0,57.0,68.0,22.0,52.0,41.0,122.0,0.0
156.0,70.0,83.0,81.0,62.0,68.0,16.0,64.0,86.0,211.0,0.0
136.0,76.0,107.0,84.0,68.0,75.0,9.0,63.0,74.0,198.0,0.0
83.0,55.0,72.0,73.0,53.0,65.0,-8.0,43.0,49.0,164.0,0.0
23.0,23.0,38.0,56.0,37.0,53.0,-19.0,14.0,20.0,104.0,0.0
-57.0,-17.0,15.0,23.0,25.0,22.0,-33.0,-10.0,-17.0,60.0,0.0
-119.0,-60.0,-19.0,-35.0,-6.0,-12.0,-50.0,-29.0,-35.0,-35.0,0.0
-131.0,-72.0,-53.0,-78.0,-35.0,-33.0,-38.0,-37.0,-38.0,-129.0,0.0
-111.0,-76.0,-71.0,-94.0,-45.0,-39.0,-14.0,-34.0,-20.0,-134.0,0.0
-105.0,-85.0,-82.0,-98.0,-56.0,-55.0,-8.0,-33.0,-21.0,-104.0,0.0
-105.0,-90.0,-88.0,-93.0,-72.0,-52.0,0.0,-39.0,-37.0,-93.0,0.0
-123.0,-92.0,-77.0,-67.0,-55.0,-32.0,21.0,-28.0,-43.0,-67.0,0.0
-113.0,-78.0,-67.0,-35.0,-50.0,-24.0,19.0,-12.0,-35.0,-18.0,0.0
-86.0,-38.0,-41.0,-25.0,-41.0,-22.0,17.0,0.0,-37.0,2.0,0.0
-47.0,-10.0,-18.0,-1.0,-12.0,-1.0,18.0,7.0,-49.0,-63.0,0.0
-10.0,15.0,-2.0,13.0,20.0,25.0,15.0,8.0,-52.0,-146.0,0.0
10.0,48.0,28.0,37.0,44.0,55.0,19.0,27.0,-24.0,-54.0,0.0
43.0,55.0,50.0,57.0,51.0,62.0,10.0,44.0,14.0,47.0,0.0
87.0,63.0,66.0,59.0,57.0,70.0,-4.0,56.0,27.0,77.0,0.0
101.0,69.0,72.0,60.0,63.0,74.0,-1.0,49.0,41.0,67.0,0.0
93.0,68.0,65.0,46.0,52.0,66.0,-3.0,34.0,39.0,41.0,0.0
66.0,62.0,46.0,30.0,46.0,53.0,-11.0,16.0,28.0,10.0,0.0
42.0,46.0,21.0,13.0,25.0,26.0,-29.0,-5.0,1.0,2.0,0.0
14.0,31.0,-4.0,-2.0,-2.0,2.0,-33.0,-28.0,-33.0,8.0,0.0
-26.0,12.0,-6.0,-13.0,-25.0,-12.0,-26.0,-37.0,-59.0,-14.0,0.0
-80.0,-10.0,-18.0,-29.0,-43.0,-24.0,-19.0,-41.0,-56.0,5.0,0.0
-107.0,-39.0,-46.0,-55.0,-55.0,-48.0,-8.0,-45.0,-59.0,44.0,0.0
-127.0,-57.0,-81.0,-87.0,-84.0,-74.0,-19.0,-45.0,-74.0,-50.0,0.0
-112.0,-61.0,-66.0,-109.0,-91.0,-85.0,-34.0,-56.0,-69.0,-153.0,0.0
-57.0,-39.0,-51.0,-98.0,-73.0,-63.0,-24.0,-43.0,-22.0,-129.0,0.0
2.0,-5.0,-35.0,-73.0,-43.0,-43.0,-13.0,-10.0,19.0,-74.0,0.0
40.0,34.0,-1.0,-42.0,-12.0,-16.0,-5.0,26.0,48.0,12.0,0.0
67.0,57.0,42.0,-1.0,17.0,13.0,-2.0,45.0,70.0,104.0,0.0
83.0,80.0,70.0,23.0,35.0,36.0,-12.0,49.0,81.0,192.0,0.0
82.0,83.0,73.0,57.0,50.0,49.0,-18.0,38.0,45.0,245.0,0.0
71.0,79.0,67.0,85.0,59.0,62.0,-19.0,24.0,-10.0,137.0,0.0
57.0,69.0,57.0,66.0,52.0,56.0,-36.0,3.0,-56.0,-102.0,0.0
63.0,55.0,46.0,51.0,39.0,54.0,-31.0,5.0,-38.0,-171.0,0.0
64.0,43.0,32.0,43.0,20.0,45.0,-24.0,10.0,-17.0,-77.0,0.0
42.0,23.0,21.0,22.0,0.0,22.0,-12.0,0.0,-8.0,5.0,0.0
17.0,2.0,-1.0,-2.0,-22.0,-8.0,-8.0,-15.0,-6.0,66.0,0.0
-36.0,-30.0,-46.0,-26.0,-43.0,-33.0,-13.0,-30.0,-38.0,79.0,0.0
-87.0,-70.0,-76.0,-54.0,-63.0,-53.0,-11.0,-46.0,-87.0,-38.0,0.0
-125.0,-89.0,-102.0,-88.0,-75.0,-67.0,-13.0,-72.0,-127.0,-220.0,0.0
-136.0,-93.0,-117.0,-101.0,-86.0,-64.0,-25.0,-71.0,-94.0,-158.0,0.0
-105.0,-78.0,-98.0,-96.0,-71.0,-63.0,-20.0,-60.0,-58.0,-58.0,0.0
-80.0,-59.0,-60.0,-82.0,-43.0,-45.0,-4.0,-44.0,-59.0,-66.0,0.0
-48.0,-31.0,-30.0,-50.0,-14.0,-3.0,5.0,-28.0,-54.0,-67.0,0.0
6.0,8.0,0.0,-10.0,15.0,25.0,13.0,3.0,-21.0,-35.0,0.0
47.0,38.0,13.0,12.0,35.0,41.0,0.0,26.0,0.0,-20.0,0.0
81.0,72.0,33.0,28.0,40.0,55.0,0.0,35.0,32.0,21.0,0.0
103.0,96.0,54.0,40.0,57.0,59.0,0.0,47.0,40.0,65.0,0.0
117.0,112.0,63.0,46.0,74.0,60.0,-4.0,38.0,40.0,85.0,0.0
90.0,100.0,59.0,53.0,71.0,50.0,-10.0,28.0,34.0,113.0,0.0
70.0,69.0,34.0,25.0,51.0,28.0,-12.0,13.0,39.0,132.0,0.0
38.0,27.0,-2.0,-3.0,27.0,23.0,-19.0,6.0,36.0,118.0,0.0
-7.0,-2.0,-23.0,4.0,1.0,11.0,-25.0,0.0,19.0,75.0,0.0
-34.0,-9.0,-57.0,9.0,-12.0,-13.0,-30.0,-24.0,7.0,19.0,0.0
-83.0,-41.0,-77.0,-8.0,-28.0,-29.0,-7.0,-42.0,-18.0,-43.0,0.0
-130.0,-67.0,-111.0,-31.0,-60.0,-48.0,11.0,-45.0,-33.0,-82.0,0.0
-134.0,-93.0,-135.0,-54.0,-72.0,-54.0,15.0,-39.0,-29.0,-91.0,0.0
-103.0,-91.0,-128.0,-59.0,-64.0,-59.0,10.0,-36.0,-23.0,-67.0,0.0
-71.0,-64.0,-73.0,-32.0,-61.0,-46.0,1.0,-27.0,-13.0,-24.0,0.0
-22.0,-38.0,-18.0,0.0,-42.0,-11.0,4.0,-17.0,0.0,54.0,0.0
31.0,-8.0,25.0,33.0,-6.0,13.0,16.0,-3.0,17.0,124.0,0.0
62.0,21.0,47.0,66.0,21.0,35.0,26.0,15.0,48.0,170.0,0.0
78.0,39.0,50.0,73.0,45.0,57.0,27.0,30.0,75.0,176.0,0.0
75.0,49.0,76.0,79.0,73.0,81.0,22.0,41.0,68.0,80.0,0.0
58.0,62.0,94.0,94.0,88.0,89.0,18.0,51.0,43.0,-23.0,0.0
92.0,83.0,89.0,89.0,79.0,82.0,10.0,62.0,52.0,23.0,0.0
131.0,101.0,79.0,70.0,57.0,70.0,3.0,54.0,64.0,118.0,0.0
117.0,71.0,67.0,45.0,37.0,46.0,1.0,41.0,55.0,137.0,0.0
49.0,36.0,46.0,28.0,18.0,30.0,-1.0,23.0,36.0,70.0,0.0
-21.0,-9.0,8.0,-4.0,-10.0,-5.0,-9.0,2.0,10.0,-24.0,0.0
-61.0,-39.0,-30.0,-24.0,-49.0,-36.0,-4.0,-10.0,-5.0,-119.0,0.0
-83.0,-44.0,-51.0,-31.0,-62.0,-51.0,5.0,-35.0,-27.0,-159.0,0.0
-113.0,-65.0,-62.0,-49.0,-65.0,-60.0,4.0,-45.0,-44.0,-138.0,0.0
-119.0,-66.0,-67.0,-66.0,-78.0,-67.0,-12.0,-46.0,-60.0,-113.0,0.0
-98.0,-61.0,-69.0,-67.0,-70.0,-50.0,-14.0,-36.0,-56.0,-88.0,0.0
-82.0,-47.0,-51.0,-56.0,-51.0,-24.0,-13.0,-17.0,-39.0,-50.0,0.0
-37.0,-19.0,-39.0,-31.0,-34.0,-9.0,-6.0,-8.0,-5.0,-18.0,0.0
9.0,20.0,3.0,-3.0,-3.0,6.0,-2.0,11.0,21.0,8.0,0.0
42.0,39.0,38.0,31.0,24.0,31.0,-1.0,26.0,25.0,38.0,0.0
69.0,58.0,55.0,60.0,56.0,47.0,1.0,28.0,30.0,50.0,0.0
89.0,78.0,77.0,66.0,81.0,62.0,10.0,27.0,44.0,71.0,0.0
116.0,95.0,75.0,62.0,93.0,77.0,8.0,39.0,57.0,101.0,0.0
114.0,73.0,62.0,61.0,83.0,70.0,1.0,42.0,57.0,135.0,0.0
83.0,51.0,47.0,49.0,72.0,59.0,9.0,26.0,48.0,130.0,0.0
61.0,31.0,27.0,28.0,54.0,42.0,10.0,4.0,37.0,84.0,0.0
32.0,9.0,-4.0,2.0,16.0,23.0,2.0,-16.0,21.0,27.0,0.0
-3.0,-13.0,-15.0,-18.0,-8.0,1.0,0.0,-29.0,-2.0,-23.0,0.0
-17.0,-41.0,-14.0,-32.0,-16.0,-18.0,5.0,-47.0,-24.0,-72.0,0.0
-62.0,-52.0,-29.0,-42.0,-35.0,-23.0,8.0,-74.0,-39.0,-122.0,0.0
-120.0,-75.0,-45.0,-47.0,-56.0,-26.0,22.0,-73.0,-36.0,-131.0,0.0
-141.0,-91.0,-69.0,-69.0,-86.0,-48.0,30.0,2.0,-23.0,-77.0,0.0
-122.0,-83.0,-65.0,-67.0,-82.0,-47.0,15.0,57.0,-32.0,-55.0,0.0
-88.0,-64.0,-47.0,-55.0,-62.0,-27.0,18.0,24.0,-52.0,-65.0,0.0
-40.0,-36.0,-14.0,-32.0,-33.0,-4.0,26.0,12.0,-38.0,-88.0,0.0
4.0,13.0,25.0,2.0,-4.0,24.0,31.0,25.0,-17.0,-67.0,0.0
44.0,57.0,70.0,35.0,28.0,51.0,42.0,40.0,5.0,-52.0,0.0
90.0,65.0,97.0,54.0,52.0,72.0,35.0,45.0,24.0,-53.0,0.0
117.0,67.0,86.0,61.0,62.0,85.0,31.0,55.0,69.0,-64.0,0.0
128.0,59.0,64.0,59.0,59.0,81.0,33.0,56.0,100.0,-32.0,0.0
133.0,52.0,59.0,50.0,46.0,63.0,22.0,47.0,102.0,28.0,0.0
110.0,45.0,46.0,30.0,33.0,32.0,11.0,34.0,93.0,103.0,0.0
62.0,26.0,35.0,10.0,9.0,18.0,4.0,9.0,72.0,219.0,0.0
-20.0,-17.0,28.0,-8.0,-7.0,-1.0,0.0,-16.0,1.0,235.0,0.0
-92.0,-56.0,-3.0,-26.0,-25.0,-24.0,-4.0,-37.0,-78.0,86.0,0.0
-129.0,-81.0,-26.0,-52.0,-70.0,-65.0,-32.0,-81.0,-116.0,-98.0,0.0
-144.0,-85.0,-48.0,-62.0,-86.0,-81.0,-36.0,-92.0,-109.0,-128.0,0.0
-144.0,-81.0,-55.0,-63.0,-85.0,-80.0,-20.0,-73.0,-83.0,-109.0,0.0
-97.0,-60.0,-52.0,-56.0,-89.0,-77.0,-14.0,-54.0,-32.0,-95.0,0.0
-59.0,-42.0,-42.0,-54.0,-81.0,-63.0,-8.0,-26.0,3.0,-56.0,0.0
-23.0,-21.0,-20.0,-34.0,-48.0,-41.0,-1.0,-3.0,28.0,22.0,0.0
28.0,14.0,18.0,-7.0,-11.0,-9.0,13.0,15.0,58.0,125.0,0.0
63.0,39.0,52.0,18.0,7.0,16.0,24.0,36.0,64.0,205.0,0.0
81.0,61.0,67.0,42.0,31.0,56.0,22.0,39.0,36.0,186.0,0.0
81.0,74.0,75.0,60.0,61.0,75.0,17.0,20.0,2.0,83.0,0.0
99.0,78.0,71.0,59.0,77.0,77.0,-1.0,12.0,-14.0,11.0,0.0
101.0,65.0,83.0,38.0,76.0,66.0,-3.0,15.0,3.0,11.0,0.0
75.0,36.0,63.0,22.0,50.0,47.0,-22.0,7.0,5.0,-60.0,0.0
76.0,23.0,40.0,1.0,27.0,29.0,-30.0,16.0,5.0,-54.0,0.0
77.0,14.0,20.0,-26.0,16.0,10.0,-7.0,18.0,9.0,4.0,0.0
38.0,-4.0,9.0,-29.0,1.0,-3.0,-2.0,14.0,19.0,-23.0,0.0
-19.0,-32.0,-25.0,-23.0,-21.0,-31.0,-2.0,17.0,10.0,-74.0,0.0
-85.0,-76.0,-63.0,-55.0,-51.0,-52.0,-3.0,-10.0,-6.0,-93.0,0.0
-137.0,-109.0,-105.0,-91.0,-67.0,-79.0,-1.0,-28.0,-13.0,-91.0,0.0
-134.0,-115.0,-114.0,-93.0,-72.0,-90.0,1.0,-35.0,-12.0,-15.0,0.0
-119.0,-102.0,-99.0,-76.0,-70.0,-76.0,0.0,-35.0,-34.0,36.0,0.0
-101.0,-80.0,-62.0,-63.0,-62.0,-67.0,-9.0,-43.0,-60.0,-48.0,0.0
-55.0,-30.0,-16.0,-30.0,-47.0,-57.0,-24.0,-50.0,-68.0,-153.0,0.0
8.0,31.0,39.0,23.0,-24.0,-40.0,-31.0,-37.0,-55.0,-116.0,0.0
27.0,45.0,83.0,58.0,12.0,-18.0,-22.0,-15.0,-38.0,-56.0,0.0
35.0,47.0,124.0,82.0,60.0,23.0,-3.0,4.0,-28.0,-28.0,0.0
87.0,83.0,142.0,101.0,86.0,66.0,17.0,35.0,9.0,14.0,0.0
128.0,95.0,120.0,107.0,95.0,80.0,9.0,48.0,40.0,73.0,0.0
134.0,85.0,73.0,107.0,89.0,78.0,13.0,53.0,51.0,122.0,0.0
108.0,82.0,74.0,80.0,67.0,68.0,8.0,33.0,54.0,140.0,0.0
73.0,61.0,49.0,38.0,47.0,32.0,-8.0,15.0,40.0,120.0,0.0
27.0,31.0,23.0,17.0,25.0,0.0,-9.0,10.0,22.0,40.0,0.0
-22.0,2.0,0.0,-14.0,-5.0,-20.0,-12.0,-7.0,3.0,-62.0,0.0
-74.0,-29.0,-21.0,-41.0,-30.0,-32.0,-14.0,-29.0,-23.0,-178.0,0.0
-108.0,-48.0,-54.0,-41.0,-48.0,-44.0,-8.0,-45.0,-34.0,-201.0,0.0
-112.0,-59.0,-80.0,-54.0,-71.0,-53.0,-13.0,-58.0,-45.0,-150.0,0.0
-108.0,-72.0,-85.0,-83.0,-78.0,-48.0,-19.0,-60.0,-53.0,-117.0,0.0
-103.0,-62.0,-63.0,-83.0,-70.0,-35.0,-6.0,-53.0,-44.0,-89.0,0.0
-84.0,-45.0,-51.0,-68.0,-51.0,-26.0,4.0,-33.0,-34.0,-69.0,0.0
-42.0,-18.0,-26.0,-50.0,-25.0,-13.0,14.0,-11.0,-15.0,-49.0,0.0
16.0,4.0,28.0,-21.0,16.0,10.0,15.0,9.0,-12.0,-27.0,0.0
63.0,16.0,56.0,8.0,42.0,40.0,16.0,29.0,2.0,-15.0,0.0
95.0,42.0,61.0,34.0,58.0,61.0,13.0,44.0,19.0,20.0,0.0
134.0,63.0,83.0,43.0,69.0,70.0,17.0,54.0,40.0,83.0,0.0
131.0,78.0,80.0,45.0,78.0,78.0,12.0,53.0,49.0,80.0,0.0
106.0,66.0,77.0,46.0,67.0,70.0,8.0,45.0,56.0,48.0,0.0
89.0,51.0,58.0,50.0,48.0,60.0,-3.0,41.0,63.0,29.0,0.0
64.0,28.0,51.0,24.0,39.0,27.0,-11.0,38.0,60.0,22.0,0.0
43.0,-4.0,11.0,-16.0,14.0,0.0,-6.0,32.0,62.0,41.0,0.0
37.0,-29.0,-28.0,-48.0,-11.0,-19.0,-10.0,19.0,52.0,52.0,0.0
13.0,-46.0,-58.0,-70.0,-36.0,-53.0,-18.0,0.0,24.0,55.0,0.0
-26.0,-79.0,-70.0,-81.0,-61.0,-81.0,-26.0,-18.0,-1.0,121.0,0.0
-88.0,-95.0,-79.0,-78.0,-67.0,-85.0,-17.0,-34.0,-27.0,144.0,0.0
-120.0,-103.0,-85.0,-74.0,-64.0,-55.0,-12.0,-60.0,-81.0,-2.0,0.0
-101.0,-88.0,-77.0,-62.0,-45.0,-42.0,-10.0,-70.0,-107.0,-146.0,0.0
-96.0,-67.0,-37.0,-33.0,-32.0,-24.0,-3.0,-49.0,-82.0,-167.0,0.0
-75.0,-42.0,-21.0,3.0,-20.0,-4.0,-10.0,-26.0,-36.0,-127.0,0.0
-18.0,-10.0,2.0,38.0,2.0,12.0,-8.0,-2.0,11.0,-14.0,0.0
25.0,16.0,39.0,69.0,29.0,39.0,2.0,24.0,34.0,39.0,0.0
54.0,49.0,58.0,98.0,60.0,61.0,6.0,37.0,51.0,56.0,0.0
78.0,68.0,53.0,105.0,73.0,76.0,9.0,44.0,54.0,72.0,0.0
87.0,68.0,71.0,89.0,71.0,73.0,11.0,50.0,69.0,74.0,0.0
73.0,63.0,55.0,73.0,54.0,54.0,5.0,51.0,80.0,60.0,0.0
48.0,40.0,30.0,50.0,36.0,32.0,2.0,29.0,65.0,42.0,0.0
9.0,9.0,8.0,43.0,17.0,16.0,-2.0,1.0,20.0,15.0,0.0
-25.0,-5.0,0.0,19.0,2.0,-6.0,-5.0,-20.0,1.0,0.0,0.0
-39.0,-30.0,1.0,-13.0,-22.0,-28.0,3.0,-44.0,-12.0,-11.0,0.0
-61.0,-52.0,-36.0,-35.0,-50.0,-48.0,4.0,-55.0,-30.0,-31.0,0.0
-93.0,-65.0,-79.0,-51.0,-71.0,-67.0,12.0,-54.0,-35.0,-56.0,0.0
-113.0,-73.0,-82.0,-70.0,-69.0,-59.0,20.0,-59.0,-29.0,-69.0,0.0
-93.0,-59.0,-70.0,-68.0,-63.0,-60.0,23.0,-53.0,-35.0,-59.0,0.0
-69.0,-42.0,-52.0,-43.0,-45.0,-57.0,15.0,-44.0,-33.0,-37.0,0.0
-22.0,-14.0,-26.0,-20.0,-30.0,-42.0,6.0,-16.0,-14.0,-20.0,0.0
23.0,11.0,-1.0,-2.0,-13.0,-7.0,-5.0,1.0,2.0,-2.0,0.0
57.0,29.0,34.0,8.0,18.0,21.0,-2.0,15.0,34.0,26.0,0.0
86.0,53.0,47.0,16.0,44.0,38.0,2.0,28.0,54.0,59.0,0.0
100.0,62.0,61.0,37.0,69.0,53.0,12.0,40.0,66.0,84.0,0.0
106.0,73.0,88.0,44.0,82.0,65.0,15.0,41.0,79.0,80.0,0.0
82.0,66.0,93.0,44.0,70.0,59.0,10.0,37.0,48.0,93.0,0.0
54.0,42.0,66.0,47.0,55.0,47.0,12.0,24.0,36.0,112.0,0.0
33.0,21.0,28.0,52.0,30.0,22.0,16.0,7.0,27.0,76.0,0.0
10.0,-5.0,11.0,34.0,-6.0,-1.0,3.0,-5.0,24.0,43.0,0.0
-17.0,-31.0,-1.0,-1.0,-25.0,-21.0,-1.0,-17.0,6.0,22.0,0.0
-56.0,-48.0,-23.0,-18.0,-48.0,-45.0,3.0,-37.0,-2.0,10.0,0.0
-86.0,-59.0,-56.0,-36.0,-68.0,-65.0,4.0,-50.0,-15.0,-7.0,0.0
-117.0,-86.0,-67.0,-47.0,-78.0,-83.0,2.0,-50.0,-35.0,-34.0,0.0
-123.0,-95.0,-58.0,-33.0,-76.0,-80.0,3.0,-49.0,-46.0,-53.0,0.0
-100.0,-78.0,-37.0,-23.0,-66.0,-63.0,3.0,-39.0,-37.0,-57.0,0.0
-67.0,-71.0,-26.0,-15.0,-41.0,-47.0,6.0,-21.0,-11.0,-26.0,0.0
-23.0,-49.0,8.0,9.0,-19.0,-22.0,3.0,1.0,11.0,23.0,0.0
17.0,-8.0,44.0,34.0,5.0,0.0,9.0,16.0,42.0,53.0,0.0
49.0,17.0,46.0,51.0,33.0,18.0,7.0,30.0,47.0,67.0,0.0
83.0,38.0,62.0,70.0,57.0,35.0,3.0,51.0,42.0,79.0,0.0
94.0,63.0,93.0,81.0,77.0,49.0,-5.0,54.0,50.0,94.0,0.0
85.0,65.0,90.0,80.0,81.0,45.0,-7.0,62.0,44.0,75.0,0.0
64.0,42.0,77.0,71.0,63.0,49.0,0.0,66.0,38.0,46.0,0.0
34.0,26.0,64.0,67.0,45.0,41.0,-2.0,49.0,32.0,30.0,0.0
12.0,2.0,41.0,48.0,27.0,31.0,-11.0,38.0,31.0,10.0,0.0
-13.0,-24.0,10.0,16.0,5.0,1.0,-14.0,22.0,25.0,-5.0,0.0
-36.0,-42.0,-9.0,-15.0,-24.0,-29.0,-8.0,2.0,10.0,-29.0,0.0
-47.0,-58.0,-42.0,-41.0,-49.0,-39.0,3.0,-9.0,-9.0,-69.0,0.0
-37.0,-49.0,-55.0,-50.0,-65.0,-58.0,14.0,-11.0,3.0,-119.0,0.0
-53.0,-54.0,-64.0,-69.0,-72.0,-70.0,11.0,-23.0,-4.0,-130.0,0.0
-46.0,-58.0,-74.0,-75.0,-65.0,-58.0,11.0,-27.0,-16.0,-67.0,0.0
2.0,-48.0,-57.0,-70.0,-48.0,-41.0,14.0,-22.0,-1.0,43.0,0.0
32.0,-24.0,-39.0,-60.0,-40.0,-32.0,11.0,-10.0,11.0,145.0,0.0
33.0,11.0,3.0,-23.0,-14.0,-9.0,10.0,1.0,3.0,201.0,0.0
-9.0,18.0,26.0,11.0,21.0,15.0,13.0,-13.0,-17.0,158.0,0.0
-37.0,16.0,34.0,19.0,25.0,24.0,-8.0,-24.0,-46.0,-41.0,0.0
-19.0,38.0,55.0,46.0,41.0,34.0,-32.0,-10.0,-44.0,-143.0,0.0
9.0,56.0,87.0,78.0,59.0,55.0,-19.0,32.0,-7.0,-46.0,0.0
31.0,54.0,82.0,75.0,66.0,62.0,-1.0,49.0,11.0,-12.0,0.0
39.0,52.0,70.0,42.0,61.0,60.0,6.0,52.0,18.0,-18.0,0.0
18.0,42.0,48.0,12.0,44.0,41.0,7.0,33.0,28.0,-15.0,0.0
-8.0,24.0,34.0,-10.0,14.0,9.0,-1.0,17.0,23.0,0.0,0.0
-34.0,-12.0,-7.0,-42.0,-14.0,-8.0,-10.0,9.0,-11.0,36.0,0.0
-55.0,-40.0,-46.0,-60.0,-46.0,-35.0,-7.0,-15.0,-29.0,41.0,0.0
-72.0,-55.0,-61.0,-76.0,-67.0,-61.0,-10.0,-35.0,-33.0,19.0,0.0
-91.0,-69.0,-67.0,-93.0,-93.0,-82.0,-9.0,-38.0,-35.0,6.0,0.0
-106.0,-60.0,-78.0,-101.0,-96.0,-72.0,0.0,-45.0,-43.0,-5.0,0.0
-110.0,-61.0,-67.0,-76.0,-73.0,-60.0,5.0,-40.0,-48.0,-33.0,0.0
-129.0,-65.0,-55.0,-43.0,-45.0,-51.0,0.0,-40.0,-58.0,-64.0,0.0
-104.0,-31.0,-10.0,-9.0,-13.0,-18.0,5.0,-40.0,-66.0,-71.0,0.0
-59.0,1.0,21.0,28.0,28.0,5.0,23.0,-14.0,-50.0,-54.0,0.0
-12.0,25.0,39.0,44.0,54.0,24.0,32.0,2.0,-23.0,-24.0,0.0
41.0,44.0,42.0,55.0,61.0,37.0,26.0,23.0,10.0,7.0,0.0
78.0,64.0,67.0,56.0,64.0,58.0,16.0,30.0,41.0,47.0,0.0
80.0,85.0,77.0,49.0,77.0,66.0,22.0,32.0,61.0,67.0,0.0
73.0,83.0,59.0,40.0,69.0,69.0,11.0,33.0,39.0,61.0,0.0
70.0,60.0,46.0,23.0,49.0,64.0,-2.0,20.0,34.0,47.0,0.0
56.0,47.0,23.0,0.0,28.0,38.0,-5.0,5.0,20.0,37.0,0.0
24.0,14.0,-9.0,-30.0,3.0,18.0,-16.0,-7.0,5.0,10.0,0.0
10.0,-18.0,-35.0,-46.0,-16.0,-5.0,-20.0,-31.0,7.0,-31.0,0.0
-6.0,-29.0,-62.0,-59.0,-41.0,-31.0,-7.0,-55.0,12.0,-55.0,0.0
-29.0,-47.0,-75.0,-82.0,-56.0,-43.0,0.0,-59.0,0.0,-57.0,0.0
-41.0,-64.0,-80.0,-90.0,-63.0,-44.0,1.0,-46.0,-16.0,-49.0,0.0
-41.0,-58.0,-77.0,-79.0,-58.0,-38.0,6.0,-38.0,-23.0,19.0,0.0
-42.0,-42.0,-74.0,-61.0,-40.0,-27.0,14.0,-23.0,-17.0,129.0,0.0
-55.0,-30.0,-56.0,-42.0,-26.0,-11.0,17.0,-24.0,-37.0,92.0,0.0
-55.0,-23.0,-38.0,-28.0,-13.0,-6.0,13.0,-40.0,-61.0,-76.0,0.0
-27.0,-30.0,-19.0,-18.0,6.0,6.0,2.0,-39.0,-30.0,-64.0,0.0
9.0,-13.0,9.0,-4.0,31.0,27.0,9.0,-17.0,26.0,59.0,0.0
53.0,21.0,37.0,39.0,58.0,53.0,31.0,11.0,45.0,61.0,0.0
90.0,50.0,53.0,78.0,72.0,64.0,34.0,25.0,44.0,38.0,0.0
88.0,60.0,74.0,84.0,74.0,66.0,25.0,21.0,34.0,15.0,0.0
62.0,62.0,71.0,77.0,59.0,58.0,18.0,16.0,24.0,7.0,0.0
35.0,42.0,86.0,63.0,53.0,31.0,3.0,3.0,20.0,-9.0,0.0
8.0,27.0,85.0,66.0,38.0,26.0,-3.0,-1.0,1.0,-22.0,0.0
-39.0,5.0,67.0,65.0,21.0,36.0,0.0,-11.0,-22.0,-40.0,0.0
-68.0,-7.0,17.0,33.0,9.0,25.0,6.0,-20.0,-24.0,-62.0,0.0
-78.0,-26.0,-27.0,-18.0,-21.0,2.0,4.0,-36.0,-33.0,-73.0,0.0
-90.0,-40.0,-54.0,-52.0,-49.0,-17.0,0.0,-44.0,-46.0,-86.0,0.0
-98.0,-50.0,-61.0,-54.0,-72.0,-35.0,0.0,-44.0,-55.0,-86.0,0.0
-86.0,-34.0,-65.0,-44.0,-68.0,-18.0,1.0,-35.0,-29.0,-85.0,0.0
-76.0,-25.0,-64.0,-33.0,-66.0,-5.0,-7.0,-25.0,-19.0,-75.0,0.0
-51.0,-26.0,-35.0,-14.0,-46.0,3.0,2.0,-6.0,-21.0,-38.0,0.0
7.0,7.0,7.0,19.0,-13.0,23.0,10.0,16.0,-2.0,6.0,0.0
56.0,36.0,38.0,49.0,4.0,40.0,0.0,38.0,24.0,26.0,0.0
85.0,58.0,46.0,62.0,30.0,51.0,-3.0,48.0,28.0,22.0,0.0
93.0,79.0,81.0,79.0,64.0,72.0,0.0,56.0,30.0,12.0,0.0
112.0,88.0,106.0,88.0,78.0,79.0,-2.0,64.0,36.0,0.0,0.0
122.0,91.0,95.0,93.0,67.0,68.0,-10.0,54.0,31.0,0.0,0.0
99.0,82.0,76.0,73.0,50.0,61.0,-12.0,38.0,17.0,-9.0,0.0
72.0,58.0,59.0,40.0,35.0,51.0,-4.0,30.0,13.0,-8.0,0.0
36.0,19.0,0.0,15.0,17.0,34.0,-8.0,19.0,2.0,-13.0,0.0
10.0,-11.0,-40.0,-3.0,3.0,16.0,-12.0,9.0,0.0,-40.0,0.0
-25.0,-25.0,-65.0,-18.0,-15.0,1.0,-5.0,6.0,6.0,-31.0,0.0
-59.0,-46.0,-69.0,-30.0,-30.0,-22.0,10.0,-2.0,-10.0,-1.0,0.0
-93.0,-60.0,-91.0,-40.0,-56.0,-49.0,17.0,-16.0,-32.0,-21.0,0.0
-92.0,-53.0,-94.0,-51.0,-77.0,-64.0,14.0,-31.0,-33.0,-81.0,0.0
-86.0,-28.0,-73.0,-36.0,-76.0,-54.0,13.0,-26.0,-54.0,-141.0,0.0
-66.0,-11.0,-62.0,-25.0,-56.0,-36.0,13.0,-18.0,-67.0,-161.0,0.0
-42.0,-4.0,-41.0,-1.0,-36.0,-13.0,5.0,-9.0,-46.0,-75.0,0.0
-16.0,5.0,-24.0,26.0,-3.0,9.0,7.0,13.0,-12.0,19.0,0.0
41.0,33.0,-9.0,44.0,21.0,26.0,15.0,37.0,22.0,63.0,0.0
89.0,47.0,13.0,51.0,33.0,46.0,22.0,60.0,44.0,101.0,0.0
105.0,69.0,29.0,65.0,54.0,69.0,22.0,62.0,55.0,98.0,0.0
93.0,77.0,42.0,73.0,72.0,81.0,20.0,48.0,50.0,73.0,0.0
63.0,49.0,46.0,75.0,71.0,66.0,10.0,34.0,47.0,54.0,0.0
39.0,23.0,30.0,69.0,50.0,59.0,0.0,38.0,43.0,47.0,0.0
21.0,11.0,4.0,39.0,27.0,31.0,-12.0,35.0,46.0,42.0,0.0
-1.0,-4.0,-13.0,10.0,4.0,-1.0,-12.0,22.0,33.0,19.0,0.0
-29.0,-19.0,-19.0,-9.0,-14.0,-24.0,-9.0,5.0,7.0,-6.0,0.0
-61.0,-38.0,-42.0,-26.0,-36.0,-49.0,-9.0,-4.0,-18.0,-38.0,0.0
-75.0,-62.0,-52.0,-52.0,-62.0,-65.0,-12.0,-21.0,-32.0,-71.0,0.0
-82.0,-72.0,-82.0,-59.0,-65.0,-77.0,-8.0,-33.0,-33.0,-81.0,0.0
-94.0,-77.0,-101.0,-57.0,-63.0,-69.0,-3.0,-33.0,-43.0,-80.0,0.0
-79.0,-61.0,-92.0,-42.0,-45.0,-49.0,0.0,-29.0,-26.0,-74.0,0.0
-44.0,-33.0,-63.0,-23.0,-29.0,-29.0,0.0,-20.0,1.0,-64.0,0.0
0.0,3.0,-26.0,-14.0,-4.0,-20.0,4.0,1.0,27.0,-25.0,0.0
43.0,28.0,-3.0,9.0,18.0,7.0,15.0,29.0,49.0,28.0,0.0
78.0,56.0,27.0,35.0,39.0,37.0,22.0,42.0,69.0,101.0,0.0
91.0,64.0,47.0,56.0,48.0,52.0,18.0,38.0,76.0,186.0,0.0
100.0,67.0,48.0,67.0,62.0,70.0,15.0,40.0,68.0,209.0,0.0
100.0,58.0,37.0,72.0,57.0,72.0,0.0,33.0,25.0,99.0,0.0
89.0,47.0,31.0,58.0,40.0,54.0,-19.0,12.0,-12.0,-27.0,0.0
59.0,31.0,22.0,61.0,21.0,40.0,-12.0,4.0,-10.0,-26.0,0.0
13.0,6.0,14.0,36.0,2.0,19.0,-10.0,-6.0,-3.0,-10.0,0.0
-18.0,-15.0,0.0,-2.0,-23.0,-4.0,-15.0,-15.0,5.0,5.0,0.0
-40.0,-20.0,-18.0,-18.0,-31.0,-19.0,-11.0,-26.0,-1.0,0.0,0.0
-62.0,-38.0,-42.0,-32.0,-46.0,-32.0,-9.0,-43.0,-20.0,-23.0,0.0
-77.0,-59.0,-48.0,-47.0,-74.0,-49.0,-2.0,-57.0,-38.0,-36.0,0.0
-91.0,-74.0,-53.0,-51.0,-90.0,-61.0,3.0,-52.0,-51.0,-60.0,0.0
-82.0,-69.0,-54.0,-52.0,-82.0,-63.0,1.0,-36.0,-62.0,-83.0,0.0
-72.0,-54.0,-46.0,-42.0,-64.0,-55.0,-8.0,-34.0,-50.0,-83.0,0.0
-31.0,-31.0,-33.0,-23.0,-39.0,-36.0,4.0,-13.0,-16.0,-63.0,0.0
28.0,4.0,-8.0,0.0,-13.0,-3.0,-2.0,-2.0,13.0,-15.0,0.0
74.0,39.0,15.0,27.0,5.0,24.0,-9.0,7.0,31.0,47.0,0.0
102.0,68.0,34.0,59.0,34.0,41.0,-1.0,35.0,47.0,122.0,0.0
137.0,91.0,44.0,65.0,58.0,52.0,4.0,57.0,47.0,182.0,0.0
144.0,100.0,50.0,66.0,70.0,63.0,7.0,56.0,35.0,179.0,0.0
122.0,80.0,42.0,60.0,66.0,55.0,-5.0,40.0,-2.0,11.0,0.0
106.0,69.0,32.0,47.0,60.0,52.0,-13.0,18.0,-25.0,-135.0,0.0
89.0,56.0,24.0,40.0,55.0,35.0,1.0,22.0,-27.0,-88.0,0.0
44.0,28.0,6.0,12.0,31.0,15.0,5.0,3.0,-20.0,-19.0,0.0
-12.0,-14.0,-17.0,-26.0,-10.0,-15.0,-11.0,-21.0,-29.0,34.0,0.0
-82.0,-42.0,-35.0,-35.0,-34.0,-37.0,-11.0,-38.0,-65.0,-20.0,0.0
-103.0,-52.0,-40.0,-39.0,-54.0,-53.0,-6.0,-50.0,-83.0,-69.0,0.0
-91.0,-73.0,-45.0,-73.0,-82.0,-68.0,-3.0,-52.0,-72.0,-50.0,0.0
-82.0,-76.0,-75.0,-87.0,-87.0,-76.0,-5.0,-48.0,-73.0,-29.0,0.0
-58.0,-60.0,-60.0,-75.0,-86.0,-61.0,-5.0,-34.0,-81.0,30.0,0.0
-26.0,-43.0,-28.0,-63.0,-63.0,-53.0,-9.0,-30.0,-76.0,94.0,0.0
18.0,-15.0,-5.0,-65.0,-29.0,-34.0,-8.0,-20.0,-57.0,107.0,0.0
53.0,17.0,32.0,-49.0,-5.0,-1.0,4.0,-8.0,-21.0,64.0,0.0
67.0,32.0,53.0,-20.0,9.0,23.0,1.0,8.0,4.0,-10.0,0.0
89.0,32.0,55.0,2.0,31.0,39.0,5.0,24.0,24.0,-42.0,0.0
119.0,52.0,81.0,20.0,60.0,53.0,2.0,48.0,44.0,1.0,0.0
128.0,74.0,88.0,40.0,63.0,66.0,-1.0,52.0,46.0,24.0,0.0
109.0,79.0,89.0,58.0,51.0,58.0,8.0,48.0,40.0,-18.0,0.0
67.0,53.0,69.0,52.0,39.0,39.0,3.0,30.0,21.0,-59.0,0.0
10.0,19.0,40.0,14.0,13.0,26.0,0.0,5.0,13.0,-52.0,0.0
-31.0,-19.0,-7.0,-21.0,-16.0,-6.0,-5.0,-16.0,-8.0,-35.0,0.0
-66.0,-50.0,-37.0,-31.0,-25.0,-21.0,-15.0,-31.0,-44.0,-7.0,0.0
-101.0,-76.0,-52.0,-45.0,-44.0,-38.0,-6.0,-53.0,-55.0,-21.0,0.0
-132.0,-89.0,-74.0,-67.0,-72.0,-53.0,1.0,-64.0,-54.0,-75.0,0.0
-135.0,-106.0,-96.0,-78.0,-85.0,-61.0,5.0,-58.0,-61.0,-104.0,0.0
-127.0,-108.0,-116.0,-84.0,-86.0,-58.0,11.0,-41.0,-58.0,-89.0,0.0
-114.0,-83.0,-103.0,-88.0,-64.0,-44.0,0.0,-32.0,-48.0,-74.0,0.0
-89.0,-62.0,-86.0,-70.0,-53.0,-34.0,-2.0,-18.0,-38.0,-61.0,0.0
-44.0,-37.0,-47.0,-28.0,-29.0,-5.0,1.0,-10.0,-23.0,-24.0,0.0
1.0,2.0,-5.0,16.0,-1.0,0.0,-2.0,-1.0,-1.0,14.0,0.0
33.0,31.0,34.0,35.0,21.0,9.0,-23.0,5.0,9.0,44.0,0.0
76.0,69.0,79.0,51.0,47.0,22.0,-30.0,28.0,18.0,65.0,0.0
113.0,101.0,122.0,72.0,71.0,32.0,-24.0,48.0,43.0,80.0,0.0
141.0,124.0,116.0,83.0,85.0,50.0,-11.0,66.0,71.0,31.0,0.0
137.0,112.0,89.0,71.0,73.0,51.0,7.0,67.0,97.0,-15.0,0.0
115.0,91.0,59.0,53.0,50.0,39.0,11.0,57.0,85.0,32.0,0.0
91.0,67.0,37.0,37.0,30.0,13.0,9.0,44.0,66.0,129.0,0.0
46.0,45.0,13.0,20.0,10.0,-13.0,10.0,28.0,38.0,213.0,0.0
-18.0,30.0,-12.0,8.0,-7.0,-17.0,4.0,13.0,0.0,267.0,0.0
-95.0,-14.0,-49.0,-21.0,-19.0,-34.0,-5.0,-25.0,-68.0,204.0,0.0
-166.0,-75.0,-94.0,-68.0,-52.0,-78.0,-28.0,-82.0,-141.0,-111.0,0.0
-197.0,-120.0,-131.0,-106.0,-92.0,-111.0,-44.0,-109.0,-165.0,-393.0,0.0
-171.0,-107.0,-107.0,-116.0,-85.0,-96.0,-33.0,-82.0,-115.0,-289.0,0.0
-112.0,-67.0,-73.0,-93.0,-45.0,-68.0,-6.0,-58.0,-63.0,-125.0,0.0
-62.0,-21.0,-28.0,-71.0,-21.0,-38.0,10.0,-42.0,-19.0,-63.0,0.0
-28.0,12.0,-2.0,-39.0,0.0,-10.0,12.0,-31.0,-6.0,-41.0,0.0
6.0,28.0,29.0,13.0,35.0,21.0,10.0,-13.0,-4.0,-22.0,0.0
33.0,38.0,45.0,29.0,61.0,44.0,3.0,7.0,7.0,32.0,0.0
83.0,64.0,59.0,41.0,73.0,51.0,-3.0,28.0,35.0,69.0,0.0
119.0,94.0,77.0,66.0,76.0,59.0,-3.0,48.0,79.0,74.0,0.0
106.0,98.0,80.0,62.0,77.0,57.0,0.0,59.0,85.0,54.0,0.0
86.0,77.0,48.0,47.0,65.0,44.0,4.0,67.0,62.0,19.0,0.0
76.0,70.0,28.0,30.0,50.0,30.0,2.0,62.0,65.0,-32.0,0.0
40.0,54.0,22.0,11.0,28.0,7.0,1.0,40.0,57.0,-32.0,0.0
-2.0,33.0,19.0,-1.0,8.0,-7.0,2.0,17.0,42.0,15.0,0.0
-33.0,-7.0,-7.0,-31.0,-25.0,-36.0,9.0,14.0,35.0,90.0,0.0
-55.0,-47.0,-52.0,-68.0,-60.0,-69.0,0.0,2.0,31.0,185.0,0.0
-97.0,-71.0,-82.0,-84.0,-67.0,-82.0,0.0,-23.0,-18.0,178.0,0.0
-121.0,-74.0,-83.0,-76.0,-56.0,-79.0,2.0,-52.0,-88.0,-2.0,0.0
-109.0,-58.0,-58.0,-63.0,-54.0,-76.0,-5.0,-63.0,-113.0,-203.0,0.0
-83.0,-39.0,-33.0,-50.0,-41.0,-59.0,-19.0,-43.0,-88.0,-199.0,0.0
-38.0,-27.0,-16.0,-13.0,-4.0,-21.0,-11.0,-26.0,-70.0,-159.0,0.0
-12.0,-8.0,10.0,7.0,19.0,3.0,-11.0,-16.0,-51.0,-114.0,0.0
4.0,13.0,36.0,23.0,35.0,22.0,-1.0,-4.0,-27.0,-23.0,0.0
29.0,40.0,51.0,36.0,49.0,38.0,-4.0,22.0,8.0,75.0,0.0
57.0,62.0,74.0,60.0,68.0,55.0,-14.0,40.0,23.0,113.0,0.0
84.0,78.0,91.0,74.0,80.0,55.0,-19.0,45.0,38.0,95.0,0.0
89.0,85.0,80.0,62.0,73.0,51.0,-16.0,32.0,43.0,78.0,0.0
85.0,61.0,56.0,35.0,53.0,38.0,-8.0,26.0,37.0,64.0,0.0
50.0,37.0,23.0,5.0,33.0,14.0,2.0,20.0,32.0,40.0,0.0
-1.0,-6.0,0.0,0.0,1.0,-2.0,10.0,0.0,15.0,14.0,0.0
-31.0,-41.0,-21.0,1.0,-18.0,-25.0,10.0,-2.0,3.0,0.0,0.0
-62.0,-65.0,-61.0,-15.0,-35.0,-53.0,7.0,-17.0,0.0,-6.0,0.0
-106.0,-85.0,-86.0,-44.0,-61.0,-73.0,9.0,-40.0,-24.0,-45.0,0.0
-118.0,-104.0,-99.0,-48.0,-72.0,-82.0,7.0,-40.0,-43.0,-64.0,0.0
-101.0,-94.0,-96.0,-42.0,-67.0,-69.0,6.0,-31.0,-37.0,-57.0,0.0
-72.0,-64.0,-75.0,-24.0,-50.0,-49.0,9.0,-35.0,-31.0,-21.0,0.0
-37.0,-42.0,-56.0,-8.0,-33.0,-26.0,8.0,-24.0,-6.0,18.0,0.0
1.0,-16.0,-40.0,17.0,-9.0,-2.0,15.0,0.0,18.0,75.0,0.0
46.0,16.0,-15.0,29.0,17.0,11.0,17.0,28.0,37.0,120.0,0.0
87.0,36.0,24.0,46.0,23.0,24.0,0.0,39.0,65.0,119.0,0.0
108.0,47.0,44.0,65.0,43.0,29.0,-10.0,40.0,80.0,102.0,0.0
115.0,63.0,59.0,78.0,65.0,53.0,-18.0,37.0,75.0,68.0,0.0
113.0,65.0,59.0,80.0,71.0,70.0,-14.0,32.0,66.0,88.0,0.0
81.0,43.0,38.0,65.0,68.0,60.0,-20.0,37.0,46.0,123.0,0.0
11.0,0.0,11.0,41.0,42.0,36.0,-31.0,24.0,26.0,85.0,0.0
-47.0,-30.0,-23.0,14.0,15.0,2.0,-37.0,-7.0,-8.0,-53.0,0.0
-88.0,-41.0,-53.0,-11.0,-9.0,-30.0,-38.0,-27.0,-32.0,-153.0,0.0
-102.0,-63.0,-67.0,-32.0,-33.0,-42.0,-32.0,-31.0,-24.0,-148.0,0.0
-125.0,-88.0,-75.0,-50.0,-59.0,-46.0,-20.0,-28.0,-21.0,-138.0,0.0
-140.0,-90.0,-83.0,-65.0,-74.0,-56.0,-13.0,-44.0,-40.0,-164.0,0.0
-154.0,-70.0,-83.0,-75.0,-66.0,-63.0,-7.0,-38.0,-56.0,-206.0,0.0
-139.0,-69.0,-64.0,-63.0,-56.0,-57.0,10.0,-24.0,-39.0,-212.0,0.0
-106.0,-59.0,-58.0,-37.0,-51.0,-37.0,7.0,-10.0,-21.0,-170.0,0.0
-58.0,-29.0,-37.0,-21.0,-29.0,-26.0,5.0,-7.0,4.0,-105.0,0.0
-7.0,0.0,9.0,2.0,-1.0,0.0,12.0,8.0,33.0,-46.0,0.0
11.0,27.0,48.0,36.0,28.0,18.0,1.0,26.0,55.0,46.0,0.0
37.0,35.0,68.0,59.0,56.0,43.0,-3.0,49.0,58.0,94.0,0.0
65.0,63.0,84.0,59.0,65.0,64.0,-5.0,59.0,73.0,99.0,0.0
97.0,91.0,91.0,68.0,70.0,58.0,-5.0,56.0,89.0,112.0,0.0
104.0,92.0,77.0,70.0,84.0,48.0,-6.0,48.0,79.0,96.0,0.0
67.0,59.0,78.0,61.0,76.0,48.0,-4.0,43.0,66.0,59.0,0.0
26.0,34.0,53.0,48.0,60.0,44.0,0.0,31.0,42.0,28.0,0.0
4.0,-1.0,8.0,21.0,37.0,26.0,6.0,9.0,40.0,9.0,0.0
-17.0,-32.0,-39.0,-12.0,14.0,-5.0,15.0,-3.0,27.0,0.0,0.0
-46.0,-42.0,-56.0,-37.0,0.0,-37.0,14.0,-4.0,5.0,-31.0,0.0
-77.0,-66.0,-78.0,-54.0,-30.0,-59.0,16.0,-18.0,2.0,-49.0,0.0
-84.0,-89.0,-98.0,-67.0,-63.0,-77.0,14.0,-30.0,-14.0,-31.0,0.0
-84.0,-89.0,-97.0,-65.0,-63.0,-82.0,9.0,-30.0,-15.0,-39.0,0.0
-89.0,-72.0,-91.0,-62.0,-57.0,-63.0,0.0,-27.0,-22.0,-52.0,0.0
-74.0,-56.0,-66.0,-46.0,-50.0,-36.0,3.0,-24.0,-37.0,-57.0,0.0
-39.0,-42.0,-31.0,-22.0,-30.0,-24.0,11.0,-17.0,-25.0,-45.0,0.0
2.0,-9.0,2.0,7.0,0.0,0.0,18.0,-3.0,-11.0,-26.0,0.0
37.0,26.0,58.0,41.0,31.0,22.0,11.0,16.0,0.0,8.0,0.0
70.0,62.0,120.0,64.0,59.0,35.0,8.0,26.0,21.0,72.0,0.0
102.0,85.0,133.0,87.0,85.0,44.0,12.0,33.0,37.0,125.0,0.0
124.0,103.0,102.0,80.0,92.0,47.0,7.0,37.0,45.0,116.0,0.0
103.0,91.0,93.0,66.0,70.0,36.0,0.0,28.0,45.0,83.0,0.0
83.0,82.0,79.0,50.0,49.0,22.0,-6.0,23.0,32.0,49.0,0.0
58.0,65.0,66.0,24.0,30.0,19.0,-8.0,16.0,6.0,29.0,0.0
15.0,39.0,53.0,-12.0,6.0,0.0,-4.0,-5.0,-8.0,30.0,0.0
-14.0,-1.0,14.0,-50.0,-19.0,-15.0,0.0,-20.0,-28.0,3.0,0.0
-30.0,-27.0,-10.0,-78.0,-48.0,-32.0,-2.0,-31.0,-44.0,-31.0,0.0
-59.0,-43.0,-26.0,-86.0,-80.0,-43.0,-2.0,-35.0,-51.0,-65.0,0.0
-86.0,-51.0,-51.0,-87.0,-84.0,-58.0,-6.0,-34.0,-59.0,-104.0,0.0
-88.0,-59.0,-56.0,-73.0,-68.0,-57.0,-6.0,-45.0,-79.0,-135.0,0.0
-72.0,-55.0,-40.0,-67.0,-53.0,-58.0,-3.0,-40.0,-71.0,-122.0,0.0
-53.0,-31.0,-15.0,-55.0,-30.0,-40.0,-3.0,-24.0,-55.0,-90.0,0.0
-12.0,-14.0,-9.0,-37.0,-1.0,-15.0,-3.0,-5.0,-32.0,-37.0,0.0
37.0,-2.0,16.0,-18.0,17.0,7.0,-11.0,23.0,12.0,50.0,0.0
64.0,18.0,31.0,0.0,36.0,33.0,1.0,43.0,45.0,104.0,0.0
91.0,39.0,54.0,33.0,63.0,64.0,33.0,65.0,54.0,98.0,0.0
118.0,52.0,60.0,58.0,87.0,86.0,49.0,83.0,64.0,138.0,0.0
116.0,53.0,47.0,50.0,94.0,81.0,25.0,79.0,68.0,208.0,0.0
84.0,46.0,33.0,45.0,80.0,63.0,14.0,56.0,44.0,226.0,0.0
46.0,27.0,18.0,23.0,62.0,47.0,10.0,30.0,-4.0,100.0,0.0
17.0,1.0,7.0,2.0,38.0,21.0,3.0,-10.0,-39.0,-91.0,0.0
-22.0,-22.0,2.0,-19.0,8.0,-8.0,5.0,-23.0,-35.0,-123.0,0.0
-57.0,-35.0,-5.0,-42.0,-21.0,-28.0,3.0,-31.0,-41.0,-88.0,0.0
-83.0,-48.0,-40.0,-61.0,-58.0,-48.0,10.0,-48.0,-49.0,-84.0,0.0
-114.0,-75.0,-73.0,-79.0,-81.0,-68.0,17.0,-55.0,-55.0,-90.0,0.0
-130.0,-86.0,-93.0,-68.0,-81.0,-66.0,20.0,-36.0,-54.0,-97.0,0.0
-102.0,-83.0,-95.0,-51.0,-68.0,-59.0,38.0,-24.0,-43.0,-79.0,0.0
-80.0,-70.0,-90.0,-46.0,-44.0,-39.0,50.0,-17.0,-37.0,-61.0,0.0
-49.0,-38.0,-57.0,-33.0,-7.0,-17.0,51.0,-14.0,-8.0,-27.0,0.0
-2.0,0.0,-13.0,-1.0,22.0,15.0,51.0,3.0,0.0,8.0,0.0
45.0,23.0,25.0,35.0,47.0,49.0,43.0,16.0,13.0,18.0,0.0
81.0,35.0,56.0,52.0,61.0,73.0,36.0,25.0,32.0,41.0,0.0
108.0,73.0,77.0,75.0,72.0,87.0,33.0,40.0,66.0,65.0,0.0
133.0,94.0,76.0,75.0,76.0,96.0,35.0,43.0,66.0,95.0,0.0
122.0,80.0,80.0,67.0,77.0,86.0,34.0,39.0,45.0,96.0,0.0
100.0,69.0,60.0,47.0,67.0,73.0,22.0,25.0,48.0,65.0,0.0
98.0,50.0,32.0,41.0,39.0,46.0,0.0,9.0,22.0,49.0,0.0
87.0,40.0,15.0,24.0,-2.0,17.0,-4.0,-6.0,-3.0,9.0,0.0
41.0,20.0,-7.0,6.0,-28.0,4.0,0.0,-25.0,-15.0,-43.0,0.0
-2.0,-17.0,-32.0,-17.0,-45.0,-15.0,5.0,-37.0,-22.0,-83.0,0.0
-40.0,-45.0,-40.0,-17.0,-61.0,-40.0,18.0,-51.0,-39.0,-138.0,0.0
-85.0,-56.0,-40.0,-16.0,-65.0,-50.0,27.0,-57.0,-62.0,-180.0,0.0
-97.0,-63.0,-57.0,-19.0,-65.0,-36.0,29.0,-56.0,-64.0,-180.0,0.0
-94.0,-70.0,-75.0,-23.0,-63.0,-31.0,18.0,-48.0,-53.0,-106.0,0.0
-92.0,-69.0,-58.0,-10.0,-51.0,-24.0,26.0,-44.0,-29.0,-32.0,0.0
-66.0,-45.0,-27.0,0.0,-28.0,0.0,28.0,-20.0,-1.0,35.0,0.0
-19.0,-13.0,0.0,0.0,-9.0,20.0,15.0,-3.0,9.0,105.0,0.0
17.0,10.0,37.0,16.0,18.0,34.0,5.0,10.0,28.0,107.0,0.0
60.0,40.0,51.0,35.0,40.0,48.0,13.0,28.0,50.0,153.0,0.0
95.0,61.0,56.0,50.0,53.0,73.0,22.0,49.0,71.0,236.0,0.0
109.0,67.0,50.0,66.0,61.0,72.0,13.0,45.0,58.0,237.0,0.0
88.0,47.0,37.0,60.0,43.0,58.0,-4.0,21.0,11.0,142.0,0.0
59.0,30.0,16.0,41.0,13.0,37.0,-32.0,-10.0,-34.0,-4.0,0.0
42.0,15.0,9.0,12.0,-11.0,13.0,-30.0,-25.0,-42.0,-77.0,0.0
15.0,-12.0,-23.0,-3.0,-23.0,-17.0,-14.0,-24.0,-29.0,-64.0,0.0
-20.0,-47.0,-42.0,-21.0,-40.0,-41.0,-7.0,-37.0,-42.0,-68.0,0.0
-61.0,-72.0,-69.0,-36.0,-70.0,-55.0,-9.0,-51.0,-54.0,-80.0,0.0
-88.0,-88.0,-68.0,-57.0,-83.0,-58.0,-6.0,-61.0,-62.0,-97.0,0.0
-97.0,-89.0,-74.0,-65.0,-98.0,-71.0,0.0,-65.0,-66.0,-125.0,0.0
-98.0,-78.0,-73.0,-59.0,-95.0,-64.0,7.0,-70.0,-64.0,-123.0,0.0
-70.0,-54.0,-67.0,-29.0,-82.0,-52.0,4.0,-82.0,-55.0,-98.0,0.0
-13.0,-13.0,-47.0,-20.0,-62.0,-49.0,3.0,-75.0,-45.0,-56.0,0.0
43.0,23.0,-20.0,2.0,-34.0,-35.0,-13.0,-69.0,-19.0,-20.0,0.0
72.0,28.0,2.0,14.0,-17.0,-18.0,-6.0,-13.0,24.0,31.0,0.0
102.0,42.0,44.0,23.0,0.0,-7.0,0.0,92.0,53.0,73.0,0.0
149.0,94.0,67.0,58.0,20.0,14.0,-5.0,102.0,59.0,107.0,0.0
170.0,119.0,82.0,94.0,41.0,38.0,-3.0,74.0,56.0,120.0,0.0
147.0,100.0,89.0,94.0,49.0,44.0,2.0,62.0,54.0,116.0,0.0
123.0,92.0,85.0,89.0,47.0,35.0,-1.0,46.0,38.0,121.0,0.0
91.0,79.0,55.0,78.0,37.0,34.0,9.0,26.0,33.0,141.0,0.0
54.0,40.0,27.0,35.0,18.0,13.0,2.0,13.0,14.0,125.0,0.0
10.0,-11.0,9.0,-10.0,-5.0,-16.0,-10.0,4.0,-17.0,45.0,0.0
-39.0,-50.0,-16.0,-43.0,-40.0,-39.0,-19.0,-1.0,-33.0,-40.0,0.0
-76.0,-59.0,-53.0,-64.0,-67.0,-58.0,-17.0,-18.0,-30.0,-133.0,0.0
-92.0,-71.0,-75.0,-71.0,-77.0,-70.0,-2.0,-19.0,-35.0,-175.0,0.0
-104.0,-87.0,-85.0,-74.0,-83.0,-69.0,-5.0,-32.0,-42.0,-137.0,0.0
-105.0,-79.0,-74.0,-58.0,-67.0,-58.0,-7.0,-35.0,-41.0,-104.0,0.0
-81.0,-57.0,-53.0,-33.0,-41.0,-42.0,-6.0,-32.0,-46.0,-61.0,0.0
-35.0,-29.0,-27.0,-9.0,-13.0,-25.0,2.0,-11.0,-23.0,-55.0,0.0
-6.0,0.0,-3.0,2.0,6.0,-7.0,2.0,3.0,16.0,-53.0,0.0
-15.0,4.0,25.0,8.0,11.0,6.0,-16.0,13.0,36.0,-49.0,0.0
0.0,16.0,41.0,33.0,27.0,23.0,-18.0,15.0,34.0,-69.0,0.0
53.0,45.0,53.0,50.0,62.0,47.0,-1.0,33.0,45.0,33.0,0.0
98.0,67.0,64.0,57.0,74.0,56.0,-6.0,44.0,49.0,166.0,0.0
104.0,71.0,68.0,66.0,69.0,43.0,-13.0,47.0,23.0,137.0,0.0
80.0,56.0,46.0,50.0,56.0,18.0,-12.0,20.0,-10.0,-54.0,0.0
50.0,31.0,29.0,19.0,34.0,5.0,-18.0,8.0,-7.0,-171.0,0.0
23.0,21.0,21.0,-16.0,18.0,-12.0,-21.0,2.0,13.0,-109.0,0.0
-17.0,6.0,-14.0,-60.0,-12.0,-33.0,-9.0,0.0,8.0,-13.0,0.0
-56.0,-24.0,-52.0,-80.0,-46.0,-54.0,-16.0,-13.0,-12.0,48.0,0.0
-77.0,-52.0,-76.0,-103.0,-71.0,-76.0,-18.0,-28.0,-33.0,8.0,0.0
-106.0,-58.0,-84.0,-113.0,-89.0,-81.0,-14.0,-43.0,-71.0,-86.0,0.0
-120.0,-56.0,-79.0,-93.0,-92.0,-65.0,-4.0,-43.0,-95.0,-126.0,0.0
-101.0,-66.0,-80.0,-77.0,-71.0,-55.0,-8.0,-39.0,-92.0,-96.0,0.0
-74.0,-53.0,-66.0,-68.0,-44.0,-38.0,-11.0,-36.0,-68.0,-58.0,0.0
-35.0,-28.0,-39.0,-45.0,-16.0,-19.0,-14.0,-18.0,-43.0,-30.0,0.0
6.0,4.0,-11.0,-22.0,20.0,2.0,-10.0,9.0,-12.0,15.0,0.0
46.0,29.0,17.0,13.0,43.0,34.0,0.0,22.0,15.0,39.0,0.0
83.0,46.0,34.0,31.0,66.0,39.0,0.0,39.0,30.0,58.0,0.0
120.0,60.0,61.0,48.0,82.0,55.0,8.0,43.0,50.0,82.0,0.0
123.0,83.0,60.0,57.0,82.0,70.0,5.0,51.0,56.0,100.0,0.0
100.0,83.0,59.0,58.0,63.0,63.0,0.0,62.0,59.0,98.0,0.0
80.0,57.0,48.0,49.0,59.0,40.0,0.0,57.0,68.0,76.0,0.0
45.0,27.0,23.0,24.0,47.0,25.0,-2.0,39.0,53.0,54.0,0.0
11.0,-7.0,-18.0,-3.0,23.0,7.0,0.0,17.0,36.0,50.0,0.0
-22.0,-45.0,-42.0,-23.0,4.0,-11.0,-5.0,6.0,3.0,17.0,0.0
-68.0,-67.0,-55.0,-44.0,-17.0,-30.0,-3.0,-19.0,-20.0,-27.0,0.0
-101.0,-86.0,-75.0,-56.0,-33.0,-47.0,-7.0,-42.0,-48.0,-79.0,0.0
-123.0,-100.0,-92.0,-74.0,-52.0,-56.0,-22.0,-56.0,-55.0,-101.0,0.0
-115.0,-81.0,-79.0,-69.0,-66.0,-68.0,-20.0,-47.0,-45.0,-114.0,0.0
-88.0,-62.0,-43.0,-53.0,-59.0,-58.0,-22.0,-32.0,-34.0,-101.0,0.0
-60.0,-33.0,3.0,-26.0,-38.0,-34.0,-14.0,-17.0,-26.0,-104.0,0.0
-12.0,7.0,64.0,22.0,1.0,-3.0,-13.0,-4.0,15.0,-116.0,0.0
37.0,33.0,87.0,52.0,45.0,36.0,-2.0,20.0,43.0,-91.0,0.0
82.0,44.0,66.0,61.0,64.0,54.0,7.0,53.0,85.0,6.0,0.0
103.0,58.0,53.0,64.0,66.0,73.0,10.0,73.0,106.0,121.0,0.0
89.0,57.0,59.0,66.0,88.0,75.0,12.0,83.0,104.0,244.0,0.0
71.0,45.0,57.0,51.0,88.0,65.0,10.0,73.0,80.0,302.0,0.0
62.0,33.0,55.0,44.0,70.0,48.0,3.0,32.0,24.0,212.0,0.0
49.0,30.0,47.0,33.0,43.0,30.0,-8.0,3.0,-23.0,9.0,0.0
29.0,11.0,38.0,15.0,16.0,11.0,-9.0,6.0,-27.0,-73.0,0.0
6.0,-8.0,15.0,-9.0,5.0,-10.0,-1.0,-2.0,-23.0,-39.0,0.0
-22.0,-34.0,-19.0,-43.0,-8.0,-28.0,7.0,-16.0,-24.0,-34.0,0.0
-58.0,-58.0,-60.0,-86.0,-40.0,-62.0,-4.0,-29.0,-23.0,-26.0,0.0
-100.0,-79.0,-85.0,-102.0,-59.0,-71.0,-3.0,-42.0,-45.0,-48.0,0.0
-119.0,-75.0,-76.0,-87.0,-62.0,-68.0,12.0,-48.0,-53.0,-82.0,0.0
-113.0,-58.0,-59.0,-76.0,-46.0,-65.0,19.0,-41.0,-44.0,-76.0,0.0
-86.0,-47.0,-54.0,-63.0,-41.0,-47.0,13.0,-36.0,-33.0,-55.0,0.0
-29.0,-3.0,-26.0,-41.0,-25.0,-21.0,8.0,-6.0,-22.0,-14.0,0.0
34.0,37.0,17.0,-10.0,-2.0,-5.0,4.0,20.0,-8.0,43.0,0.0
84.0,54.0,27.0,11.0,20.0,12.0,-8.0,22.0,7.0,57.0,0.0
117.0,73.0,42.0,49.0,45.0,32.0,-14.0,23.0,25.0,61.0,0.0
147.0,81.0,64.0,65.0,67.0,50.0,-20.0,22.0,41.0,69.0,0.0
151.0,85.0,82.0,76.0,71.0,51.0,-18.0,32.0,52.0,80.0,0.0
131.0,87.0,86.0,85.0,62.0,49.0,-8.0,27.0,46.0,73.0,0.0
93.0,67.0,60.0,77.0,55.0,45.0,-1.0,22.0,45.0,60.0,0.0
53.0,34.0,35.0,57.0,40.0,36.0,-3.0,8.0,41.0,53.0,0.0
15.0,6.0,13.0,24.0,9.0,14.0,-8.0,-17.0,26.0,51.0,0.0
-31.0,-20.0,-8.0,-6.0,-12.0,-2.0,-5.0,-26.0,3.0,12.0,0.0
-64.0,-54.0,-36.0,-15.0,-26.0,-8.0,2.0,-36.0,-13.0,-39.0,0.0
-95.0,-84.0,-59.0,-40.0,-50.0,-33.0,2.0,-47.0,-33.0,-85.0,0.0
-111.0,-81.0,-79.0,-54.0,-64.0,-50.0,17.0,-39.0,-39.0,-94.0,0.0
-107.0,-80.0,-80.0,-56.0,-66.0,-65.0,27.0,-46.0,-28.0,-91.0,0.0
-86.0,-67.0,-71.0,-68.0,-47.0,-54.0,26.0,-50.0,-18.0,-84.0,0.0
-62.0,-59.0,-58.0,-51.0,-27.0,-36.0,15.0,-29.0,-8.0,-55.0,0.0
-45.0,-28.0,-38.0,-22.0,-8.0,-16.0,10.0,-12.0,7.0,19.0,0.0
-23.0,-2.0,0.0,5.0,21.0,11.0,3.0,11.0,14.0,58.0,0.0
23.0,20.0,35.0,26.0,55.0,36.0,14.0,30.0,21.0,64.0,0.0
56.0,58.0,69.0,43.0,76.0,55.0,19.0,41.0,36.0,77.0,0.0
74.0,84.0,91.0,64.0,93.0,63.0,14.0,48.0,49.0,94.0,0.0
94.0,83.0,74.0,63.0,85.0,58.0,5.0,53.0,63.0,105.0,0.0
87.0,73.0,76.0,51.0,67.0,47.0,1.0,59.0,54.0,84.0,0.0
65.0,60.0,74.0,32.0,59.0,28.0,6.0,39.0,38.0,70.0,0.0
38.0,43.0,39.0,11.0,40.0,24.0,2.0,28.0,18.0,50.0,0.0
3.0,7.0,11.0,-17.0,14.0,3.0,-4.0,8.0,0.0,14.0,0.0
-25.0,-24.0,-26.0,-45.0,-13.0,-25.0,-7.0,-9.0,-6.0,-17.0,0.0
-53.0,-45.0,-40.0,-62.0,-39.0,-51.0,-10.0,-27.0,-16.0,-34.0,0.0
-78.0,-60.0,-65.0,-80.0,-75.0,-62.0,-16.0,-49.0,-37.0,-53.0,0.0
-102.0,-70.0,-61.0,-84.0,-88.0,-65.0,-15.0,-64.0,-53.0,-73.0,0.0
-90.0,-64.0,-51.0,-63.0,-81.0,-42.0,-6.0,-56.0,-51.0,-73.0,0.0
-56.0,-51.0,-39.0,-45.0,-60.0,-36.0,-6.0,-39.0,-33.0,-63.0,0.0
-36.0,-27.0,-1.0,-50.0,-45.0,-22.0,-9.0,-28.0,-17.0,-47.0,0.0
7.0,11.0,38.0,-32.0,-12.0,11.0,-1.0,-3.0,-2.0,-36.0,0.0
37.0,40.0,61.0,6.0,18.0,26.0,1.0,19.0,7.0,-21.0,0.0
62.0,60.0,69.0,33.0,47.0,51.0,2.0,35.0,30.0,0.0,0.0
79.0,73.0,74.0,41.0,72.0,64.0,9.0,54.0,54.0,23.0,0.0
96.0,83.0,92.0,44.0,91.0,69.0,1.0,71.0,58.0,43.0,0.0
99.0,87.0,81.0,41.0,92.0,64.0,-3.0,59.0,58.0,83.0,0.0
87.0,50.0,76.0,13.0,71.0,44.0,-7.0,46.0,50.0,122.0,0.0
48.0,21.0,44.0,-4.0,37.0,37.0,-19.0,22.0,39.0,123.0,0.0
6.0,-2.0,22.0,-9.0,21.0,27.0,-15.0,13.0,14.0,63.0,0.0
-18.0,-26.0,5.0,-27.0,-1.0,8.0,-14.0,-1.0,0.0,-1.0,0.0
-39.0,-47.0,-16.0,-44.0,-31.0,-21.0,-24.0,-30.0,-13.0,-24.0,0.0
-63.0,-67.0,-54.0,-44.0,-49.0,-44.0,-27.0,-41.0,-40.0,-45.0,0.0
-85.0,-83.0,-75.0,-50.0,-66.0,-60.0,-20.0,-44.0,-45.0,-73.0,0.0
-102.0,-90.0,-87.0,-62.0,-75.0,-61.0,-8.0,-45.0,-37.0,-80.0,0.0
-93.0,-85.0,-60.0,-51.0,-70.0,-54.0,-11.0,-36.0,-40.0,-67.0,0.0
-85.0,-56.0,-31.0,-27.0,-39.0,-40.0,-3.0,-21.0,-39.0,-55.0,0.0
-50.0,-28.0,-10.0,-12.0,-9.0,-18.0,2.0,-12.0,-18.0,-27.0,0.0
3.0,9.0,-2.0,11.0,8.0,13.0,1.0,17.0,12.0,0.0,0.0
55.0,29.0,22.0,26.0,17.0,34.0,-2.0,31.0,45.0,40.0,0.0
83.0,52.0,40.0,42.0,41.0,51.0,3.0,29.0,61.0,77.0,0.0
91.0,59.0,51.0,62.0,60.0,67.0,-6.0,40.0,65.0,98.0,0.0
113.0,75.0,78.0,87.0,76.0,75.0,-7.0,45.0,75.0,115.0,0.0
112.0,86.0,78.0,84.0,74.0,57.0,-2.0,41.0,59.0,101.0,0.0
88.0,74.0,70.0,78.0,61.0,42.0,-14.0,26.0,22.0,62.0,0.0
55.0,38.0,35.0,49.0,47.0,17.0,-25.0,13.0,4.0,25.0,0.0
22.0,10.0,7.0,28.0,23.0,-10.0,-18.0,3.0,-17.0,-3.0,0.0
-20.0,-15.0,-29.0,9.0,5.0,-16.0,-13.0,-3.0,-33.0,-31.0,0.0
-61.0,-42.0,-64.0,-14.0,-14.0,-21.0,-22.0,-20.0,-32.0,-62.0,0.0
-93.0,-63.0,-77.0,-45.0,-35.0,-39.0,-19.0,-39.0,-41.0,-93.0,0.0
-104.0,-65.0,-79.0,-61.0,-51.0,-45.0,-16.0,-52.0,-56.0,-130.0,0.0
-91.0,-39.0,-69.0,-50.0,-44.0,-59.0,-18.0,-47.0,-47.0,-151.0,0.0
-72.0,-20.0,-49.0,-39.0,-47.0,-59.0,-18.0,-22.0,-27.0,-119.0,0.0
-49.0,-9.0,-43.0,-21.0,-34.0,-41.0,-2.0,-5.0,-12.0,-78.0,0.0
-14.0,18.0,-24.0,0.0,-12.0,-12.0,-2.0,19.0,0.0,-7.0,0.0
29.0,52.0,24.0,27.0,17.0,8.0,5.0,41.0,17.0,98.0,0.0
53.0,74.0,46.0,52.0,39.0,26.0,24.0,53.0,27.0,120.0,0.0
44.0,84.0,58.0,83.0,63.0,40.0,17.0,47.0,-13.0,-15.0,0.0
33.0,89.0,75.0,99.0,76.0,53.0,7.0,33.0,-51.0,-140.0,0.0
27.0,79.0,55.0,84.0,69.0,52.0,0.0,30.0,-11.0,-17.0,0.0
41.0,61.0,38.0,66.0,48.0,39.0,-8.0,45.0,20.0,80.0,0.0
47.0,34.0,23.0,40.0,36.0,23.0,-3.0,29.0,38.0,47.0,0.0
23.0,5.0,9.0,26.0,24.0,16.0,-3.0,3.0,31.0,-18.0,0.0
7.0,-12.0,0.0,6.0,4.0,2.0,0.0,-2.0,15.0,-54.0,0.0
-17.0,-27.0,-20.0,-20.0,-28.0,-10.0,-5.0,-8.0,1.0,-61.0,0.0
-47.0,-38.0,-31.0,-32.0,-62.0,-35.0,6.0,-17.0,-14.0,-68.0,0.0
-91.0,-63.0,-44.0,-38.0,-77.0,-51.0,11.0,-29.0,-32.0,-78.0,0.0
-121.0,-76.0,-64.0,-37.0,-84.0,-53.0,12.0,-37.0,-53.0,-78.0,0.0
-125.0,-78.0,-72.0,-38.0,-71.0,-57.0,14.0,-34.0,-50.0,-49.0,0.0
-104.0,-77.0,-61.0,-36.0,-62.0,-50.0,5.0,-27.0,-39.0,19.0,0.0
-85.0,-55.0,-44.0,-27.0,-51.0,-39.0,4.0,-19.0,-22.0,110.0,0.0
-39.0,-8.0,-7.0,-5.0,-20.0,0.0,10.0,-5.0,-11.0,141.0,0.0
14.0,33.0,31.0,13.0,18.0,29.0,7.0,16.0,3.0,144.0,0.0
48.0,57.0,42.0,40.0,46.0,53.0,7.0,36.0,22.0,157.0,0.0
70.0,58.0,55.0,73.0,59.0,67.0,12.0,52.0,39.0,147.0,0.0
68.0,60.0,59.0,97.0,65.0,75.0,8.0,48.0,48.0,103.0,0.0
53.0,56.0,39.0,87.0,56.0,68.0,-4.0,41.0,38.0,4.0,0.0
40.0,39.0,25.0,79.0,42.0,49.0,-3.0,28.0,33.0,-56.0,0.0
42.0,30.0,23.0,72.0,35.0,29.0,-5.0,17.0,26.0,-23.0,0.0
26.0,19.0,10.0,49.0,23.0,5.0,-9.0,1.0,11.0,-2.0,0.0
0.0,-5.0,-7.0,29.0,0.0,-12.0,0.0,-12.0,-2.0,-13.0,0.0
-26.0,-24.0,-45.0,6.0,-28.0,-34.0,5.0,-16.0,-22.0,-36.0,0.0
-56.0,-47.0,-69.0,-19.0,-53.0,-66.0,12.0,-30.0,-41.0,-60.0,0.0
-83.0,-58.0,-81.0,-36.0,-71.0,-82.0,10.0,-32.0,-49.0,-72.0,0.0
-82.0,-67.0,-88.0,-50.0,-74.0,-89.0,2.0,-38.0,-54.0,-70.0,0.0
-64.0,-50.0,-78.0,-38.0,-61.0,-58.0,6.0,-35.0,-46.0,-46.0,0.0
-50.0,-34.0,-51.0,-10.0,-44.0,-32.0,9.0,-25.0,-33.0,-18.0,0.0
-18.0,-8.0,-11.0,17.0,-20.0,-7.0,9.0,-6.0,-21.0,27.0,0.0
27.0,22.0,8.0,46.0,3.0,5.0,15.0,10.0,-10.0,85.0,0.0
74.0,44.0,38.0,59.0,29.0,17.0,19.0,25.0,10.0,112.0,0.0
91.0,64.0,60.0,62.0,46.0,46.0,21.0,40.0,20.0,86.0,0.0
75.0,63.0,52.0,72.0,69.0,65.0,9.0,46.0,32.0,28.0,0.0
50.0,59.0,48.0,79.0,68.0,65.0,6.0,43.0,30.0,-45.0,0.0
54.0,55.0,42.0,70.0,61.0,49.0,11.0,22.0,30.0,-50.0,0.0
60.0,52.0,33.0,61.0,47.0,37.0,18.0,19.0,35.0,10.0,0.0
31.0,18.0,19.0,48.0,29.0,33.0,18.0,25.0,18.0,10.0,0.0
7.0,-4.0,10.0,27.0,4.0,18.0,16.0,12.0,4.0,-52.0,0.0
-9.0,-19.0,6.0,2.0,-14.0,-1.0,25.0,3.0,-5.0,-89.0,0.0
-28.0,-39.0,-20.0,-21.0,-27.0,-19.0,19.0,-7.0,-13.0,-102.0,0.0
-45.0,-54.0,-47.0,-45.0,-40.0,-41.0,8.0,-22.0,-23.0,-88.0,0.0
-71.0,-64.0,-71.0,-63.0,-53.0,-57.0,4.0,-39.0,-16.0,-32.0,0.0
-84.0,-72.0,-70.0,-61.0,-60.0,-60.0,18.0,-37.0,-20.0,-25.0,0.0
-67.0,-66.0,-62.0,-37.0,-52.0,-48.0,10.0,-42.0,-47.0,-87.0,0.0
-44.0,-54.0,-59.0,-20.0,-51.0,-39.0,-3.0,-49.0,-55.0,-156.0,0.0
-21.0,-21.0,-24.0,-1.0,-43.0,-16.0,-11.0,-35.0,-17.0,-20.0,0.0
9.0,25.0,39.0,28.0,-1.0,20.0,4.0,-24.0,11.0,146.0,0.0
46.0,57.0,68.0,49.0,43.0,30.0,4.0,-15.0,21.0,248.0,0.0
78.0,81.0,88.0,71.0,57.0,37.0,-22.0,2.0,23.0,202.0,0.0
102.0,92.0,106.0,67.0,62.0,40.0,-32.0,17.0,32.0,85.0,0.0
100.0,92.0,92.0,48.0,62.0,42.0,-26.0,29.0,44.0,89.0,0.0
63.0,81.0,67.0,42.0,50.0,38.0,-31.0,16.0,16.0,39.0,0.0
39.0,57.0,55.0,40.0,27.0,40.0,-42.0,-23.0,-27.0,-113.0,0.0
26.0,27.0,51.0,16.0,15.0,13.0,-34.0,-34.0,-21.0,-161.0,0.0
-10.0,-6.0,14.0,-6.0,-6.0,-15.0,-23.0,-31.0,2.0,-113.0,0.0
-25.0,-28.0,-30.0,-20.0,-28.0,-32.0,-16.0,-25.0,10.0,-80.0,0.0
-23.0,-56.0,-53.0,-42.0,-57.0,-56.0,-6.0,-30.0,8.0,-31.0,0.0
-45.0,-68.0,-86.0,-70.0,-83.0,-77.0,-6.0,-39.0,5.0,-17.0,0.0
-44.0,-64.0,-83.0,-84.0,-94.0,-87.0,-10.0,-38.0,12.0,-8.0,0.0
-28.0,-34.0,-66.0,-75.0,-80.0,-80.0,-2.0,-42.0,14.0,19.0,0.0
-10.0,-14.0,-33.0,-65.0,-63.0,-69.0,0.0,-40.0,-11.0,48.0,0.0
-34.0,3.0,-15.0,-30.0,-48.0,-44.0,-2.0,-40.0,-19.0,12.0,0.0
-43.0,31.0,14.0,23.0,-7.0,-3.0,0.0,-28.0,-7.0,-44.0,0.0
-18.0,58.0,36.0,52.0,25.0,29.0,0.0,-28.0,17.0,-30.0,0.0
17.0,54.0,42.0,69.0,36.0,54.0,-1.0,-34.0,23.0,-3.0,0.0
52.0,73.0,61.0,78.0,49.0,75.0,-4.0,-32.0,72.0,12.0,0.0
61.0,50.0,56.0,86.0,53.0,73.0,-7.0,13.0,57.0,49.0,0.0
47.0,26.0,36.0,83.0,46.0,67.0,-17.0,95.0,53.0,50.0,0.0
27.0,24.0,24.0,72.0,42.0,56.0,-22.0,105.0,40.0,20.0,0.0
33.0,29.0,18.0,64.0,33.0,45.0,-15.0,62.0,32.0,22.0,0.0
29.0,17.0,5.0,45.0,10.0,33.0,-10.0,26.0,13.0,11.0,0.0
-7.0,-9.0,-6.0,15.0,-11.0,12.0,-1.0,3.0,-13.0,-43.0,0.0
-50.0,-28.0,-30.0,2.0,-31.0,-4.0,9.0,-12.0,-33.0,-79.0,0.0
-82.0,-62.0,-50.0,-17.0,-57.0,-33.0,20.0,-38.0,-67.0,-62.0,0.0
-97.0,-76.0,-75.0,-49.0,-83.0,-63.0,14.0,-64.0,-71.0,-19.0,0.0
-106.0,-75.0,-76.0,-51.0,-87.0,-69.0,13.0,-58.0,-61.0,-33.0,0.0
-112.0,-73.0,-70.0,-38.0,-83.0,-67.0,14.0,-36.0,-65.0,-89.0,0.0
-120.0,-70.0,-62.0,-25.0,-69.0,-57.0,13.0,-25.0,-62.0,-123.0,0.0
-79.0,-49.0,-36.0,-13.0,-41.0,-31.0,16.0,-24.0,-44.0,-71.0,0.0
-29.0,-18.0,-7.0,3.0,-3.0,-13.0,3.0,-1.0,-25.0,29.0,0.0
20.0,10.0,9.0,23.0,22.0,15.0,-8.0,11.0,-7.0,70.0,0.0
61.0,44.0,26.0,36.0,32.0,39.0,1.0,29.0,15.0,67.0,0.0
93.0,63.0,49.0,60.0,50.0,51.0,11.0,41.0,32.0,79.0,0.0
111.0,72.0,49.0,54.0,54.0,63.0,5.0,42.0,49.0,79.0,0.0
104.0,57.0,43.0,26.0,45.0,45.0,9.0,34.0,49.0,69.0,0.0
93.0,45.0,40.0,15.0,34.0,31.0,10.0,24.0,51.0,61.0,0.0
83.0,34.0,23.0,12.0,30.0,12.0,4.0,4.0,50.0,45.0,0.0
44.0,12.0,7.0,13.0,8.0,-6.0,8.0,-18.0,34.0,26.0,0.0
6.0,-16.0,-10.0,0.0,-16.0,-25.0,12.0,-32.0,9.0,3.0,0.0
-18.0,-54.0,-40.0,-18.0,-45.0,-38.0,7.0,-40.0,-6.0,-27.0,0.0
-47.0,-76.0,-67.0,-51.0,-63.0,-62.0,1.0,-52.0,-23.0,-43.0,0.0
-79.0,-87.0,-77.0,-65.0,-81.0,-79.0,-5.0,-66.0,-51.0,-66.0,0.0
-67.0,-72.0,-68.0,-63.0,-73.0,-83.0,-11.0,-75.0,-49.0,-73.0,0.0
-45.0,-60.0,-68.0,-58.0,-68.0,-62.0,-8.0,-59.0,-28.0,-60.0,0.0
-18.0,-53.0,-43.0,-48.0,-57.0,-43.0,-14.0,-37.0,-22.0,-45.0,0.0
18.0,-24.0,-4.0,-12.0,-33.0,-20.0,-9.0,-26.0,0.0,21.0,0.0
51.0,3.0,6.0,8.0,-2.0,10.0,-14.0,-6.0,38.0,105.0,0.0
78.0,22.0,31.0,23.0,27.0,27.0,-12.0,13.0,43.0,129.0,0.0
99.0,38.0,52.0,37.0,58.0,36.0,1.0,25.0,48.0,118.0,0.0
115.0,66.0,62.0,57.0,73.0,58.0,7.0,40.0,57.0,93.0,0.0
110.0,83.0,65.0,61.0,65.0,63.0,0.0,43.0,57.0,78.0,0.0
109.0,72.0,53.0,55.0,53.0,60.0,-3.0,34.0,45.0,61.0,0.0
92.0,60.0,37.0,50.0,42.0,51.0,-13.0,29.0,28.0,18.0,0.0
49.0,38.0,24.0,42.0,26.0,27.0,-16.0,24.0,23.0,9.0,0.0
-10.0,4.0,8.0,11.0,10.0,9.0,-10.0,8.0,18.0,4.0,0.0
-58.0,-34.0,-25.0,-24.0,0.0,-2.0,-11.0,-9.0,-11.0,-43.0,0.0
-87.0,-59.0,-55.0,-47.0,-13.0,-24.0,-15.0,-20.0,-37.0,-80.0,0.0
-130.0,-78.0,-76.0,-54.0,-37.0,-36.0,-7.0,-33.0,-61.0,-108.0,0.0
-145.0,-81.0,-79.0,-53.0,-54.0,-52.0,-4.0,-42.0,-63.0,-121.0,0.0
-118.0,-76.0,-66.0,-44.0,-55.0,-52.0,9.0,-37.0,-53.0,-91.0,0.0
-81.0,-61.0,-52.0,-41.0,-44.0,-39.0,29.0,-19.0,-27.0,-63.0,0.0
-54.0,-28.0,-17.0,-33.0,-22.0,-21.0,22.0,-1.0,-8.0,-64.0,0.0
-18.0,-1.0,6.0,-4.0,5.0,2.0,15.0,10.0,2.0,-69.0,0.0
19.0,18.0,22.0,27.0,34.0,27.0,11.0,36.0,26.0,-18.0,0.0
57.0,35.0,47.0,34.0,52.0,65.0,11.0,61.0,50.0,44.0,0.0
73.0,60.0,66.0,49.0,70.0,80.0,18.0,80.0,76.0,56.0,0.0
78.0,81.0,71.0,69.0,89.0,92.0,25.0,75.0,89.0,56.0,0.0
70.0,75.0,81.0,72.0,93.0,81.0,33.0,70.0,92.0,60.0,0.0
60.0,58.0,72.0,56.0,97.0,52.0,32.0,51.0,93.0,94.0,0.0
44.0,41.0,43.0,34.0,70.0,31.0,31.0,34.0,82.0,128.0,0.0
0.0,15.0,15.0,-2.0,30.0,7.0,17.0,17.0,58.0,116.0,0.0
-25.0,-9.0,-24.0,-19.0,-3.0,-9.0,3.0,1.0,43.0,115.0,0.0
-26.0,-34.0,-32.0,-32.0,-34.0,-29.0,-3.0,-10.0,16.0,150.0,0.0
-33.0,-70.0,-51.0,-59.0,-62.0,-60.0,-3.0,-32.0,-23.0,86.0,0.0
-76.0,-86.0,-77.0,-80.0,-89.0,-74.0,-19.0,-60.0,-73.0,-110.0,0.0
-62.0,-83.0,-77.0,-96.0,-85.0,-67.0,-22.0,-55.0,-90.0,-159.0,0.0
-34.0,-59.0,-51.0,-85.0,-66.0,-52.0,-12.0,-27.0,-52.0,-43.0,0.0
-24.0,-40.0,-28.0,-60.0,-47.0,-39.0,8.0,-25.0,-12.0,-16.0,0.0
-11.0,-12.0,6.0,-18.0,-20.0,-9.0,15.0,-23.0,-18.0,-51.0,0.0
-20.0,-4.0,26.0,23.0,4.0,1.0,7.0,-10.0,-21.0,-75.0,0.0
-34.0,-6.0,9.0,24.0,12.0,4.0,-18.0,-3.0,-16.0,-57.0,0.0
-5.0,18.0,28.0,39.0,29.0,27.0,-29.0,25.0,0.0,15.0,0.0
51.0,53.0,57.0,54.0,49.0,36.0,-31.0,46.0,19.0,120.0,0.0
95.0,71.0,81.0,53.0,56.0,38.0,-26.0,46.0,22.0,173.0,0.0
85.0,61.0,72.0,39.0,56.0,42.0,-30.0,38.0,11.0,88.0,0.0
58.0,25.0,44.0,15.0,41.0,31.0,-44.0,25.0,-18.0,-70.0,0.0
49.0,-6.0,20.0,-5.0,23.0,17.0,-26.0,14.0,-24.0,-76.0,0.0
21.0,-19.0,-7.0,-26.0,1.0,0.0,-22.0,3.0,-28.0,-33.0,0.0
5.0,-38.0,-33.0,-47.0,-15.0,-18.0,-23.0,-6.0,-24.0,-15.0,0.0
-20.0,-64.0,-39.0,-63.0,-47.0,-43.0,-38.0,-24.0,-31.0,-27.0,0.0
-54.0,-81.0,-67.0,-78.0,-77.0,-64.0,-29.0,-37.0,-35.0,-49.0,0.0
-84.0,-83.0,-75.0,-78.0,-91.0,-81.0,-17.0,-52.0,-42.0,-71.0,0.0
-92.0,-69.0,-52.0,-74.0,-80.0,-82.0,0.0,-54.0,-49.0,-84.0,0.0
-73.0,-50.0,-37.0,-64.0,-64.0,-63.0,-2.0,-50.0,-42.0,-63.0,0.0
-42.0,-36.0,-27.0,-45.0,-54.0,-42.0,1.0,-35.0,-30.0,-23.0,0.0
-2.0,-9.0,11.0,-10.0,-23.0,-18.0,6.0,-12.0,-8.0,1.0,0.0
40.0,29.0,48.0,23.0,20.0,23.0,8.0,23.0,-13.0,4.0,0.0
72.0,50.0,63.0,43.0,61.0,56.0,13.0,42.0,-7.0,30.0,0.0
114.0,71.0,78.0,43.0,78.0,79.0,1.0,54.0,13.0,92.0,0.0
135.0,81.0,108.0,46.0,89.0,79.0,-10.0,63.0,26.0,103.0,0.0
123.0,76.0,99.0,51.0,88.0,88.0,-8.0,62.0,26.0,50.0,0.0
80.0,65.0,71.0,52.0,71.0,75.0,-9.0,54.0,33.0,-21.0,0.0
13.0,30.0,32.0,31.0,43.0,55.0,-1.0,37.0,29.0,-65.0,0.0
-35.0,4.0,5.0,2.0,24.0,41.0,-11.0,29.0,16.0,-12.0,0.0
-70.0,-11.0,0.0,-21.0,0.0,10.0,-21.0,9.0,0.0,23.0,0.0
-89.0,-42.0,-25.0,-48.0,-34.0,-11.0,-36.0,-13.0,-16.0,-10.0,0.0
-104.0,-62.0,-52.0,-64.0,-58.0,-21.0,-26.0,-21.0,-28.0,-60.0,0.0
-127.0,-81.0,-65.0,-76.0,-77.0,-34.0,-3.0,-50.0,-34.0,-93.0,0.0
-136.0,-106.0,-76.0,-84.0,-83.0,-52.0,2.0,-62.0,-41.0,-86.0,0.0
-127.0,-96.0,-76.0,-78.0,-71.0,-47.0,6.0,-57.0,-43.0,-75.0,0.0
-103.0,-72.0,-68.0,-66.0,-61.0,-38.0,-1.0,-32.0,-32.0,-59.0,0.0
-66.0,-54.0,-55.0,-53.0,-32.0,-19.0,3.0,-4.0,-13.0,-22.0,0.0
-16.0,-24.0,-15.0,-35.0,-4.0,17.0,-3.0,22.0,8.0,16.0,0.0
28.0,3.0,26.0,-10.0,18.0,41.0,-6.0,32.0,26.0,42.0,0.0
59.0,39.0,47.0,20.0,38.0,61.0,-6.0,53.0,46.0,81.0,0.0
92.0,71.0,69.0,38.0,49.0,65.0,-4.0,55.0,59.0,107.0,0.0
129.0,113.0,80.0,40.0,66.0,70.0,-3.0,58.0,64.0,123.0,0.0
123.0,110.0,83.0,22.0,60.0,58.0,-11.0,53.0,55.0,98.0,0.0
66.0,81.0,52.0,8.0,52.0,49.0,-4.0,56.0,37.0,39.0,0.0
23.0,45.0,23.0,11.0,48.0,42.0,1.0,43.0,27.0,-20.0,0.0
-3.0,17.0,6.0,0.0,27.0,29.0,3.0,17.0,6.0,-70.0,0.0
-26.0,4.0,-1.0,-14.0,-5.0,0.0,0.0,10.0,-4.0,-104.0,0.0
-46.0,-10.0,-26.0,-35.0,-34.0,-19.0,-8.0,-3.0,-17.0,-131.0,0.0
-74.0,-40.0,-54.0,-48.0,-47.0,-29.0,-11.0,-25.0,-49.0,-158.0,0.0
-89.0,-57.0,-65.0,-61.0,-58.0,-33.0,-4.0,-44.0,-74.0,-139.0,0.0
-111.0,-83.0,-78.0,-56.0,-70.0,-37.0,-1.0,-49.0,-68.0,-15.0,0.0
-111.0,-78.0,-72.0,-36.0,-70.0,-32.0,10.0,-43.0,-29.0,66.0,0.0
-106.0,-56.0,-51.0,-35.0,-53.0,-24.0,8.0,-46.0,-11.0,84.0,0.0
-88.0,-40.0,-40.0,-34.0,-29.0,-6.0,-1.0,-36.0,-6.0,115.0,0.0
-33.0,-4.0,-1.0,-10.0,3.0,8.0,-7.0,-17.0,12.0,99.0,0.0
20.0,44.0,41.0,12.0,27.0,19.0,0.0,7.0,27.0,87.0,0.0
58.0,84.0,58.0,33.0,53.0,37.0,12.0,30.0,59.0,79.0,0.0
93.0,101.0,76.0,41.0,66.0,62.0,10.0,45.0,68.0,65.0,0.0
105.0,112.0,88.0,36.0,73.0,65.0,-5.0,45.0,63.0,84.0,0.0
98.0,98.0,73.0,27.0,65.0,51.0,-15.0,32.0,57.0,133.0,0.0
83.0,76.0,74.0,16.0,54.0,41.0,-12.0,26.0,31.0,192.0,0.0
38.0,52.0,45.0,-3.0,38.0,23.0,-5.0,18.0,-12.0,140.0,0.0
-16.0,10.0,6.0,-40.0,5.0,-7.0,-14.0,-20.0,-63.0,-69.0,0.0
-54.0,-14.0,-27.0,-61.0,-27.0,-31.0,-11.0,-38.0,-81.0,-177.0,0.0
-82.0,-33.0,-56.0,-71.0,-48.0,-38.0,-3.0,-45.0,-77.0,-129.0,0.0
-102.0,-53.0,-74.0,-78.0,-62.0,-53.0,10.0,-53.0,-72.0,-100.0,0.0
-117.0,-55.0,-86.0,-82.0,-62.0,-65.0,24.0,-53.0,-67.0,-100.0,0.0
-106.0,-48.0,-78.0,-71.0,-53.0,-48.0,25.0,-52.0,-66.0,-94.0,0.0
-90.0,-44.0,-68.0,-61.0,-40.0,-37.0,27.0,-47.0,-60.0,-72.0,0.0
-62.0,-29.0,-49.0,-47.0,-27.0,-12.0,27.0,-35.0,-45.0,-33.0,0.0
-5.0,-4.0,0.0,-17.0,-8.0,16.0,27.0,-22.0,-12.0,2.0,0.0
46.0,24.0,50.0,4.0,7.0,34.0,28.0,0.0,4.0,59.0,0.0
89.0,54.0,65.0,15.0,15.0,48.0,21.0,21.0,16.0,128.0,0.0
109.0,70.0,81.0,18.0,38.0,54.0,0.0,25.0,44.0,134.0,0.0
112.0,68.0,74.0,28.0,45.0,64.0,-7.0,32.0,44.0,122.0,0.0
94.0,70.0,40.0,29.0,53.0,78.0,-10.0,41.0,46.0,90.0,0.0
82.0,52.0,27.0,22.0,47.0,67.0,-10.0,37.0,37.0,51.0,0.0
86.0,31.0,20.0,11.0,44.0,42.0,-8.0,20.0,16.0,18.0,0.0
44.0,8.0,16.0,-5.0,28.0,20.0,5.0,-4.0,8.0,-19.0,0.0
-4.0,-16.0,12.0,-30.0,1.0,-2.0,0.0,-15.0,-8.0,-43.0,0.0
-37.0,-26.0,5.0,-50.0,-22.0,-19.0,-2.0,-28.0,-23.0,-60.0,0.0
-63.0,-42.0,-14.0,-63.0,-53.0,-42.0,0.0,-44.0,-36.0,-69.0,0.0
-73.0,-69.0,-39.0,-79.0,-71.0,-59.0,1.0,-51.0,-43.0,-66.0,0.0
-70.0,-73.0,-44.0,-71.0,-76.0,-56.0,8.0,-42.0,-50.0,-69.0,0.0
-54.0,-69.0,-37.0,-54.0,-72.0,-46.0,19.0,-32.0,-51.0,-62.0,0.0
-54.0,-65.0,-35.0,-42.0,-61.0,-41.0,27.0,-31.0,-43.0,-40.0,0.0
-46.0,-49.0,-30.0,-34.0,-39.0,-14.0,27.0,-11.0,-25.0,-21.0,0.0
-1.0,-5.0,6.0,-12.0,-6.0,18.0,43.0,10.0,15.0,0.0,0.0
63.0,40.0,41.0,32.0,20.0,35.0,42.0,36.0,57.0,-29.0,0.0
121.0,73.0,55.0,66.0,47.0,63.0,38.0,73.0,94.0,-53.0,0.0
166.0,91.0,78.0,76.0,69.0,89.0,40.0,88.0,123.0,6.0,0.0
185.0,102.0,98.0,83.0,86.0,96.0,28.0,96.0,147.0,123.0,0.0
173.0,100.0,104.0,86.0,93.0,86.0,30.0,86.0,149.0,258.0,0.0
117.0,87.0,96.0,76.0,91.0,78.0,34.0,72.0,109.0,333.0,0.0
36.0,47.0,66.0,50.0,70.0,57.0,28.0,31.0,31.0,281.0,0.0
-71.0,-9.0,16.0,7.0,28.0,6.0,-7.0,-34.0,-75.0,32.0,0.0
-161.0,-54.0,-13.0,-22.0,-12.0,-31.0,-28.0,-86.0,-147.0,-284.0,0.0
-171.0,-75.0,-22.0,-41.0,-29.0,-43.0,-13.0,-94.0,-150.0,-367.0,0.0
-170.0,-92.0,-62.0,-50.0,-48.0,-55.0,-5.0,-101.0,-131.0,-299.0,0.0
-153.0,-99.0,-84.0,-74.0,-73.0,-67.0,-4.0,-106.0,-115.0,-179.0,0.0
-115.0,-76.0,-77.0,-77.0,-82.0,-59.0,1.0,-94.0,-99.0,-94.0,0.0
-86.0,-57.0,-69.0,-61.0,-64.0,-50.0,0.0,-82.0,-96.0,-69.0,0.0
-39.0,-25.0,-49.0,-39.0,-38.0,-43.0,12.0,-65.0,-81.0,-13.0,0.0
1.0,1.0,-25.0,-13.0,-7.0,-7.0,20.0,-58.0,-35.0,70.0,0.0
39.0,21.0,12.0,14.0,10.0,13.0,15.0,-7.0,2.0,108.0,0.0
50.0,34.0,26.0,21.0,29.0,28.0,22.0,86.0,47.0,124.0,0.0
52.0,42.0,32.0,42.0,63.0,52.0,14.0,95.0,55.0,88.0,0.0
64.0,59.0,53.0,62.0,87.0,68.0,5.0,70.0,40.0,29.0,0.0
67.0,60.0,64.0,61.0,81.0,57.0,4.0,50.0,41.0,-25.0,0.0
69.0,51.0,41.0,55.0,65.0,47.0,1.0,36.0,27.0,-33.0,0.0
50.0,41.0,44.0,52.0,53.0,40.0,5.0,27.0,28.0,-12.0,0.0
16.0,27.0,37.0,32.0,34.0,15.0,9.0,14.0,14.0,-2.0,0.0
-17.0,2.0,-3.0,-3.0,12.0,-9.0,0.0,-5.0,-10.0,-5.0,0.0
-50.0,-30.0,-30.0,-30.0,-3.0,-32.0,-1.0,-16.0,-28.0,-20.0,0.0
-72.0,-33.0,-58.0,-48.0,-25.0,-56.0,-21.0,-20.0,-40.0,-39.0,0.0
-89.0,-34.0,-77.0,-63.0,-53.0,-77.0,-23.0,-39.0,-62.0,-54.0,0.0
-112.0,-57.0,-86.0,-60.0,-62.0,-80.0,-19.0,-49.0,-65.0,-57.0,0.0
-119.0,-74.0,-85.0,-57.0,-62.0,-70.0,-10.0,-44.0,-50.0,-55.0,0.0
-102.0,-63.0,-64.0,-39.0,-59.0,-75.0,-6.0,-44.0,-35.0,-62.0,0.0
-73.0,-33.0,-50.0,-15.0,-35.0,-59.0,2.0,-29.0,-30.0,-41.0,0.0
-29.0,6.0,-6.0,4.0,-5.0,-27.0,0.0,-9.0,-12.0,-4.0,0.0
17.0,43.0,11.0,25.0,26.0,1.0,-9.0,7.0,8.0,29.0,0.0
43.0,69.0,18.0,45.0,46.0,29.0,-15.0,33.0,51.0,55.0,0.0
71.0,86.0,47.0,67.0,65.0,42.0,-19.0,49.0,54.0,83.0,0.0
96.0,102.0,75.0,80.0,77.0,50.0,-10.0,54.0,59.0,93.0,0.0
93.0,105.0,55.0,69.0,70.0,60.0,-15.0,54.0,81.0,100.0,0.0
72.0,75.0,36.0,58.0,65.0,47.0,-26.0,42.0,51.0,92.0,0.0
54.0,52.0,52.0,56.0,68.0,21.0,-24.0,32.0,33.0,49.0,0.0
28.0,21.0,34.0,37.0,43.0,2.0,-25.0,16.0,20.0,13.0,0.0
-1.0,-7.0,-5.0,17.0,10.0,-10.0,-14.0,13.0,17.0,-19.0,0.0
-25.0,-38.0,-41.0,0.0,-4.0,-29.0,-13.0,1.0,-2.0,-39.0,0.0
-34.0,-58.0,-52.0,-24.0,-31.0,-49.0,-15.0,0.0,-14.0,-51.0,0.0
-54.0,-65.0,-88.0,-50.0,-55.0,-79.0,-13.0,-13.0,-23.0,-31.0,0.0
-64.0,-71.0,-112.0,-58.0,-83.0,-78.0,-4.0,-23.0,-39.0,32.0,0.0
-57.0,-64.0,-92.0,-52.0,-72.0,-64.0,4.0,-19.0,-51.0,48.0,0.0
-51.0,-50.0,-71.0,-48.0,-53.0,-55.0,-3.0,-17.0,-71.0,-73.0,0.0
-19.0,-25.0,-38.0,-34.0,-51.0,-48.0,-22.0,-20.0,-65.0,-166.0,0.0
7.0,14.0,-6.0,-27.0,-25.0,-18.0,-6.0,6.0,-19.0,-69.0,0.0
30.0,40.0,24.0,-8.0,12.0,18.0,3.0,31.0,1.0,10.0,0.0
51.0,49.0,44.0,14.0,36.0,33.0,0.0,36.0,15.0,105.0,0.0
60.0,45.0,44.0,19.0,42.0,37.0,-7.0,34.0,34.0,163.0,0.0
80.0,62.0,41.0,26.0,55.0,40.0,-17.0,28.0,32.0,128.0,0.0
95.0,74.0,44.0,34.0,62.0,40.0,-28.0,19.0,21.0,82.0,0.0
91.0,74.0,34.0,30.0,57.0,40.0,-20.0,9.0,0.0,62.0,0.0
60.0,55.0,18.0,16.0,47.0,36.0,-6.0,9.0,-15.0,23.0,0.0
10.0,16.0,-1.0,-4.0,24.0,14.0,-3.0,3.0,-12.0,-33.0,0.0
-39.0,-23.0,-35.0,-31.0,-10.0,-6.0,8.0,-6.0,-18.0,-84.0,0.0
-74.0,-63.0,-62.0,-55.0,-32.0,-36.0,-1.0,-19.0,-30.0,-105.0,0.0
-84.0,-93.0,-89.0,-72.0,-47.0,-59.0,-7.0,-22.0,-38.0,-102.0,0.0
-82.0,-91.0,-92.0,-63.0,-55.0,-66.0,6.0,-41.0,-44.0,-90.0,0.0
-96.0,-87.0,-85.0,-42.0,-55.0,-61.0,18.0,-45.0,-44.0,-87.0,0.0
-96.0,-97.0,-83.0,-39.0,-58.0,-51.0,10.0,-33.0,-37.0,-58.0,0.0
-84.0,-96.0,-64.0,-32.0,-51.0,-42.0,-1.0,-38.0,-20.0,1.0,0.0
-53.0,-62.0,-26.0,-11.0,-35.0,-28.0,-1.0,-32.0,-4.0,62.0,0.0
-12.0,-19.0,7.0,29.0,-16.0,4.0,9.0,-8.0,2.0,59.0,0.0
28.0,23.0,36.0,57.0,17.0,49.0,19.0,22.0,25.0,37.0,0.0
50.0,43.0,57.0,76.0,49.0,79.0,14.0,42.0,30.0,21.0,0.0
75.0,58.0,72.0,97.0,61.0,89.0,3.0,55.0,36.0,18.0,0.0
81.0,78.0,92.0,92.0,64.0,67.0,-15.0,45.0,42.0,13.0,0.0
79.0,67.0,79.0,67.0,61.0,49.0,-18.0,34.0,41.0,14.0,0.0
69.0,48.0,48.0,38.0,36.0,28.0,-14.0,20.0,30.0,18.0,0.0
50.0,29.0,35.0,19.0,14.0,11.0,-20.0,14.0,17.0,20.0,0.0
15.0,5.0,11.0,-7.0,0.0,-10.0,-21.0,3.0,-8.0,2.0,0.0
-11.0,-16.0,-10.0,-30.0,-19.0,-34.0,-32.0,-7.0,-18.0,-27.0,0.0
-34.0,-40.0,-35.0,-39.0,-42.0,-58.0,-31.0,-11.0,-21.0,-46.0,0.0
-42.0,-68.0,-54.0,-62.0,-68.0,-71.0,-10.0,-24.0,-21.0,-26.0,0.0
-52.0,-94.0,-68.0,-80.0,-85.0,-69.0,4.0,-28.0,-28.0,-15.0,0.0
-54.0,-87.0,-71.0,-78.0,-90.0,-64.0,-5.0,-36.0,-31.0,-29.0,0.0
-40.0,-71.0,-72.0,-68.0,-73.0,-46.0,-1.0,-28.0,-22.0,-36.0,0.0
-22.0,-64.0,-56.0,-40.0,-54.0,-17.0,7.0,-9.0,-8.0,-22.0,0.0
0.0,-46.0,-38.0,-15.0,-29.0,9.0,3.0,0.0,7.0,2.0,0.0
35.0,-12.0,-18.0,4.0,1.0,29.0,8.0,10.0,24.0,42.0,0.0
63.0,21.0,20.0,27.0,32.0,46.0,-3.0,27.0,38.0,59.0,0.0
91.0,48.0,43.0,58.0,62.0,61.0,-2.0,43.0,52.0,78.0,0.0
117.0,66.0,54.0,79.0,78.0,79.0,-3.0,52.0,64.0,100.0,0.0
123.0,65.0,51.0,73.0,68.0,71.0,-8.0,51.0,74.0,108.0,0.0
98.0,61.0,49.0,47.0,50.0,54.0,-7.0,42.0,63.0,99.0,0.0
85.0,53.0,41.0,34.0,38.0,37.0,-10.0,19.0,42.0,78.0,0.0
65.0,37.0,6.0,20.0,20.0,24.0,-10.0,2.0,30.0,36.0,0.0
29.0,11.0,-4.0,2.0,-6.0,14.0,-2.0,-10.0,29.0,-33.0,0.0
-2.0,5.0,-17.0,-20.0,-34.0,-6.0,-3.0,-19.0,41.0,-87.0,0.0
-14.0,-3.0,-34.0,-37.0,-56.0,-34.0,-17.0,-20.0,30.0,-105.0,0.0
-20.0,-24.0,-53.0,-50.0,-76.0,-50.0,-12.0,-40.0,23.0,-83.0,0.0
-38.0,-39.0,-63.0,-59.0,-75.0,-49.0,-3.0,-38.0,12.0,-11.0,0.0
-49.0,-50.0,-64.0,-50.0,-64.0,-33.0,0.0,-30.0,-4.0,78.0,0.0
-70.0,-53.0,-56.0,-34.0,-49.0,-14.0,7.0,-23.0,-25.0,146.0,0.0
-72.0,-52.0,-53.0,-24.0,-37.0,-17.0,0.0,-41.0,-63.0,64.0,0.0
-61.0,-44.0,-37.0,0.0,-16.0,-5.0,-17.0,-49.0,-94.0,-126.0,0.0
-13.0,-13.0,-4.0,44.0,15.0,16.0,-8.0,-29.0,-62.0,-125.0,0.0
52.0,21.0,26.0,84.0,38.0,41.0,-5.0,8.0,-16.0,-23.0,0.0
92.0,50.0,53.0,113.0,73.0,54.0,-18.0,30.0,6.0,28.0,0.0
106.0,68.0,61.0,118.0,87.0,59.0,-20.0,37.0,24.0,50.0,0.0
111.0,59.0,66.0,105.0,80.0,61.0,-20.0,36.0,29.0,44.0,0.0
108.0,45.0,55.0,70.0,64.0,48.0,-18.0,18.0,31.0,39.0,0.0
86.0,25.0,40.0,46.0,41.0,32.0,-21.0,-9.0,24.0,26.0,0.0
44.0,3.0,29.0,15.0,19.0,1.0,-24.0,-16.0,20.0,17.0,0.0
19.0,-16.0,-1.0,-13.0,-9.0,-26.0,-33.0,-16.0,5.0,7.0,0.0
-11.0,-33.0,-29.0,-28.0,-40.0,-43.0,-34.0,-28.0,-10.0,-5.0,0.0
-48.0,-42.0,-51.0,-52.0,-56.0,-58.0,-29.0,-45.0,-24.0,-10.0,0.0
-67.0,-54.0,-55.0,-69.0,-62.0,-70.0,-20.0,-59.0,-33.0,20.0,0.0
-66.0,-56.0,-49.0,-68.0,-54.0,-44.0,-14.0,-57.0,-21.0,30.0,0.0
-72.0,-42.0,-31.0,-59.0,-46.0,-26.0,-7.0,-41.0,-12.0,-6.0,0.0
-73.0,-47.0,-22.0,-32.0,-37.0,-18.0,-4.0,-33.0,-18.0,-57.0,0.0
-64.0,-33.0,-13.0,-11.0,-12.0,0.0,-4.0,-18.0,-3.0,-100.0,0.0
-28.0,-3.0,1.0,15.0,19.0,28.0,-5.0,3.0,28.0,-91.0,0.0
43.0,37.0,30.0,46.0,46.0,54.0,11.0,27.0,59.0,4.0,0.0
89.0,66.0,63.0,75.0,75.0,72.0,21.0,47.0,56.0,84.0,0.0
97.0,65.0,70.0,92.0,92.0,95.0,18.0,57.0,64.0,117.0,0.0
92.0,59.0,69.0,94.0,92.0,88.0,9.0,60.0,86.0,84.0,0.0
61.0,47.0,72.0,80.0,69.0,74.0,5.0,46.0,89.0,29.0,0.0
37.0,19.0,77.0,34.0,45.0,42.0,0.0,20.0,82.0,-3.0,0.0
20.0,-8.0,41.0,0.0,14.0,18.0,-6.0,11.0,75.0,6.0,0.0
0.0,-16.0,0.0,-23.0,-19.0,-5.0,-7.0,0.0,47.0,74.0,0.0
-31.0,-27.0,-20.0,-44.0,-34.0,-23.0,-8.0,-17.0,9.0,122.0,0.0
-76.0,-50.0,-34.0,-54.0,-48.0,-44.0,-8.0,-41.0,-46.0,29.0,0.0
-102.0,-79.0,-49.0,-73.0,-79.0,-71.0,-13.0,-69.0,-105.0,-167.0,0.0
-107.0,-79.0,-72.0,-92.0,-101.0,-82.0,-14.0,-80.0,-125.0,-265.0,0.0
-94.0,-65.0,-64.0,-87.0,-106.0,-70.0,-9.0,-72.0,-108.0,-201.0,0.0
-69.0,-47.0,-47.0,-75.0,-88.0,-48.0,-9.0,-52.0,-78.0,-105.0,0.0
-19.0,-16.0,-14.0,-59.0,-61.0,-27.0,0.0,-25.0,-51.0,-52.0,0.0
32.0,12.0,34.0,-27.0,-32.0,1.0,18.0,6.0,-18.0,-18.0,0.0
44.0,19.0,51.0,1.0,-8.0,32.0,19.0,17.0,-4.0,15.0,0.0
60.0,36.0,62.0,22.0,26.0,44.0,16.0,26.0,12.0,32.0,0.0
80.0,46.0,71.0,35.0,50.0,63.0,15.0,44.0,39.0,32.0,0.0
96.0,56.0,77.0,51.0,58.0,69.0,20.0,58.0,65.0,-6.0,0.0
102.0,69.0,73.0,59.0,61.0,57.0,21.0,59.0,74.0,-9.0,0.0
86.0,65.0,51.0,59.0,51.0,42.0,13.0,47.0,62.0,29.0,0.0
51.0,54.0,37.0,50.0,32.0,22.0,8.0,34.0,43.0,51.0,0.0
12.0,23.0,17.0,22.0,19.0,0.0,-1.0,17.0,32.0,80.0,0.0
-17.0,2.0,-3.0,-8.0,-4.0,-21.0,-5.0,-5.0,23.0,108.0,0.0
-55.0,-40.0,-29.0,-30.0,-30.0,-50.0,-13.0,-42.0,-28.0,52.0,0.0
-91.0,-75.0,-64.0,-38.0,-55.0,-81.0,-28.0,-66.0,-81.0,-165.0,0.0
-110.0,-83.0,-78.0,-53.0,-70.0,-84.0,-21.0,-66.0,-99.0,-230.0,0.0
-103.0,-93.0,-77.0,-63.0,-72.0,-66.0,-10.0,-61.0,-80.0,-155.0,0.0
-85.0,-88.0,-69.0,-50.0,-63.0,-53.0,2.0,-39.0,-56.0,-113.0,0.0
-69.0,-55.0,-53.0,-45.0,-39.0,-41.0,5.0,-31.0,-47.0,-78.0,0.0
-30.0,-23.0,-21.0,-18.0,-2.0,-23.0,11.0,-24.0,-35.0,-48.0,0.0
15.0,16.0,25.0,6.0,19.0,-7.0,17.0,1.0,-23.0,-6.0,0.0
48.0,37.0,56.0,23.0,40.0,11.0,20.0,25.0,-5.0,58.0,0.0
67.0,43.0,58.0,32.0,56.0,35.0,17.0,48.0,2.0,108.0,0.0
94.0,57.0,66.0,35.0,67.0,39.0,3.0,51.0,20.0,93.0,0.0
119.0,66.0,82.0,31.0,83.0,32.0,-5.0,58.0,41.0,85.0,0.0
126.0,73.0,66.0,36.0,75.0,12.0,-4.0,46.0,45.0,87.0,0.0
104.0,56.0,43.0,26.0,47.0,7.0,-8.0,37.0,43.0,85.0,0.0
65.0,30.0,21.0,8.0,25.0,-4.0,-5.0,36.0,32.0,100.0,0.0
23.0,3.0,-2.0,-23.0,8.0,-15.0,-11.0,24.0,14.0,74.0,0.0
-5.0,-25.0,-39.0,-48.0,-20.0,-38.0,0.0,-5.0,-6.0,9.0,0.0
-42.0,-47.0,-60.0,-61.0,-37.0,-45.0,2.0,-12.0,-28.0,-56.0,0.0
-74.0,-58.0,-80.0,-56.0,-48.0,-59.0,7.0,-11.0,-37.0,-118.0,0.0
-71.0,-55.0,-81.0,-53.0,-54.0,-60.0,10.0,-7.0,-20.0,-169.0,0.0
-46.0,-31.0,-56.0,-39.0,-44.0,-54.0,10.0,10.0,-13.0,-164.0,0.0
-32.0,-18.0,-40.0,-32.0,-30.0,-44.0,11.0,19.0,-7.0,-75.0,0.0
-27.0,-13.0,-39.0,-21.0,-25.0,-42.0,11.0,-5.0,4.0,96.0,0.0
0.0,16.0,6.0,22.0,0.0,-18.0,13.0,-21.0,-1.0,256.0,0.0
31.0,44.0,39.0,65.0,31.0,15.0,23.0,-17.0,-15.0,289.0,0.0
68.0,56.0,54.0,83.0,56.0,34.0,17.0,-13.0,-32.0,221.0,0.0
100.0,75.0,75.0,94.0,79.0,47.0,-5.0,-25.0,-45.0,67.0,0.0
92.0,86.0,72.0,103.0,93.0,52.0,-6.0,-11.0,-30.0,21.0,0.0
56.0,52.0,74.0,92.0,76.0,52.0,2.0,75.0,11.0,-19.0,0.0
27.0,28.0,59.0,79.0,56.0,44.0,0.0,121.0,31.0,-54.0,0.0
-9.0,6.0,35.0,66.0,44.0,33.0,0.0,61.0,19.0,-33.0,0.0
-34.0,-19.0,17.0,40.0,13.0,13.0,-4.0,17.0,-3.0,-88.0,0.0
-52.0,-32.0,3.0,22.0,-9.0,-9.0,0.0,1.0,-14.0,-138.0,0.0
-60.0,-49.0,-11.0,10.0,-20.0,-26.0,7.0,-15.0,-9.0,-97.0,0.0
-79.0,-80.0,-48.0,-15.0,-47.0,-33.0,13.0,-25.0,-33.0,-74.0,0.0
-94.0,-101.0,-79.0,-49.0,-69.0,-47.0,6.0,-35.0,-57.0,-65.0,0.0
-102.0,-105.0,-99.0,-71.0,-96.0,-51.0,-2.0,-33.0,-41.0,-40.0,0.0
-73.0,-91.0,-102.0,-62.0,-89.0,-53.0,-3.0,-36.0,-33.0,-23.0,0.0
-52.0,-75.0,-95.0,-53.0,-69.0,-46.0,-2.0,-34.0,-17.0,-5.0,0.0
-27.0,-52.0,-78.0,-22.0,-40.0,-16.0,0.0,-21.0,-7.0,10.0,0.0
8.0,-34.0,-38.0,12.0,1.0,10.0,0.0,-12.0,0.0,18.0,0.0
43.0,-21.0,-19.0,39.0,16.0,26.0,-2.0,7.0,8.0,26.0,0.0
69.0,4.0,1.0,49.0,36.0,41.0,3.0,27.0,22.0,40.0,0.0
89.0,38.0,1.0,55.0,61.0,65.0,-7.0,39.0,40.0,61.0,0.0
88.0,62.0,24.0,71.0,74.0,71.0,-15.0,48.0,35.0,64.0,0.0
78.0,68.0,56.0,77.0,76.0,71.0,-1.0,41.0,36.0,65.0,0.0
71.0,74.0,64.0,71.0,66.0,67.0,3.0,28.0,28.0,47.0,0.0
53.0,70.0,57.0,54.0,53.0,59.0,12.0,22.0,17.0,39.0,0.0
30.0,56.0,37.0,45.0,42.0,40.0,14.0,13.0,7.0,28.0,0.0
-4.0,26.0,10.0,33.0,17.0,18.0,18.0,-3.0,1.0,19.0,0.0
-42.0,4.0,-27.0,2.0,-18.0,-11.0,9.0,-24.0,-12.0,-19.0,0.0
-70.0,-18.0,-35.0,-24.0,-30.0,-42.0,9.0,-31.0,-19.0,-75.0,0.0
-86.0,-30.0,-42.0,-46.0,-50.0,-60.0,6.0,-49.0,-27.0,-108.0,0.0
-64.0,-32.0,-64.0,-63.0,-61.0,-68.0,3.0,-48.0,-29.0,-97.0,0.0
-36.0,-21.0,-60.0,-60.0,-54.0,-66.0,3.0,-32.0,-14.0,-76.0,0.0
-16.0,-24.0,-40.0,-38.0,-39.0,-42.0,6.0,-25.0,-19.0,-44.0,0.0
3.0,-11.0,-19.0,-20.0,-22.0,-17.0,2.0,-9.0,-14.0,25.0,0.0
17.0,18.0,17.0,6.0,9.0,6.0,8.0,0.0,-4.0,115.0,0.0
14.0,25.0,43.0,24.0,44.0,33.0,26.0,1.0,-12.0,106.0,0.0
24.0,39.0,58.0,36.0,67.0,49.0,26.0,9.0,9.0,73.0,0.0
55.0,71.0,68.0,54.0,71.0,61.0,18.0,18.0,18.0,69.0,0.0
83.0,79.0,71.0,60.0,71.0,66.0,3.0,28.0,23.0,81.0,0.0
84.0,56.0,57.0,54.0,57.0,58.0,6.0,32.0,30.0,92.0,0.0
68.0,38.0,37.0,46.0,31.0,45.0,6.0,35.0,39.0,85.0,0.0
41.0,29.0,24.0,30.0,18.0,27.0,6.0,20.0,33.0,51.0,0.0
-1.0,13.0,23.0,6.0,1.0,12.0,19.0,0.0,15.0,11.0,0.0
-38.0,-7.0,12.0,-17.0,-18.0,0.0,19.0,-22.0,-3.0,-15.0,0.0
-62.0,-34.0,-34.0,-44.0,-40.0,-38.0,14.0,-46.0,-14.0,-37.0,0.0
-78.0,-52.0,-70.0,-73.0,-62.0,-68.0,14.0,-61.0,-39.0,-68.0,0.0
-90.0,-77.0,-75.0,-79.0,-76.0,-83.0,3.0,-61.0,-54.0,-90.0,0.0
-87.0,-75.0,-69.0,-71.0,-70.0,-72.0,3.0,-74.0,-75.0,-82.0,0.0
-81.0,-67.0,-60.0,-63.0,-59.0,-57.0,8.0,-57.0,-72.0,-69.0,0.0
-57.0,-53.0,-41.0,-53.0,-34.0,-42.0,19.0,-35.0,-45.0,-46.0,0.0
-17.0,-34.0,-10.0,-25.0,-5.0,-6.0,24.0,-15.0,-20.0,-10.0,0.0
12.0,-15.0,10.0,-11.0,8.0,19.0,29.0,-5.0,1.0,14.0,0.0
55.0,19.0,42.0,4.0,20.0,32.0,32.0,12.0,35.0,14.0,0.0
85.0,43.0,65.0,25.0,37.0,53.0,26.0,40.0,78.0,12.0,0.0
110.0,72.0,93.0,50.0,68.0,59.0,20.0,52.0,90.0,52.0,0.0
125.0,96.0,109.0,52.0,74.0,50.0,24.0,52.0,87.0,70.0,0.0
118.0,98.0,98.0,51.0,68.0,44.0,25.0,45.0,112.0,78.0,0.0
111.0,88.0,66.0,45.0,57.0,32.0,27.0,34.0,115.0,77.0,0.0
84.0,56.0,34.0,29.0,35.0,8.0,26.0,25.0,83.0,83.0,0.0
20.0,10.0,8.0,3.0,16.0,-11.0,18.0,-1.0,27.0,34.0,0.0
-28.0,-41.0,-14.0,-44.0,-15.0,-44.0,-1.0,-50.0,-14.0,-40.0,0.0
-63.0,-69.0,-52.0,-74.0,-43.0,-66.0,-4.0,-63.0,-33.0,62.0,0.0
-101.0,-99.0,-66.0,-76.0,-72.0,-88.0,-9.0,-76.0,-67.0,130.0,0.0
-129.0,-122.0,-65.0,-83.0,-89.0,-98.0,-19.0,-105.0,-127.0,-62.0,0.0
-129.0,-114.0,-72.0,-83.0,-85.0,-98.0,-25.0,-112.0,-152.0,-277.0,0.0
-101.0,-85.0,-61.0,-62.0,-61.0,-78.0,-14.0,-79.0,-120.0,-225.0,0.0
-64.0,-54.0,-33.0,-41.0,-36.0,-55.0,-3.0,-35.0,-72.0,-118.0,0.0
-22.0,-28.0,27.0,-28.0,-7.0,-26.0,5.0,-4.0,-39.0,-60.0,0.0
13.0,-5.0,60.0,0.0,18.0,-8.0,1.0,4.0,-19.0,-17.0,0.0
43.0,25.0,66.0,35.0,36.0,12.0,0.0,21.0,-9.0,23.0,0.0
82.0,50.0,85.0,48.0,46.0,29.0,0.0,43.0,32.0,78.0,0.0
119.0,52.0,75.0,53.0,59.0,38.0,3.0,64.0,63.0,119.0,0.0
115.0,40.0,59.0,48.0,58.0,51.0,3.0,56.0,67.0,119.0,0.0
87.0,31.0,59.0,40.0,52.0,47.0,5.0,37.0,51.0,85.0,0.0
56.0,14.0,41.0,27.0,41.0,35.0,8.0,35.0,29.0,63.0,0.0
25.0,-12.0,11.0,0.0,20.0,10.0,13.0,13.0,10.0,31.0,0.0
-6.0,-39.0,-18.0,-22.0,-14.0,-9.0,-1.0,-17.0,-14.0,4.0,0.0
-55.0,-64.0,-46.0,-37.0,-34.0,-41.0,-15.0,-34.0,-38.0,-45.0,0.0
-73.0,-72.0,-57.0,-56.0,-54.0,-74.0,-20.0,-61.0,-61.0,-91.0,0.0
-83.0,-85.0,-72.0,-73.0,-72.0,-88.0,-22.0,-51.0,-71.0,-109.0,0.0
-84.0,-76.0,-74.0,-69.0,-77.0,-83.0,-9.0,-50.0,-51.0,-112.0,0.0
-68.0,-52.0,-65.0,-70.0,-72.0,-67.0,-10.0,-39.0,-39.0,-101.0,0.0
-40.0,-21.0,-43.0,-54.0,-64.0,-51.0,-20.0,-34.0,-41.0,-95.0,0.0
2.0,13.0,-8.0,-22.0,-35.0,-31.0,-20.0,-27.0,-22.0,-79.0,0.0
32.0,37.0,28.0,-1.0,5.0,6.0,-12.0,-8.0,-5.0,-39.0,0.0
39.0,54.0,42.0,13.0,26.0,33.0,-9.0,6.0,19.0,47.0,0.0
43.0,59.0,57.0,42.0,51.0,59.0,14.0,30.0,43.0,121.0,0.0
51.0,68.0,60.0,65.0,74.0,78.0,12.0,36.0,51.0,134.0,0.0
50.0,71.0,51.0,61.0,74.0,88.0,-5.0,43.0,44.0,84.0,0.0
45.0,65.0,57.0,47.0,58.0,76.0,-18.0,31.0,45.0,62.0,0.0
54.0,52.0,51.0,34.0,43.0,51.0,-3.0,30.0,52.0,51.0,0.0
33.0,24.0,21.0,16.0,32.0,32.0,-5.0,23.0,45.0,49.0,0.0
-1.0,-8.0,-14.0,-10.0,0.0,2.0,-10.0,15.0,35.0,17.0,0.0
-35.0,-31.0,-50.0,-35.0,-36.0,-19.0,-13.0,-1.0,20.0,-14.0,0.0
-58.0,-46.0,-61.0,-60.0,-67.0,-35.0,-2.0,-15.0,3.0,-12.0,0.0
-55.0,-72.0,-87.0,-86.0,-88.0,-50.0,-5.0,-24.0,-15.0,4.0,0.0
-55.0,-84.0,-105.0,-103.0,-93.0,-57.0,0.0,-34.0,-40.0,2.0,0.0
-57.0,-75.0,-111.0,-102.0,-92.0,-56.0,8.0,-38.0,-37.0,-10.0,0.0
-59.0,-61.0,-107.0,-90.0,-81.0,-52.0,5.0,-25.0,-28.0,-13.0,0.0
-41.0,-53.0,-80.0,-67.0,-56.0,-40.0,8.0,-12.0,-19.0,-42.0,0.0
-34.0,-12.0,-34.0,-20.0,-28.0,-10.0,16.0,0.0,-9.0,-67.0,0.0
-18.0,20.0,12.0,7.0,10.0,16.0,16.0,11.0,-2.0,-73.0,0.0
5.0,39.0,49.0,28.0,45.0,29.0,22.0,27.0,19.0,-49.0,0.0
43.0,44.0,55.0,47.0,65.0,52.0,9.0,35.0,44.0,5.0,0.0
57.0,51.0,49.0,52.0,68.0,69.0,-12.0,34.0,60.0,78.0,0.0
44.0,52.0,47.0,63.0,71.0,67.0,-17.0,30.0,45.0,70.0,0.0
37.0,36.0,52.0,68.0,57.0,55.0,-5.0,29.0,45.0,46.0,0.0
34.0,16.0,70.0,61.0,41.0,38.0,-13.0,14.0,37.0,29.0,0.0
22.0,2.0,81.0,52.0,28.0,12.0,-16.0,-2.0,25.0,27.0,0.0
8.0,-3.0,74.0,33.0,9.0,2.0,-7.0,6.0,17.0,22.0,0.0
-12.0,-1.0,10.0,5.0,-4.0,-14.0,-1.0,0.0,23.0,36.0,0.0
-20.0,0.0,-49.0,-26.0,-25.0,-29.0,10.0,-15.0,13.0,40.0,0.0
-14.0,-11.0,-63.0,-42.0,-51.0,-46.0,1.0,-34.0,-17.0,17.0,0.0
-53.0,-39.0,-54.0,-42.0,-58.0,-45.0,-8.0,-42.0,-27.0,-60.0,0.0
-68.0,-51.0,-41.0,-42.0,-51.0,-38.0,-4.0,-34.0,-25.0,-130.0,0.0
-67.0,-37.0,-43.0,-35.0,-45.0,-27.0,1.0,-27.0,-15.0,-182.0,0.0
-47.0,-17.0,-13.0,-21.0,-25.0,-15.0,6.0,-22.0,-7.0,-156.0,0.0
-15.0,6.0,28.0,3.0,-2.0,1.0,8.0,-10.0,1.0,-76.0,0.0
-1.0,12.0,44.0,31.0,18.0,27.0,6.0,5.0,10.0,-30.0,0.0
5.0,16.0,50.0,50.0,33.0,45.0,10.0,20.0,21.0,-29.0,0.0
26.0,25.0,48.0,56.0,46.0,54.0,0.0,35.0,42.0,2.0,0.0
58.0,42.0,54.0,56.0,49.0,63.0,-8.0,45.0,59.0,75.0,0.0
76.0,57.0,39.0,49.0,47.0,56.0,-5.0,33.0,80.0,94.0,0.0
77.0,66.0,25.0,49.0,38.0,44.0,-8.0,17.0,93.0,56.0,0.0
52.0,43.0,15.0,37.0,20.0,24.0,-9.0,8.0,50.0,22.0,0.0
22.0,14.0,2.0,14.0,6.0,-1.0,-6.0,4.0,23.0,-10.0,0.0
-4.0,-7.0,-9.0,-6.0,-10.0,-16.0,-2.0,4.0,14.0,-19.0,0.0
-21.0,-34.0,-43.0,-25.0,-36.0,-38.0,-4.0,5.0,2.0,3.0,0.0
-52.0,-52.0,-74.0,-47.0,-60.0,-61.0,-4.0,-20.0,-16.0,14.0,0.0
-79.0,-79.0,-96.0,-66.0,-77.0,-72.0,6.0,-33.0,-18.0,-31.0,0.0
-58.0,-80.0,-99.0,-77.0,-77.0,-64.0,18.0,-18.0,-3.0,-77.0,0.0
-39.0,-65.0,-81.0,-66.0,-74.0,-53.0,24.0,4.0,16.0,-88.0,0.0
-19.0,-42.0,-60.0,-48.0,-55.0,-39.0,26.0,20.0,53.0,-32.0,0.0
3.0,-4.0,-22.0,-6.0,-22.0,-8.0,30.0,48.0,71.0,66.0,0.0
37.0,22.0,34.0,14.0,24.0,24.0,40.0,72.0,75.0,166.0,0.0
51.0,44.0,65.0,35.0,53.0,50.0,45.0,83.0,61.0,239.0,0.0
35.0,60.0,69.0,65.0,66.0,64.0,31.0,68.0,7.0,160.0,0.0
39.0,66.0,62.0,69.0,80.0,67.0,4.0,38.0,-54.0,-43.0,0.0
59.0,72.0,50.0,50.0,80.0,56.0,-13.0,30.0,-57.0,-133.0,0.0
67.0,64.0,38.0,28.0,71.0,47.0,-4.0,34.0,-32.0,-91.0,0.0
66.0,65.0,27.0,19.0,59.0,39.0,6.0,36.0,-9.0,-21.0,0.0
58.0,51.0,21.0,28.0,37.0,21.0,4.0,36.0,1.0,9.0,0.0
19.0,23.0,8.0,12.0,7.0,-4.0,0.0,23.0,-7.0,-12.0,0.0
-15.0,12.0,-23.0,-11.0,-10.0,-35.0,-17.0,10.0,-17.0,-40.0,0.0
-49.0,-14.0,-45.0,-48.0,-34.0,-54.0,-22.0,12.0,-18.0,-65.0,0.0
-95.0,-42.0,-70.0,-78.0,-61.0,-69.0,-20.0,2.0,-33.0,-78.0,0.0
-127.0,-65.0,-83.0,-90.0,-68.0,-76.0,-13.0,-11.0,-47.0,-97.0,0.0
-109.0,-80.0,-77.0,-97.0,-59.0,-64.0,-7.0,-19.0,-48.0,-86.0,0.0
-87.0,-61.0,-59.0,-91.0,-46.0,-41.0,-4.0,-14.0,-37.0,-75.0,0.0
-61.0,-39.0,-42.0,-73.0,-32.0,-24.0,-4.0,-1.0,-17.0,-46.0,0.0
-20.0,-16.0,-23.0,-50.0,-6.0,4.0,0.0,7.0,-5.0,-13.0,0.0
24.0,3.0,11.0,-16.0,11.0,26.0,4.0,11.0,14.0,16.0,0.0
52.0,35.0,19.0,12.0,33.0,50.0,3.0,31.0,31.0,46.0,0.0
75.0,49.0,34.0,30.0,53.0,73.0,10.0,52.0,55.0,74.0,0.0
113.0,51.0,49.0,34.0,67.0,75.0,10.0,59.0,77.0,126.0,0.0
130.0,53.0,51.0,31.0,63.0,71.0,0.0,58.0,76.0,167.0,0.0
124.0,61.0,44.0,16.0,55.0,53.0,-7.0,44.0,74.0,204.0,0.0
95.0,54.0,33.0,6.0,33.0,29.0,-20.0,34.0,68.0,170.0,0.0
57.0,23.0,7.0,-5.0,5.0,8.0,-34.0,22.0,48.0,81.0,0.0
11.0,-11.0,-6.0,-18.0,-5.0,-24.0,-25.0,0.0,16.0,15.0,0.0
-23.0,-23.0,-19.0,-20.0,-4.0,-47.0,-12.0,-13.0,-11.0,-16.0,0.0
-59.0,-18.0,-31.0,-27.0,-15.0,-56.0,-12.0,-17.0,-17.0,-29.0,0.0
-99.0,-47.0,-56.0,-33.0,-43.0,-49.0,-11.0,-22.0,-30.0,-39.0,0.0
-133.0,-71.0,-70.0,-40.0,-56.0,-51.0,0.0,-30.0,-49.0,-65.0,0.0
-154.0,-81.0,-76.0,-57.0,-49.0,-59.0,15.0,-30.0,-51.0,-148.0,0.0
-139.0,-75.0,-76.0,-60.0,-50.0,-55.0,5.0,-30.0,-65.0,-278.0,0.0
-81.0,-43.0,-58.0,-33.0,-29.0,-36.0,0.0,-21.0,-53.0,-223.0,0.0
-24.0,-7.0,-27.0,1.0,4.0,-18.0,0.0,-5.0,-10.0,-27.0,0.0
13.0,19.0,15.0,29.0,38.0,15.0,16.0,13.0,4.0,25.0,0.0
23.0,40.0,47.0,47.0,68.0,47.0,29.0,23.0,0.0,10.0,0.0
63.0,49.0,62.0,52.0,89.0,67.0,27.0,35.0,16.0,31.0,0.0
91.0,49.0,58.0,52.0,85.0,67.0,21.0,44.0,22.0,63.0,0.0
84.0,43.0,56.0,54.0,72.0,58.0,2.0,37.0,34.0,62.0,0.0
67.0,33.0,52.0,53.0,57.0,49.0,-6.0,18.0,32.0,34.0,0.0
40.0,20.0,23.0,32.0,36.0,24.0,-4.0,3.0,22.0,9.0,0.0
-3.0,-7.0,-3.0,19.0,18.0,11.0,-6.0,-13.0,0.0,-34.0,0.0
-48.0,-42.0,-16.0,2.0,2.0,5.0,0.0,-32.0,-24.0,-75.0,0.0
-76.0,-72.0,-44.0,-23.0,-26.0,-17.0,0.0,-45.0,-46.0,-67.0,0.0
-78.0,-98.0,-75.0,-39.0,-52.0,-37.0,-10.0,-54.0,-47.0,-50.0,0.0
-85.0,-117.0,-95.0,-65.0,-75.0,-54.0,-7.0,-63.0,-34.0,-23.0,0.0
-92.0,-107.0,-99.0,-70.0,-77.0,-55.0,-4.0,-65.0,-27.0,-29.0,0.0
-67.0,-87.0,-95.0,-45.0,-66.0,-46.0,-1.0,-56.0,-13.0,-53.0,0.0
-51.0,-61.0,-80.0,-13.0,-49.0,-32.0,1.0,-46.0,-6.0,-42.0,0.0
-22.0,-29.0,-48.0,21.0,-19.0,-4.0,0.0,-27.0,-2.0,-19.0,0.0
20.0,2.0,-13.0,59.0,0.0,16.0,-8.0,-1.0,14.0,11.0,0.0
56.0,31.0,15.0,72.0,11.0,34.0,-1.0,21.0,26.0,31.0,0.0
79.0,59.0,39.0,84.0,32.0,49.0,0.0,35.0,25.0,46.0,0.0
102.0,81.0,71.0,105.0,60.0,62.0,-8.0,39.0,32.0,89.0,0.0
104.0,78.0,78.0,119.0,70.0,66.0,-18.0,39.0,28.0,133.0,0.0
87.0,76.0,64.0,96.0,60.0,55.0,-26.0,27.0,30.0,141.0,0.0
75.0,72.0,57.0,70.0,41.0,27.0,-39.0,15.0,38.0,103.0,0.0
68.0,66.0,50.0,31.0,19.0,-5.0,-44.0,0.0,25.0,68.0,0.0
33.0,46.0,18.0,5.0,-8.0,-26.0,-44.0,-15.0,8.0,59.0,0.0
13.0,29.0,-9.0,-19.0,-20.0,-28.0,-40.0,-23.0,0.0,50.0,0.0
-2.0,2.0,-32.0,-35.0,-33.0,-55.0,-34.0,-42.0,-17.0,50.0,0.0
-36.0,-17.0,-68.0,-58.0,-55.0,-68.0,-28.0,-53.0,-43.0,43.0,0.0
-73.0,-41.0,-94.0,-76.0,-67.0,-71.0,-24.0,-51.0,-55.0,14.0,0.0
-100.0,-54.0,-102.0,-78.0,-65.0,-62.0,-13.0,-38.0,-59.0,-39.0,0.0
-107.0,-48.0,-96.0,-68.0,-62.0,-57.0,-17.0,-28.0,-55.0,-105.0,0.0
-96.0,-41.0,-73.0,-43.0,-45.0,-26.0,-21.0,-16.0,-44.0,-122.0,0.0
-46.0,-25.0,-43.0,-16.0,-6.0,5.0,-4.0,0.0,-16.0,-77.0,0.0
0.0,-5.0,-23.0,8.0,32.0,36.0,12.0,15.0,-8.0,-38.0,0.0
37.0,23.0,9.0,33.0,51.0,56.0,11.0,30.0,-3.0,-17.0,0.0
59.0,44.0,53.0,49.0,64.0,68.0,0.0,38.0,19.0,-1.0,0.0
82.0,60.0,81.0,61.0,79.0,80.0,-4.0,41.0,39.0,5.0,0.0
93.0,62.0,64.0,52.0,68.0,77.0,-2.0,37.0,54.0,13.0,0.0
76.0,55.0,36.0,36.0,50.0,53.0,-8.0,36.0,50.0,23.0,0.0
64.0,50.0,40.0,29.0,47.0,33.0,0.0,37.0,51.0,2.0,0.0
53.0,32.0,17.0,3.0,33.0,12.0,-2.0,24.0,50.0,-2.0,0.0
-3.0,-9.0,-4.0,-20.0,12.0,0.0,-14.0,3.0,33.0,37.0,0.0
-43.0,-41.0,-56.0,-47.0,-17.0,-24.0,-10.0,-14.0,14.0,81.0,0.0
-57.0,-68.0,-72.0,-63.0,-47.0,-36.0,0.0,-29.0,-9.0,95.0,0.0
-76.0,-86.0,-76.0,-65.0,-65.0,-46.0,-5.0,-27.0,-33.0,104.0,0.0
-100.0,-87.0,-87.0,-73.0,-76.0,-63.0,-6.0,-45.0,-65.0,23.0,0.0
-97.0,-81.0,-73.0,-79.0,-70.0,-67.0,-10.0,-65.0,-112.0,-161.0,0.0
-70.0,-53.0,-57.0,-67.0,-72.0,-60.0,-23.0,-55.0,-109.0,-194.0,0.0
-43.0,-31.0,-29.0,-45.0,-50.0,-42.0,-11.0,-32.0,-61.0,-43.0,0.0
-16.0,-3.0,-14.0,-23.0,-15.0,-10.0,-5.0,2.0,-29.0,40.0,0.0
13.0,25.0,20.0,0.0,13.0,13.0,-10.0,14.0,-6.0,51.0,0.0
49.0,51.0,64.0,27.0,43.0,35.0,0.0,32.0,14.0,43.0,0.0
70.0,81.0,95.0,53.0,71.0,57.0,3.0,49.0,29.0,42.0,0.0
81.0,107.0,94.0,61.0,87.0,61.0,-4.0,44.0,40.0,60.0,0.0
71.0,85.0,89.0,58.0,71.0,49.0,-18.0,25.0,30.0,73.0,0.0
53.0,43.0,80.0,38.0,47.0,34.0,-18.0,26.0,38.0,81.0,0.0
36.0,15.0,68.0,25.0,30.0,14.0,-6.0,20.0,39.0,83.0,0.0
19.0,-1.0,48.0,-6.0,6.0,0.0,-10.0,1.0,31.0,41.0,0.0
-11.0,-10.0,22.0,-15.0,-17.0,-15.0,-9.0,-9.0,17.0,1.0,0.0
-55.0,-38.0,-4.0,-15.0,-33.0,-39.0,1.0,-6.0,3.0,-22.0,0.0
-100.0,-71.0,-32.0,-30.0,-54.0,-40.0,6.0,-25.0,-13.0,-45.0,0.0
-127.0,-90.0,-55.0,-44.0,-69.0,-44.0,2.0,-36.0,-25.0,-74.0,0.0
-122.0,-86.0,-60.0,-42.0,-72.0,-46.0,4.0,-30.0,-35.0,-88.0,0.0
-98.0,-82.0,-51.0,-33.0,-49.0,-33.0,11.0,-25.0,-21.0,-53.0,0.0
-83.0,-63.0,-41.0,-30.0,-37.0,-20.0,18.0,1.0,-3.0,-1.0,0.0
-41.0,-35.0,-25.0,-13.0,-13.0,-9.0,12.0,24.0,13.0,47.0,0.0
4.0,0.0,12.0,8.0,11.0,11.0,13.0,32.0,40.0,85.0,0.0
28.0,19.0,32.0,33.0,36.0,32.0,30.0,46.0,59.0,114.0,0.0
54.0,32.0,62.0,58.0,60.0,52.0,35.0,61.0,79.0,145.0,0.0
92.0,52.0,72.0,78.0,80.0,67.0,20.0,69.0,85.0,125.0,0.0
123.0,71.0,70.0,95.0,95.0,58.0,2.0,51.0,59.0,59.0,0.0
115.0,69.0,71.0,80.0,86.0,50.0,-9.0,28.0,39.0,-5.0,0.0
95.0,78.0,60.0,53.0,70.0,38.0,-7.0,29.0,48.0,-36.0,0.0
62.0,57.0,21.0,30.0,36.0,10.0,-4.0,25.0,34.0,-26.0,0.0
39.0,13.0,4.0,14.0,-5.0,-13.0,-3.0,2.0,22.0,6.0,0.0
18.0,-15.0,-8.0,-5.0,-35.0,-42.0,-16.0,-27.0,12.0,93.0,0.0
-27.0,-29.0,-17.0,-23.0,-47.0,-64.0,-16.0,-52.0,-16.0,122.0,0.0
-84.0,-43.0,12.0,-36.0,-60.0,-62.0,-13.0,-63.0,-58.0,21.0,0.0
-134.0,-67.0,4.0,-46.0,-74.0,-73.0,0.0,-70.0,-70.0,-56.0,0.0
-147.0,-78.0,-32.0,-49.0,-82.0,-73.0,5.0,-59.0,-67.0,-144.0,0.0
-125.0,-57.0,-41.0,-37.0,-66.0,-62.0,7.0,-39.0,-68.0,-206.0,0.0
-90.0,-30.0,-3.0,-9.0,-29.0,-37.0,17.0,-20.0,-41.0,-138.0,0.0
-35.0,-4.0,17.0,15.0,8.0,-17.0,15.0,-12.0,-6.0,-71.0,0.0
12.0,26.0,34.0,36.0,29.0,7.0,20.0,15.0,15.0,-18.0,0.0
55.0,44.0,53.0,50.0,38.0,33.0,10.0,39.0,30.0,27.0,0.0
89.0,64.0,65.0,69.0,54.0,55.0,1.0,50.0,58.0,61.0,0.0
104.0,77.0,68.0,79.0,72.0,63.0,0.0,55.0,72.0,72.0,0.0
107.0,78.0,63.0,72.0,66.0,59.0,6.0,54.0,65.0,81.0,0.0
95.0,67.0,49.0,52.0,52.0,49.0,12.0,42.0,59.0,86.0,0.0
69.0,40.0,30.0,26.0,32.0,30.0,7.0,28.0,43.0,72.0,0.0
39.0,15.0,16.0,2.0,12.0,0.0,-5.0,3.0,30.0,57.0,0.0
14.0,-6.0,5.0,-16.0,-2.0,-25.0,-4.0,-12.0,9.0,21.0,0.0
-10.0,-30.0,-23.0,-30.0,-19.0,-38.0,4.0,-31.0,-13.0,-21.0,0.0
-59.0,-54.0,-46.0,-58.0,-44.0,-59.0,8.0,-50.0,-20.0,-59.0,0.0
-90.0,-57.0,-73.0,-96.0,-68.0,-67.0,0.0,-52.0,-24.0,-74.0,0.0
-83.0,-52.0,-78.0,-116.0,-84.0,-74.0,1.0,-46.0,-30.0,-72.0,0.0
-59.0,-46.0,-64.0,-90.0,-75.0,-66.0,10.0,-31.0,-26.0,-63.0,0.0
-34.0,-32.0,-60.0,-40.0,-66.0,-59.0,10.0,-11.0,-19.0,-51.0,0.0
-18.0,-5.0,-27.0,-13.0,-44.0,-38.0,0.0,7.0,-7.0,-42.0,0.0
11.0,27.0,15.0,1.0,-8.0,-6.0,1.0,18.0,29.0,-14.0,0.0
25.0,74.0,60.0,26.0,19.0,29.0,9.0,31.0,70.0,-10.0,0.0
39.0,79.0,73.0,49.0,49.0,66.0,12.0,40.0,52.0,-25.0,0.0
58.0,71.0,58.0,59.0,70.0,76.0,7.0,44.0,33.0,7.0,0.0
80.0,70.0,62.0,59.0,77.0,80.0,3.0,52.0,40.0,27.0,0.0
70.0,60.0,55.0,66.0,68.0,73.0,2.0,46.0,28.0,0.0,0.0
47.0,54.0,36.0,58.0,54.0,57.0,-6.0,23.0,13.0,-11.0,0.0
25.0,32.0,16.0,24.0,17.0,30.0,-16.0,10.0,10.0,36.0,0.0
0.0,9.0,-8.0,-2.0,-17.0,-2.0,-21.0,-1.0,13.0,53.0,0.0
-4.0,-13.0,-32.0,-26.0,-32.0,-26.0,-13.0,0.0,2.0,18.0,0.0
-15.0,-31.0,-66.0,-42.0,-56.0,-42.0,0.0,-12.0,-6.0,-13.0,0.0
-52.0,-36.0,-86.0,-53.0,-78.0,-57.0,4.0,-31.0,-17.0,-46.0,0.0
-85.0,-49.0,-97.0,-65.0,-90.0,-84.0,1.0,-54.0,-42.0,-77.0,0.0
-85.0,-62.0,-94.0,-62.0,-81.0,-76.0,4.0,-55.0,-62.0,-108.0,0.0
-92.0,-55.0,-79.0,-43.0,-65.0,-59.0,5.0,-42.0,-81.0,-118.0,0.0
-81.0,-40.0,-65.0,-26.0,-45.0,-47.0,10.0,-38.0,-72.0,-84.0,0.0
-45.0,-4.0,-28.0,-9.0,-18.0,-23.0,15.0,-17.0,-39.0,-52.0,0.0
-2.0,25.0,0.0,31.0,18.0,7.0,25.0,11.0,-11.0,-4.0,0.0
55.0,48.0,27.0,59.0,39.0,34.0,24.0,32.0,16.0,63.0,0.0
93.0,74.0,61.0,58.0,54.0,32.0,10.0,49.0,49.0,72.0,0.0
129.0,99.0,79.0,57.0,67.0,31.0,-7.0,57.0,85.0,55.0,0.0
143.0,114.0,75.0,64.0,67.0,37.0,-16.0,64.0,99.0,20.0,0.0
123.0,114.0,60.0,61.0,60.0,41.0,-20.0,68.0,107.0,34.0,0.0
109.0,97.0,55.0,50.0,46.0,38.0,-21.0,56.0,86.0,109.0,0.0
66.0,72.0,49.0,39.0,28.0,21.0,-20.0,43.0,46.0,150.0,0.0
6.0,25.0,27.0,25.0,9.0,0.0,-10.0,22.0,-18.0,30.0,0.0
-30.0,-15.0,2.0,-7.0,-19.0,-19.0,-9.0,-20.0,-85.0,-125.0,0.0
-67.0,-49.0,-32.0,-42.0,-49.0,-46.0,-21.0,-44.0,-107.0,-88.0,0.0
-93.0,-72.0,-61.0,-67.0,-73.0,-72.0,-21.0,-64.0,-123.0,-109.0,0.0
-123.0,-76.0,-64.0,-74.0,-82.0,-69.0,-1.0,-59.0,-127.0,-160.0,0.0
-148.0,-79.0,-61.0,-64.0,-83.0,-57.0,-1.0,-47.0,-115.0,-173.0,0.0
-159.0,-77.0,-57.0,-56.0,-88.0,-51.0,-4.0,-39.0,-93.0,-158.0,0.0
-144.0,-64.0,-45.0,-37.0,-72.0,-55.0,0.0,-27.0,-63.0,-126.0,0.0
-82.0,-34.0,-12.0,-7.0,-37.0,-31.0,4.0,-15.0,-45.0,-48.0,0.0
-20.0,8.0,40.0,12.0,7.0,-5.0,5.0,0.0,-25.0,15.0,0.0
18.0,45.0,68.0,35.0,40.0,19.0,-3.0,13.0,-11.0,26.0,0.0
44.0,57.0,73.0,53.0,59.0,52.0,-17.0,15.0,2.0,44.0,0.0
72.0,62.0,92.0,64.0,74.0,77.0,-2.0,22.0,14.0,53.0,0.0
72.0,51.0,95.0,61.0,82.0,67.0,-3.0,25.0,24.0,55.0,0.0
66.0,40.0,66.0,59.0,61.0,51.0,-19.0,15.0,26.0,42.0,0.0
53.0,40.0,43.0,37.0,32.0,40.0,-16.0,0.0,29.0,30.0,0.0
32.0,9.0,20.0,12.0,-2.0,13.0,-8.0,-11.0,27.0,15.0,0.0
-8.0,-20.0,-12.0,-9.0,-23.0,-17.0,-6.0,-22.0,10.0,-4.0,0.0
-48.0,-36.0,-44.0,-25.0,-48.0,-31.0,-5.0,-36.0,-7.0,-27.0,0.0
-80.0,-49.0,-52.0,-46.0,-76.0,-39.0,-4.0,-51.0,-20.0,-46.0,0.0
-110.0,-67.0,-71.0,-65.0,-96.0,-62.0,0.0,-56.0,-32.0,-53.0,0.0
-119.0,-96.0,-77.0,-67.0,-90.0,-67.0,4.0,-52.0,-28.0,-53.0,0.0
-104.0,-86.0,-67.0,-49.0,-69.0,-48.0,8.0,-48.0,-40.0,-58.0,0.0
-79.0,-65.0,-43.0,-35.0,-50.0,-20.0,3.0,-42.0,-40.0,-56.0,0.0
-47.0,-41.0,-20.0,-25.0,-32.0,2.0,4.0,-19.0,-24.0,-38.0,0.0
-12.0,-5.0,8.0,10.0,-4.0,22.0,13.0,0.0,-8.0,-19.0,0.0
15.0,19.0,49.0,35.0,30.0,43.0,27.0,14.0,12.0,-3.0,0.0
51.0,46.0,59.0,52.0,51.0,54.0,28.0,31.0,25.0,21.0,0.0
88.0,70.0,65.0,66.0,62.0,61.0,18.0,39.0,49.0,47.0,0.0
99.0,90.0,82.0,77.0,76.0,65.0,8.0,41.0,48.0,49.0,0.0
103.0,86.0,63.0,67.0,64.0,55.0,-11.0,35.0,49.0,38.0,0.0
101.0,58.0,41.0,43.0,50.0,45.0,-26.0,26.0,50.0,38.0,0.0
76.0,23.0,26.0,17.0,31.0,32.0,-15.0,12.0,38.0,20.0,0.0
46.0,-1.0,18.0,-7.0,5.0,11.0,2.0,-5.0,22.0,0.0,0.0
-6.0,-11.0,8.0,-21.0,-10.0,-13.0,2.0,-23.0,1.0,-42.0,0.0
-72.0,-42.0,-15.0,-37.0,-25.0,-30.0,3.0,-50.0,-34.0,-76.0,0.0
-114.0,-66.0,-56.0,-63.0,-53.0,-44.0,1.0,-77.0,-61.0,-68.0,0.0
-139.0,-80.0,-56.0,-69.0,-76.0,-49.0,5.0,-77.0,-71.0,-89.0,0.0
-134.0,-88.0,-56.0,-76.0,-70.0,-47.0,-4.0,-68.0,-74.0,-99.0,0.0
-112.0,-65.0,-36.0,-71.0,-55.0,-45.0,-2.0,-59.0,-64.0,-76.0,0.0
-84.0,-33.0,-23.0,-64.0,-32.0,-34.0,4.0,-44.0,-60.0,-45.0,0.0
-45.0,-5.0,-16.0,-43.0,-2.0,-14.0,-9.0,-22.0,-52.0,-11.0,0.0
-4.0,8.0,21.0,-16.0,20.0,13.0,-15.0,-5.0,-28.0,13.0,0.0
29.0,32.0,61.0,1.0,46.0,25.0,-12.0,2.0,-2.0,32.0,0.0
70.0,60.0,67.0,30.0,60.0,45.0,-14.0,14.0,23.0,59.0,0.0
101.0,82.0,80.0,44.0,81.0,63.0,-5.0,29.0,41.0,87.0,0.0
110.0,76.0,89.0,47.0,82.0,74.0,-4.0,26.0,40.0,86.0,0.0
106.0,72.0,68.0,46.0,69.0,61.0,-7.0,33.0,28.0,76.0,0.0
66.0,67.0,66.0,39.0,48.0,50.0,-2.0,28.0,23.0,53.0,0.0
22.0,39.0,35.0,28.0,23.0,25.0,-6.0,6.0,0.0,19.0,0.0
-18.0,0.0,6.0,4.0,0.0,1.0,0.0,-4.0,-15.0,-9.0,0.0
-41.0,-33.0,-32.0,-19.0,-18.0,-15.0,1.0,-22.0,-34.0,-48.0,0.0
-56.0,-48.0,-73.0,-43.0,-47.0,-29.0,4.0,-37.0,-31.0,-83.0,0.0
-78.0,-72.0,-90.0,-68.0,-72.0,-31.0,14.0,-50.0,-42.0,-102.0,0.0
-89.0,-85.0,-94.0,-81.0,-90.0,-42.0,14.0,-66.0,-55.0,-100.0,0.0
-70.0,-87.0,-85.0,-79.0,-86.0,-57.0,1.0,-72.0,-54.0,-84.0,0.0
-53.0,-54.0,-71.0,-62.0,-67.0,-46.0,6.0,-63.0,-52.0,-91.0,0.0
-25.0,-20.0,-53.0,-36.0,-35.0,-26.0,24.0,-31.0,-45.0,-75.0,0.0
4.0,21.0,-30.0,-10.0,5.0,2.0,30.0,-13.0,-24.0,-23.0,0.0
38.0,36.0,0.0,-5.0,31.0,25.0,32.0,-16.0,3.0,32.0,0.0
66.0,40.0,32.0,8.0,48.0,41.0,27.0,-2.0,30.0,54.0,0.0
86.0,61.0,54.0,24.0,54.0,51.0,24.0,18.0,53.0,53.0,0.0
113.0,80.0,76.0,58.0,71.0,58.0,21.0,27.0,55.0,73.0,0.0
133.0,84.0,83.0,71.0,72.0,59.0,22.0,28.0,68.0,99.0,0.0
128.0,60.0,54.0,55.0,57.0,45.0,19.0,34.0,63.0,113.0,0.0
100.0,47.0,25.0,30.0,48.0,30.0,19.0,18.0,51.0,83.0,0.0
66.0,27.0,-7.0,6.0,19.0,7.0,13.0,0.0,43.0,42.0,0.0
30.0,2.0,-27.0,-18.0,0.0,-15.0,5.0,-10.0,38.0,-9.0,0.0
-6.0,-16.0,-40.0,-37.0,-20.0,-28.0,6.0,-23.0,30.0,-37.0,0.0
-56.0,-51.0,-74.0,-51.0,-51.0,-51.0,2.0,-49.0,0.0,-25.0,0.0
-103.0,-88.0,-107.0,-66.0,-68.0,-66.0,-1.0,-61.0,-20.0,19.0,0.0
-112.0,-100.0,-123.0,-69.0,-65.0,-68.0,0.0,-56.0,-18.0,83.0,0.0
-97.0,-95.0,-108.0,-66.0,-55.0,-56.0,8.0,-38.0,-36.0,111.0,0.0
-87.0,-82.0,-94.0,-49.0,-37.0,-36.0,3.0,-43.0,-66.0,-13.0,0.0
-62.0,-52.0,-68.0,-35.0,-12.0,-21.0,-7.0,-49.0,-77.0,-171.0,0.0
0.0,-5.0,-28.0,-8.0,17.0,2.0,-3.0,-34.0,-38.0,-112.0,0.0
50.0,40.0,1.0,22.0,35.0,30.0,5.0,-10.0,11.0,-3.0,0.0
78.0,72.0,44.0,49.0,62.0,66.0,7.0,15.0,49.0,49.0,0.0
112.0,87.0,63.0,70.0,98.0,91.0,12.0,37.0,48.0,59.0,0.0
148.0,99.0,75.0,87.0,108.0,101.0,20.0,51.0,59.0,54.0,0.0
159.0,89.0,66.0,79.0,98.0,88.0,14.0,54.0,72.0,39.0,0.0
147.0,74.0,57.0,62.0,72.0,66.0,10.0,45.0,68.0,54.0,0.0
118.0,69.0,52.0,51.0,45.0,46.0,8.0,40.0,60.0,109.0,0.0
84.0,52.0,39.0,28.0,20.0,28.0,0.0,16.0,40.0,160.0,0.0
56.0,30.0,16.0,-13.0,1.0,10.0,-4.0,-1.0,15.0,143.0,0.0
-15.0,2.0,-11.0,-24.0,-11.0,-8.0,-7.0,-18.0,-37.0,16.0,0.0
-131.0,-59.0,-46.0,-47.0,-43.0,-32.0,-21.0,-53.0,-81.0,-127.0,0.0
-239.0,-118.0,-95.0,-77.0,-80.0,-57.0,-31.0,-90.0,-114.0,-265.0,0.0
-242.0,-115.0,-103.0,-81.0,-87.0,-58.0,-30.0,-92.0,-120.0,-272.0,0.0
-181.0,-76.0,-78.0,-57.0,-74.0,-42.0,-23.0,-62.0,-95.0,-160.0,0.0
-116.0,-36.0,-52.0,-26.0,-48.0,-19.0,-11.0,-46.0,-56.0,-90.0,0.0
-55.0,4.0,-23.0,1.0,-19.0,8.0,1.0,-25.0,-21.0,-41.0,0.0
5.0,28.0,3.0,23.0,8.0,32.0,3.0,4.0,7.0,-4.0,0.0
56.0,51.0,36.0,58.0,36.0,60.0,0.0,33.0,38.0,16.0,0.0
98.0,80.0,63.0,74.0,57.0,75.0,0.0,46.0,85.0,-9.0,0.0
123.0,97.0,66.0,73.0,67.0,85.0,-15.0,60.0,109.0,16.0,0.0
137.0,87.0,70.0,76.0,71.0,90.0,-25.0,61.0,108.0,87.0,0.0
123.0,64.0,58.0,73.0,64.0,83.0,-17.0,44.0,93.0,165.0,0.0
84.0,50.0,36.0,54.0,46.0,58.0,-23.0,52.0,67.0,246.0,0.0
42.0,25.0,-2.0,35.0,24.0,34.0,-9.0,32.0,41.0,284.0,0.0
-25.0,-11.0,-36.0,5.0,2.0,19.0,-2.0,-7.0,-28.0,181.0,0.0
-82.0,-56.0,-73.0,-26.0,-24.0,-13.0,-20.0,-50.0,-102.0,-127.0,0.0
-103.0,-80.0,-95.0,-47.0,-55.0,-45.0,-26.0,-63.0,-104.0,-245.0,0.0
-117.0,-100.0,-114.0,-64.0,-91.0,-65.0,-9.0,-63.0,-66.0,-117.0,0.0
-132.0,-112.0,-125.0,-75.0,-100.0,-71.0,-3.0,-58.0,-49.0,-100.0,0.0
-111.0,-90.0,-116.0,-52.0,-78.0,-58.0,2.0,-37.0,-39.0,-104.0,0.0
-95.0,-65.0,-82.0,-37.0,-47.0,-25.0,23.0,-31.0,-23.0,-104.0,0.0
-80.0,-40.0,-45.0,-20.0,-20.0,5.0,37.0,-16.0,-15.0,-97.0,0.0
-31.0,-6.0,-12.0,19.0,-1.0,31.0,34.0,-5.0,11.0,-58.0,0.0
32.0,36.0,26.0,29.0,19.0,52.0,25.0,9.0,31.0,-16.0,0.0
70.0,73.0,54.0,47.0,34.0,59.0,18.0,21.0,31.0,21.0,0.0
92.0,90.0,74.0,83.0,47.0,58.0,7.0,33.0,36.0,52.0,0.0
112.0,100.0,87.0,113.0,67.0,74.0,-2.0,30.0,38.0,71.0,0.0
100.0,95.0,80.0,109.0,70.0,75.0,-6.0,22.0,34.0,59.0,0.0
60.0,75.0,62.0,89.0,57.0,60.0,-26.0,22.0,34.0,45.0,0.0
36.0,52.0,51.0,68.0,41.0,33.0,-32.0,14.0,39.0,41.0,0.0
24.0,24.0,12.0,32.0,5.0,16.0,-22.0,3.0,36.0,58.0,0.0
16.0,-2.0,-13.0,3.0,-21.0,0.0,-22.0,-6.0,13.0,55.0,0.0
9.0,-28.0,-39.0,-15.0,-36.0,-18.0,-26.0,-11.0,0.0,44.0,0.0
-11.0,-52.0,-57.0,-52.0,-63.0,-44.0,-18.0,-26.0,0.0,44.0,0.0
-46.0,-77.0,-83.0,-49.0,-80.0,-73.0,-11.0,-22.0,-5.0,34.0,0.0
-58.0,-82.0,-85.0,-43.0,-79.0,-64.0,2.0,-18.0,-15.0,10.0,0.0
-75.0,-64.0,-67.0,-30.0,-60.0,-53.0,5.0,-12.0,-23.0,-25.0,0.0
-83.0,-41.0,-36.0,-16.0,-31.0,-37.0,6.0,-16.0,-20.0,-49.0,0.0
-52.0,-27.0,-5.0,2.0,1.0,-5.0,14.0,-2.0,-15.0,-41.0,0.0
-11.0,7.0,24.0,24.0,35.0,37.0,22.0,29.0,0.0,-32.0,0.0
32.0,47.0,57.0,53.0,54.0,56.0,19.0,37.0,19.0,-11.0,0.0
68.0,52.0,73.0,85.0,70.0,54.0,11.0,47.0,28.0,-2.0,0.0
86.0,55.0,80.0,88.0,77.0,69.0,4.0,53.0,38.0,23.0,0.0
104.0,49.0,83.0,73.0,72.0,67.0,0.0,44.0,53.0,79.0,0.0
113.0,47.0,73.0,65.0,61.0,66.0,-12.0,41.0,54.0,103.0,0.0
97.0,32.0,28.0,52.0,56.0,54.0,-8.0,38.0,44.0,69.0,0.0
71.0,19.0,11.0,34.0,37.0,35.0,4.0,29.0,58.0,25.0,0.0
25.0,-10.0,-22.0,8.0,13.0,14.0,8.0,14.0,47.0,7.0,0.0
-28.0,-42.0,-29.0,-8.0,-6.0,-7.0,7.0,6.0,33.0,8.0,0.0
-71.0,-60.0,-41.0,-23.0,-33.0,-27.0,3.0,-1.0,23.0,-7.0,0.0
-92.0,-73.0,-65.0,-44.0,-51.0,-41.0,2.0,-13.0,-5.0,-3.0,0.0
-107.0,-85.0,-73.0,-54.0,-53.0,-42.0,9.0,-16.0,-25.0,49.0,0.0
-116.0,-78.0,-71.0,-47.0,-45.0,-39.0,18.0,-24.0,-56.0,36.0,0.0
-118.0,-72.0,-69.0,-53.0,-49.0,-32.0,5.0,-39.0,-106.0,-114.0,0.0
-78.0,-64.0,-58.0,-52.0,-38.0,-35.0,-22.0,-41.0,-103.0,-200.0,0.0
-16.0,-34.0,-25.0,-22.0,-9.0,-13.0,-24.0,-18.0,-51.0,-62.0,0.0
1.0,8.0,8.0,3.0,17.0,2.0,-12.0,3.0,-3.0,40.0,0.0
22.0,35.0,45.0,24.0,44.0,28.0,5.0,14.0,9.0,53.0,0.0
86.0,57.0,53.0,39.0,69.0,47.0,8.0,27.0,30.0,69.0,0.0
128.0,80.0,62.0,50.0,73.0,69.0,0.0,37.0,55.0,84.0,0.0
131.0,83.0,76.0,56.0,70.0,78.0,-5.0,47.0,58.0,78.0,0.0
124.0,77.0,77.0,47.0,63.0,63.0,-3.0,42.0,51.0,62.0,0.0
105.0,65.0,63.0,38.0,42.0,43.0,-1.0,27.0,45.0,57.0,0.0
69.0,43.0,31.0,15.0,11.0,20.0,-5.0,16.0,37.0,31.0,0.0
25.0,14.0,0.0,-12.0,-22.0,0.0,-4.0,4.0,24.0,-35.0,0.0
-36.0,-18.0,-20.0,-27.0,-48.0,-31.0,-8.0,-15.0,3.0,-119.0,0.0
-95.0,-61.0,-55.0,-55.0,-72.0,-63.0,-12.0,-50.0,-25.0,-130.0,0.0
-110.0,-91.0,-81.0,-82.0,-104.0,-83.0,-22.0,-70.0,-40.0,-47.0,0.0
-108.0,-92.0,-85.0,-78.0,-110.0,-95.0,-25.0,-63.0,-59.0,0.0,0.0
-94.0,-77.0,-75.0,-71.0,-89.0,-84.0,-19.0,-45.0,-55.0,-24.0,0.0
-86.0,-50.0,-53.0,-61.0,-62.0,-47.0,-8.0,-32.0,-23.0,-42.0,0.0
-65.0,-37.0,-32.0,-46.0,-36.0,-10.0,-1.0,-19.0,1.0,-32.0,0.0
-19.0,-14.0,-4.0,-26.0,-8.0,14.0,3.0,0.0,13.0,1.0,0.0
29.0,27.0,35.0,-4.0,2.0,22.0,3.0,19.0,44.0,38.0,0.0
75.0,67.0,43.0,-11.0,16.0,27.0,-1.0,36.0,72.0,79.0,0.0
126.0,100.0,65.0,1.0,33.0,26.0,-12.0,47.0,85.0,120.0,0.0
140.0,111.0,88.0,31.0,37.0,34.0,-4.0,42.0,80.0,122.0,0.0
118.0,100.0,83.0,58.0,43.0,37.0,-4.0,25.0,63.0,96.0,0.0
67.0,81.0,61.0,48.0,44.0,29.0,2.0,19.0,53.0,53.0,0.0
21.0,58.0,43.0,36.0,36.0,20.0,3.0,10.0,38.0,16.0,0.0
-15.0,27.0,21.0,18.0,17.0,-3.0,1.0,12.0,16.0,-12.0,0.0
-46.0,4.0,4.0,0.0,-5.0,-14.0,-6.0,5.0,-7.0,-37.0,0.0
-68.0,-22.0,-17.0,-24.0,-36.0,-32.0,-22.0,-14.0,-36.0,-55.0,0.0
-87.0,-49.0,-52.0,-41.0,-73.0,-54.0,-23.0,-36.0,-55.0,-76.0,0.0
-103.0,-71.0,-71.0,-69.0,-98.0,-70.0,-20.0,-38.0,-63.0,-73.0,0.0
-98.0,-72.0,-71.0,-78.0,-89.0,-74.0,-15.0,-45.0,-72.0,-75.0,0.0
-88.0,-73.0,-53.0,-69.0,-66.0,-67.0,-9.0,-37.0,-63.0,-75.0,0.0
-73.0,-56.0,-32.0,-59.0,-40.0,-58.0,3.0,-17.0,-48.0,-54.0,0.0
-41.0,-26.0,-16.0,-28.0,-7.0,-28.0,2.0,-5.0,-21.0,-30.0,0.0
5.0,3.0,8.0,-8.0,13.0,-7.0,0.0,17.0,3.0,-1.0,0.0
40.0,43.0,39.0,23.0,32.0,5.0,-2.0,30.0,26.0,7.0,0.0
65.0,70.0,73.0,48.0,51.0,38.0,4.0,44.0,42.0,19.0,0.0
93.0,81.0,81.0,56.0,66.0,50.0,13.0,61.0,48.0,34.0,0.0
104.0,88.0,87.0,62.0,73.0,59.0,5.0,65.0,60.0,46.0,0.0
81.0,76.0,75.0,49.0,74.0,54.0,-6.0,63.0,51.0,22.0,0.0
53.0,58.0,67.0,38.0,59.0,37.0,1.0,50.0,42.0,19.0,0.0
24.0,16.0,30.0,12.0,35.0,4.0,-7.0,28.0,31.0,89.0,0.0
-20.0,-19.0,-21.0,-23.0,-1.0,-24.0,-16.0,5.0,12.0,115.0,0.0
-36.0,-21.0,-33.0,-34.0,-34.0,-31.0,-14.0,2.0,-2.0,54.0,0.0
-50.0,-28.0,-44.0,-36.0,-60.0,-56.0,-6.0,-22.0,-18.0,6.0,0.0
-79.0,-45.0,-76.0,-53.0,-79.0,-72.0,-6.0,-37.0,-38.0,-25.0,0.0
-110.0,-65.0,-89.0,-77.0,-89.0,-65.0,-10.0,-39.0,-46.0,-44.0,0.0
-104.0,-65.0,-75.0,-65.0,-83.0,-49.0,-5.0,-47.0,-45.0,-49.0,0.0
-84.0,-51.0,-69.0,-39.0,-70.0,-36.0,0.0,-33.0,-56.0,-61.0,0.0
-77.0,-46.0,-46.0,-17.0,-43.0,-23.0,6.0,-23.0,-56.0,-50.0,0.0
-46.0,-19.0,-20.0,11.0,-10.0,-3.0,15.0,-11.0,-22.0,-7.0,0.0
9.0,5.0,8.0,31.0,18.0,19.0,12.0,14.0,14.0,29.0,0.0
58.0,40.0,30.0,49.0,36.0,37.0,-1.0,37.0,29.0,65.0,0.0
93.0,67.0,52.0,55.0,58.0,36.0,3.0,55.0,36.0,119.0,0.0
111.0,68.0,59.0,66.0,69.0,54.0,-3.0,64.0,52.0,164.0,0.0
118.0,71.0,73.0,60.0,64.0,53.0,-11.0,54.0,47.0,189.0,0.0
110.0,52.0,52.0,45.0,48.0,22.0,-19.0,32.0,27.0,181.0,0.0
78.0,24.0,25.0,30.0,30.0,6.0,-24.0,10.0,-5.0,89.0,0.0
44.0,20.0,19.0,26.0,14.0,-3.0,-33.0,-4.0,0.0,-28.0,0.0
28.0,10.0,-16.0,6.0,-11.0,-21.0,-21.0,-19.0,24.0,-80.0,0.0
8.0,-23.0,-48.0,-14.0,-35.0,-38.0,-19.0,-21.0,12.0,-72.0,0.0
-22.0,-39.0,-56.0,-32.0,-55.0,-51.0,-12.0,-24.0,-1.0,-52.0,0.0
-69.0,-60.0,-73.0,-52.0,-66.0,-52.0,3.0,-28.0,-25.0,-16.0,0.0
-110.0,-70.0,-93.0,-57.0,-69.0,-60.0,16.0,-36.0,-47.0,18.0,0.0
-106.0,-76.0,-82.0,-51.0,-58.0,-49.0,8.0,-39.0,-71.0,-39.0,0.0
-110.0,-64.0,-68.0,-48.0,-51.0,-37.0,0.0,-53.0,-108.0,-217.0,0.0
-90.0,-50.0,-63.0,-30.0,-32.0,-20.0,19.0,-41.0,-107.0,-262.0,0.0
-31.0,-31.0,-41.0,0.0,-5.0,5.0,19.0,-1.0,-47.0,-171.0,0.0
20.0,-6.0,-10.0,23.0,19.0,33.0,23.0,29.0,0.0,-101.0,0.0
71.0,17.0,10.0,35.0,38.0,51.0,33.0,47.0,24.0,-17.0,0.0
100.0,46.0,41.0,41.0,59.0,55.0,17.0,61.0,47.0,67.0,0.0
115.0,66.0,75.0,29.0,76.0,57.0,5.0,61.0,65.0,147.0,0.0
107.0,54.0,64.0,28.0,68.0,46.0,-3.0,62.0,67.0,220.0,0.0
69.0,40.0,44.0,22.0,57.0,37.0,-7.0,49.0,33.0,174.0,0.0
16.0,24.0,30.0,19.0,41.0,25.0,-12.0,25.0,-9.0,17.0,0.0
-14.0,6.0,16.0,3.0,6.0,-9.0,-21.0,-2.0,-53.0,-166.0,0.0
-28.0,-10.0,8.0,-26.0,-27.0,-32.0,-28.0,-13.0,-55.0,-197.0,0.0
-26.0,-28.0,-11.0,-53.0,-46.0,-47.0,-20.0,-7.0,-32.0,-172.0,0.0
-49.0,-42.0,-27.0,-68.0,-62.0,-59.0,-18.0,-11.0,-25.0,-161.0,0.0
-73.0,-69.0,-40.0,-72.0,-72.0,-70.0,-19.0,-17.0,-22.0,-139.0,0.0
-58.0,-71.0,-45.0,-56.0,-74.0,-66.0,-15.0,-4.0,-18.0,-73.0,0.0
-37.0,-52.0,-42.0,-44.0,-72.0,-63.0,-9.0,-11.0,-10.0,25.0,0.0
-41.0,-46.0,-36.0,-33.0,-62.0,-58.0,-9.0,-18.0,-4.0,124.0,0.0
-41.0,-21.0,-3.0,0.0,-25.0,-30.0,-5.0,-13.0,-26.0,65.0,0.0
-17.0,-3.0,15.0,24.0,8.0,6.0,-1.0,5.0,-67.0,-138.0,0.0
5.0,-1.0,20.0,41.0,46.0,30.0,1.0,25.0,-59.0,-225.0,0.0
35.0,25.0,59.0,66.0,72.0,52.0,15.0,43.0,-20.0,-125.0,0.0
60.0,46.0,80.0,81.0,84.0,70.0,10.0,58.0,18.0,5.0,0.0
70.0,64.0,84.0,70.0,89.0,79.0,8.0,65.0,25.0,77.0,0.0
89.0,65.0,83.0,57.0,82.0,71.0,9.0,56.0,26.0,89.0,0.0
80.0,48.0,73.0,35.0,61.0,42.0,16.0,45.0,30.0,127.0,0.0
38.0,21.0,54.0,14.0,41.0,17.0,13.0,31.0,25.0,129.0,0.0
-15.0,-6.0,6.0,9.0,4.0,-11.0,19.0,7.0,2.0,53.0,0.0
-71.0,-45.0,-23.0,-7.0,-30.0,-32.0,16.0,-16.0,-11.0,-65.0,0.0
-110.0,-73.0,-51.0,-47.0,-51.0,-58.0,9.0,-45.0,-23.0,-100.0,0.0
-139.0,-90.0,-70.0,-60.0,-67.0,-73.0,1.0,-64.0,-34.0,-76.0,0.0
-152.0,-116.0,-87.0,-75.0,-86.0,-76.0,-6.0,-62.0,-41.0,-78.0,0.0
-137.0,-122.0,-97.0,-76.0,-90.0,-76.0,-1.0,-41.0,-41.0,-60.0,0.0
-98.0,-98.0,-82.0,-64.0,-74.0,-49.0,20.0,-28.0,-21.0,-58.0,0.0
-43.0,-64.0,-46.0,-45.0,-49.0,-20.0,28.0,-8.0,-5.0,-54.0,0.0
15.0,-21.0,-11.0,-5.0,-23.0,-4.0,26.0,31.0,34.0,-22.0,0.0
65.0,29.0,24.0,53.0,13.0,24.0,27.0,57.0,57.0,28.0,0.0
113.0,59.0,60.0,84.0,57.0,44.0,21.0,58.0,61.0,121.0,0.0
155.0,92.0,89.0,93.0,80.0,62.0,14.0,63.0,64.0,245.0,0.0
160.0,118.0,102.0,107.0,89.0,68.0,15.0,52.0,46.0,242.0,0.0
102.0,103.0,90.0,115.0,84.0,72.0,6.0,31.0,-18.0,48.0,0.0
26.0,63.0,68.0,105.0,60.0,57.0,-10.0,8.0,-58.0,-157.0,0.0
1.0,41.0,56.0,90.0,47.0,48.0,0.0,18.0,-37.0,-92.0,0.0
-20.0,7.0,35.0,56.0,20.0,28.0,-16.0,12.0,-26.0,25.0,0.0
-78.0,-39.0,-23.0,-4.0,-24.0,-17.0,-44.0,-15.0,-21.0,-37.0,0.0
-113.0,-71.0,-51.0,-31.0,-51.0,-30.0,-36.0,-34.0,-27.0,-87.0,0.0
-122.0,-88.0,-62.0,-45.0,-60.0,-40.0,-17.0,-44.0,-42.0,-81.0,0.0
-125.0,-95.0,-66.0,-51.0,-70.0,-59.0,-8.0,-44.0,-55.0,-84.0,0.0
-121.0,-98.0,-62.0,-53.0,-69.0,-61.0,-6.0,-32.0,-60.0,-69.0,0.0
-101.0,-99.0,-43.0,-51.0,-57.0,-46.0,-10.0,-39.0,-62.0,-65.0,0.0
-76.0,-82.0,-31.0,-33.0,-45.0,-44.0,-2.0,-34.0,-49.0,-50.0,0.0
-40.0,-53.0,-10.0,-14.0,-21.0,-18.0,6.0,-12.0,-42.0,-25.0,0.0
-3.0,-39.0,32.0,9.0,3.0,13.0,12.0,4.0,-19.0,15.0,0.0
46.0,-12.0,65.0,37.0,20.0,33.0,3.0,23.0,6.0,55.0,0.0
89.0,23.0,81.0,61.0,43.0,53.0,3.0,29.0,26.0,98.0,0.0
129.0,66.0,88.0,69.0,51.0,74.0,9.0,45.0,72.0,116.0,0.0
135.0,84.0,94.0,80.0,55.0,84.0,7.0,51.0,79.0,126.0,0.0
112.0,90.0,91.0,83.0,50.0,79.0,7.0,49.0,60.0,121.0,0.0
89.0,73.0,88.0,66.0,48.0,65.0,10.0,35.0,31.0,91.0,0.0
59.0,56.0,75.0,44.0,36.0,47.0,0.0,9.0,19.0,58.0,0.0
17.0,24.0,45.0,26.0,14.0,21.0,0.0,-19.0,4.0,15.0,0.0
-23.0,-15.0,-9.0,0.0,-1.0,1.0,2.0,-36.0,-11.0,-17.0,0.0
-64.0,-37.0,-54.0,-20.0,-24.0,-18.0,2.0,-42.0,-16.0,-3.0,0.0
-92.0,-64.0,-74.0,-36.0,-44.0,-39.0,4.0,-48.0,-46.0,-16.0,0.0
-107.0,-91.0,-72.0,-44.0,-59.0,-52.0,10.0,-49.0,-64.0,-46.0,0.0
-108.0,-91.0,-73.0,-36.0,-55.0,-51.0,9.0,-48.0,-59.0,-60.0,0.0
-94.0,-82.0,-55.0,-23.0,-50.0,-46.0,4.0,-47.0,-35.0,-55.0,0.0
-68.0,-42.0,-37.0,-6.0,-35.0,-25.0,7.0,-27.0,11.0,-39.0,0.0
-39.0,-17.0,-18.0,1.0,-5.0,-1.0,9.0,-7.0,18.0,-17.0,0.0
-3.0,10.0,7.0,16.0,20.0,13.0,4.0,14.0,6.0,3.0,0.0
26.0,51.0,52.0,35.0,48.0,20.0,-5.0,21.0,23.0,17.0,0.0
65.0,71.0,71.0,50.0,64.0,42.0,-7.0,33.0,35.0,41.0,0.0
94.0,94.0,75.0,60.0,71.0,67.0,-8.0,40.0,36.0,60.0,0.0
108.0,97.0,69.0,69.0,71.0,73.0,-17.0,33.0,30.0,63.0,0.0
87.0,84.0,55.0,67.0,59.0,62.0,-16.0,16.0,18.0,59.0,0.0
77.0,62.0,38.0,38.0,36.0,48.0,-9.0,21.0,36.0,89.0,0.0
70.0,18.0,21.0,9.0,19.0,29.0,0.0,28.0,47.0,127.0,0.0
28.0,-4.0,2.0,-2.0,8.0,2.0,-2.0,5.0,24.0,80.0,0.0
-25.0,-30.0,-17.0,-9.0,-14.0,-11.0,-9.0,-10.0,-4.0,13.0,0.0
-72.0,-42.0,-34.0,-30.0,-27.0,-27.0,2.0,-22.0,-15.0,-22.0,0.0
-91.0,-64.0,-66.0,-52.0,-54.0,-47.0,16.0,-35.0,-23.0,-44.0,0.0
-101.0,-80.0,-78.0,-68.0,-65.0,-66.0,17.0,-50.0,-46.0,-61.0,0.0
-87.0,-67.0,-73.0,-76.0,-58.0,-64.0,14.0,-49.0,-56.0,-67.0,0.0
-72.0,-49.0,-60.0,-63.0,-43.0,-60.0,11.0,-46.0,-65.0,-59.0,0.0
-40.0,-23.0,-49.0,-38.0,-30.0,-45.0,11.0,-32.0,-59.0,-65.0,0.0
2.0,4.0,-16.0,-16.0,-5.0,-16.0,16.0,-18.0,-41.0,-53.0,0.0
31.0,37.0,14.0,9.0,22.0,7.0,18.0,-4.0,-23.0,-33.0,0.0
72.0,64.0,22.0,25.0,41.0,21.0,17.0,13.0,2.0,-7.0,0.0
118.0,78.0,53.0,30.0,54.0,27.0,19.0,31.0,20.0,34.0,0.0
155.0,83.0,68.0,47.0,73.0,44.0,11.0,34.0,33.0,68.0,0.0
165.0,97.0,65.0,42.0,72.0,44.0,1.0,38.0,54.0,125.0,0.0
160.0,89.0,50.0,28.0,46.0,20.0,-8.0,31.0,49.0,166.0,0.0
112.0,49.0,30.0,2.0,21.0,6.0,-22.0,23.0,43.0,166.0,0.0
49.0,5.0,2.0,-25.0,-10.0,-16.0,-19.0,9.0,27.0,144.0,0.0
8.0,-27.0,-17.0,-33.0,-22.0,-33.0,-4.0,-11.0,-11.0,57.0,0.0
-42.0,-41.0,-24.0,-40.0,-21.0,-32.0,-5.0,-15.0,-60.0,-49.0,0.0
-74.0,-49.0,-29.0,-51.0,-31.0,-37.0,-1.0,-35.0,-85.0,-116.0,0.0
-100.0,-67.0,-47.0,-57.0,-49.0,-57.0,-7.0,-42.0,-99.0,-158.0,0.0
-126.0,-77.0,-60.0,-63.0,-65.0,-59.0,-3.0,-46.0,-93.0,-175.0,0.0
-132.0,-69.0,-55.0,-61.0,-58.0,-49.0,9.0,-46.0,-67.0,-150.0,0.0
-117.0,-54.0,-52.0,-48.0,-57.0,-38.0,10.0,-33.0,-51.0,-117.0,0.0
-70.0,-18.0,-37.0,-32.0,-31.0,-20.0,5.0,-12.0,-45.0,-86.0,0.0
-17.0,18.0,-6.0,-12.0,0.0,1.0,18.0,6.0,-20.0,-59.0,0.0
27.0,37.0,11.0,23.0,18.0,18.0,32.0,16.0,10.0,-39.0,0.0
69.0,65.0,40.0,33.0,41.0,38.0,32.0,24.0,46.0,-12.0,0.0
116.0,83.0,66.0,43.0,61.0,54.0,20.0,47.0,64.0,8.0,0.0
137.0,110.0,70.0,61.0,66.0,58.0,13.0,59.0,79.0,21.0,0.0
140.0,110.0,65.0,55.0,62.0,52.0,10.0,54.0,88.0,-2.0,0.0
150.0,99.0,50.0,49.0,46.0,53.0,9.0,45.0,75.0,-1.0,0.0
127.0,78.0,36.0,31.0,16.0,29.0,2.0,30.0,60.0,76.0,0.0
47.0,21.0,2.0,-1.0,-7.0,1.0,-16.0,18.0,58.0,149.0,0.0
-28.0,-16.0,-24.0,-24.0,-17.0,-11.0,-7.0,2.0,38.0,231.0,0.0
-83.0,-48.0,-54.0,-49.0,-45.0,-21.0,-1.0,-17.0,16.0,229.0,0.0
-149.0,-87.0,-73.0,-67.0,-68.0,-30.0,-2.0,-25.0,-12.0,132.0,0.0
-185.0,-92.0,-74.0,-70.0,-64.0,-40.0,-2.0,-46.0,-78.0,11.0,0.0
-178.0,-83.0,-56.0,-48.0,-52.0,-48.0,0.0,-63.0,-118.0,-166.0,0.0
-155.0,-72.0,-51.0,-35.0,-37.0,-46.0,8.0,-55.0,-102.0,-277.0,0.0
-112.0,-58.0,-49.0,-30.0,-38.0,-43.0,9.0,-37.0,-65.0,-293.0,0.0
-57.0,-26.0,-32.0,-12.0,-17.0,-25.0,17.0,3.0,-19.0,-135.0,0.0
-4.0,12.0,-11.0,5.0,8.0,0.0,18.0,32.0,32.0,21.0,0.0
17.0,39.0,21.0,17.0,24.0,17.0,17.0,38.0,52.0,89.0,0.0
41.0,62.0,56.0,42.0,46.0,36.0,11.0,32.0,33.0,100.0,0.0
64.0,83.0,70.0,55.0,63.0,41.0,-4.0,16.0,13.0,50.0,0.0
79.0,87.0,71.0,62.0,56.0,39.0,-9.0,20.0,18.0,16.0,0.0
66.0,76.0,61.0,62.0,47.0,29.0,-12.0,25.0,15.0,32.0,0.0
51.0,53.0,42.0,40.0,39.0,5.0,-19.0,0.0,-6.0,-2.0,0.0
39.0,23.0,11.0,8.0,11.0,-11.0,-15.0,-9.0,-11.0,-36.0,0.0
8.0,1.0,-17.0,-4.0,-18.0,-24.0,-15.0,-6.0,-24.0,-22.0,0.0
-32.0,-9.0,-34.0,-21.0,-45.0,-40.0,-20.0,-22.0,-36.0,-39.0,0.0
-86.0,-39.0,-57.0,-49.0,-71.0,-55.0,-16.0,-36.0,-56.0,-119.0,0.0
-142.0,-73.0,-62.0,-76.0,-94.0,-73.0,-17.0,-48.0,-75.0,-189.0,0.0
-146.0,-98.0,-87.0,-98.0,-108.0,-93.0,-21.0,-49.0,-76.0,-196.0,0.0
-117.0,-96.0,-87.0,-91.0,-96.0,-92.0,-11.0,-52.0,-52.0,-126.0,0.0
-75.0,-68.0,-68.0,-79.0,-78.0,-73.0,0.0,-37.0,-32.0,-63.0,0.0
-37.0,-36.0,-37.0,-62.0,-60.0,-50.0,7.0,-16.0,-13.0,-12.0,0.0
8.0,-7.0,13.0,-36.0,-27.0,-12.0,15.0,6.0,20.0,46.0,0.0
45.0,11.0,36.0,-8.0,6.0,15.0,8.0,23.0,24.0,94.0,0.0
71.0,46.0,47.0,11.0,34.0,34.0,-3.0,48.0,26.0,134.0,0.0
77.0,71.0,72.0,25.0,59.0,55.0,-4.0,56.0,36.0,124.0,0.0
65.0,75.0,78.0,32.0,65.0,51.0,-7.0,57.0,55.0,77.0,0.0
40.0,54.0,66.0,17.0,56.0,49.0,-4.0,51.0,54.0,-2.0,0.0
36.0,35.0,55.0,23.0,43.0,36.0,-9.0,40.0,41.0,-32.0,0.0
48.0,32.0,48.0,29.0,40.0,14.0,-16.0,29.0,44.0,4.0,0.0
28.0,20.0,34.0,10.0,27.0,-4.0,-6.0,5.0,31.0,14.0,0.0
-5.0,-8.0,2.0,-6.0,0.0,-24.0,2.0,-8.0,11.0,-10.0,0.0
-31.0,-37.0,-31.0,-14.0,-21.0,-44.0,4.0,-24.0,-11.0,-53.0,0.0
-52.0,-60.0,-49.0,-36.0,-38.0,-67.0,7.0,-41.0,-24.0,-74.0,0.0
-58.0,-72.0,-64.0,-55.0,-64.0,-76.0,0.0,-50.0,-38.0,-84.0,0.0
-47.0,-72.0,-65.0,-67.0,-75.0,-77.0,-5.0,-55.0,-39.0,-90.0,0.0
-47.0,-67.0,-58.0,-54.0,-66.0,-61.0,-5.0,-44.0,-42.0,-63.0,0.0
-49.0,-59.0,-39.0,-42.0,-46.0,-46.0,8.0,-17.0,-38.0,-36.0,0.0
-25.0,-35.0,-10.0,-26.0,-25.0,-28.0,7.0,5.0,-25.0,-10.0,0.0
17.0,-3.0,12.0,-2.0,10.0,-13.0,-2.0,20.0,9.0,-2.0,0.0
44.0,28.0,23.0,26.0,29.0,19.0,1.0,32.0,33.0,18.0,0.0
74.0,51.0,46.0,43.0,49.0,37.0,6.0,50.0,43.0,59.0,0.0
123.0,63.0,58.0,58.0,66.0,52.0,6.0,55.0,61.0,90.0,0.0
159.0,75.0,66.0,67.0,79.0,67.0,6.0,58.0,66.0,104.0,0.0
133.0,60.0,62.0,65.0,70.0,64.0,-6.0,72.0,54.0,98.0,0.0
94.0,41.0,48.0,25.0,56.0,46.0,-17.0,53.0,39.0,74.0,0.0
55.0,30.0,47.0,-4.0,40.0,24.0,-9.0,26.0,32.0,36.0,0.0
23.0,2.0,36.0,-7.0,6.0,10.0,-3.0,8.0,21.0,17.0,0.0
-8.0,-14.0,5.0,-24.0,-25.0,6.0,-10.0,1.0,-7.0,6.0,0.0
-34.0,-43.0,-43.0,-53.0,-28.0,-18.0,-7.0,-4.0,-25.0,-13.0,0.0
-63.0,-74.0,-67.0,-71.0,-46.0,-36.0,-8.0,-32.0,-43.0,-38.0,0.0
-74.0,-88.0,-76.0,-74.0,-73.0,-47.0,-2.0,-59.0,-53.0,-54.0,0.0
-74.0,-72.0,-69.0,-51.0,-75.0,-59.0,1.0,-54.0,-53.0,-68.0,0.0
-61.0,-54.0,-48.0,-45.0,-57.0,-49.0,0.0,-44.0,-46.0,-73.0,0.0
-41.0,-36.0,-32.0,-29.0,-37.0,-27.0,11.0,-39.0,-38.0,-87.0,0.0
-8.0,-10.0,-12.0,-7.0,-22.0,0.0,14.0,-17.0,-29.0,-78.0,0.0
24.0,8.0,13.0,17.0,3.0,33.0,18.0,21.0,0.0,-74.0,0.0
43.0,32.0,46.0,50.0,40.0,56.0,22.0,36.0,23.0,-53.0,0.0
64.0,52.0,53.0,73.0,51.0,67.0,22.0,49.0,47.0,36.0,0.0
78.0,57.0,70.0,81.0,61.0,70.0,11.0,50.0,61.0,153.0,0.0
89.0,49.0,80.0,86.0,67.0,67.0,2.0,44.0,72.0,171.0,0.0
73.0,35.0,57.0,79.0,48.0,48.0,-13.0,15.0,68.0,161.0,0.0
42.0,21.0,38.0,46.0,30.0,25.0,-20.0,3.0,52.0,125.0,0.0
7.0,11.0,14.0,10.0,18.0,17.0,-21.0,0.0,15.0,77.0,0.0
-19.0,-1.0,-7.0,-25.0,-9.0,-13.0,-28.0,-13.0,-4.0,63.0,0.0
-51.0,-23.0,-19.0,-35.0,-46.0,-31.0,-27.0,-34.0,-14.0,36.0,0.0
-86.0,-53.0,-57.0,-43.0,-65.0,-36.0,-27.0,-39.0,-17.0,5.0,0.0
-96.0,-90.0,-91.0,-58.0,-77.0,-44.0,-16.0,-45.0,-26.0,-13.0,0.0
-89.0,-92.0,-104.0,-57.0,-94.0,-66.0,-15.0,-54.0,-37.0,-23.0,0.0
-84.0,-74.0,-101.0,-53.0,-77.0,-63.0,-2.0,-51.0,-38.0,-20.0,0.0
-65.0,-54.0,-82.0,-42.0,-57.0,-43.0,1.0,-35.0,-13.0,1.0,0.0
-30.0,-40.0,-49.0,-28.0,-53.0,-26.0,0.0,-16.0,8.0,66.0,0.0
4.0,-29.0,-16.0,3.0,-32.0,-7.0,-3.0,0.0,12.0,113.0,0.0
21.0,-2.0,8.0,31.0,2.0,13.0,-5.0,18.0,22.0,94.0,0.0
50.0,38.0,20.0,41.0,23.0,25.0,-9.0,34.0,39.0,53.0,0.0
94.0,68.0,46.0,62.0,46.0,36.0,-18.0,55.0,66.0,48.0,0.0
125.0,94.0,70.0,90.0,67.0,58.0,-22.0,64.0,76.0,68.0,0.0
121.0,101.0,69.0,97.0,64.0,60.0,-20.0,72.0,67.0,75.0,0.0
96.0,80.0,61.0,80.0,62.0,56.0,-11.0,68.0,59.0,105.0,0.0
61.0,52.0,46.0,59.0,55.0,37.0,-2.0,55.0,40.0,143.0,0.0
31.0,26.0,9.0,37.0,37.0,21.0,9.0,38.0,-1.0,64.0,0.0
-4.0,13.0,-19.0,5.0,1.0,-13.0,-2.0,-6.0,-60.0,-137.0,0.0
-29.0,-4.0,-39.0,-15.0,-27.0,-42.0,-9.0,-40.0,-76.0,-247.0,0.0
-47.0,-36.0,-53.0,-30.0,-40.0,-57.0,-5.0,-41.0,-74.0,-226.0,0.0
-74.0,-56.0,-62.0,-27.0,-45.0,-57.0,0.0,-39.0,-82.0,-219.0,0.0
-69.0,-61.0,-57.0,-31.0,-46.0,-60.0,5.0,-39.0,-86.0,-163.0,0.0
-56.0,-53.0,-50.0,-24.0,-43.0,-64.0,4.0,-31.0,-75.0,-63.0,0.0
-64.0,-64.0,-42.0,-23.0,-42.0,-52.0,4.0,-25.0,-44.0,1.0,0.0
-30.0,-52.0,-11.0,-6.0,-14.0,-28.0,12.0,-14.0,-9.0,64.0,0.0
6.0,-11.0,10.0,13.0,25.0,4.0,21.0,9.0,20.0,166.0,0.0
35.0,20.0,29.0,36.0,67.0,33.0,26.0,32.0,32.0,266.0,0.0
70.0,51.0,64.0,66.0,89.0,49.0,30.0,64.0,47.0,318.0,0.0
101.0,86.0,85.0,80.0,104.0,65.0,25.0,69.0,59.0,269.0,0.0
83.0,103.0,83.0,80.0,104.0,59.0,10.0,58.0,46.0,116.0,0.0
34.0,89.0,64.0,65.0,77.0,43.0,-16.0,31.0,4.0,-77.0,0.0
7.0,60.0,51.0,50.0,57.0,27.0,-24.0,5.0,-3.0,-251.0,0.0
4.0,34.0,46.0,34.0,33.0,27.0,-15.0,4.0,16.0,-203.0,0.0
-7.0,19.0,27.0,13.0,26.0,14.0,1.0,-4.0,22.0,-81.0,0.0
-34.0,-2.0,-10.0,-16.0,7.0,-3.0,6.0,-16.0,18.0,0.0,0.0
-83.0,-33.0,-38.0,-35.0,-27.0,-27.0,3.0,-27.0,-7.0,-11.0,0.0
-102.0,-61.0,-57.0,-66.0,-55.0,-58.0,1.0,-42.0,-46.0,-111.0,0.0
-106.0,-79.0,-74.0,-77.0,-67.0,-71.0,-5.0,-31.0,-56.0,-84.0,0.0
-120.0,-86.0,-89.0,-75.0,-61.0,-65.0,4.0,-28.0,-62.0,-49.0,0.0
-123.0,-72.0,-83.0,-71.0,-58.0,-65.0,2.0,-41.0,-86.0,-165.0,0.0
-87.0,-35.0,-39.0,-63.0,-49.0,-46.0,-1.0,-46.0,-83.0,-214.0,0.0
-28.0,12.0,-8.0,-38.0,-20.0,-19.0,2.0,-22.0,-45.0,-100.0,0.0
39.0,42.0,12.0,-11.0,12.0,2.0,4.0,6.0,-8.0,-33.0,0.0
86.0,74.0,53.0,9.0,39.0,17.0,7.0,26.0,23.0,-28.0,0.0
124.0,113.0,81.0,33.0,62.0,35.0,2.0,44.0,49.0,-27.0,0.0
151.0,122.0,92.0,52.0,79.0,50.0,0.0,62.0,70.0,-12.0,0.0
166.0,128.0,91.0,66.0,81.0,58.0,6.0,57.0,74.0,19.0,0.0
146.0,121.0,96.0,56.0,68.0,50.0,11.0,40.0,53.0,40.0,0.0
92.0,98.0,63.0,30.0,61.0,24.0,22.0,25.0,34.0,120.0,0.0
33.0,58.0,34.0,-3.0,36.0,16.0,26.0,18.0,35.0,209.0,0.0
-9.0,9.0,5.0,-21.0,-1.0,2.0,14.0,3.0,19.0,212.0,0.0
-44.0,-35.0,-50.0,-50.0,-41.0,-32.0,-11.0,-32.0,0.0,67.0,0.0
-69.0,-69.0,-79.0,-75.0,-76.0,-58.0,-22.0,-56.0,0.0,-55.0,0.0
-75.0,-79.0,-91.0,-85.0,-94.0,-79.0,-16.0,-55.0,-21.0,-29.0,0.0
-107.0,-87.0,-111.0,-91.0,-99.0,-94.0,-15.0,-52.0,-21.0,-16.0,0.0
-93.0,-90.0,-105.0,-76.0,-88.0,-90.0,-13.0,-51.0,-20.0,-7.0,0.0
-59.0,-68.0,-73.0,-54.0,-63.0,-66.0,-3.0,-39.0,-18.0,11.0,0.0
-35.0,-36.0,-55.0,-37.0,-44.0,-33.0,3.0,-23.0,-10.0,28.0,0.0
6.0,-11.0,-13.0,-8.0,-6.0,-4.0,4.0,-4.0,13.0,48.0,0.0
40.0,17.0,13.0,11.0,26.0,17.0,4.0,2.0,21.0,50.0,0.0
48.0,30.0,42.0,18.0,39.0,35.0,12.0,14.0,35.0,42.0,0.0
45.0,39.0,67.0,28.0,53.0,44.0,18.0,26.0,48.0,41.0,0.0
54.0,53.0,70.0,57.0,71.0,52.0,13.0,42.0,61.0,53.0,0.0
60.0,61.0,66.0,59.0,85.0,59.0,16.0,50.0,56.0,57.0,0.0
53.0,49.0,54.0,42.0,74.0,55.0,18.0,38.0,47.0,35.0,0.0
31.0,31.0,24.0,26.0,49.0,41.0,12.0,23.0,43.0,30.0,0.0
13.0,3.0,2.0,22.0,18.0,18.0,7.0,6.0,37.0,20.0,0.0
-10.0,-24.0,-30.0,2.0,-16.0,-10.0,0.0,-12.0,16.0,6.0,0.0
-39.0,-46.0,-49.0,-15.0,-42.0,-38.0,-3.0,-24.0,-4.0,-1.0,0.0
-65.0,-72.0,-61.0,-40.0,-61.0,-61.0,-2.0,-36.0,-18.0,-28.0,0.0
-78.0,-83.0,-76.0,-54.0,-80.0,-76.0,-9.0,-47.0,-30.0,-41.0,0.0
-83.0,-86.0,-77.0,-61.0,-85.0,-73.0,-9.0,-44.0,-32.0,-42.0,0.0
-83.0,-79.0,-76.0,-68.0,-70.0,-68.0,-11.0,-44.0,-27.0,-46.0,0.0
-64.0,-56.0,-77.0,-55.0,-53.0,-62.0,-15.0,-42.0,-10.0,-47.0,0.0
-23.0,-26.0,-45.0,-15.0,-18.0,-30.0,-6.0,-17.0,4.0,-40.0,0.0
6.0,-5.0,-11.0,25.0,21.0,12.0,-7.0,19.0,21.0,-9.0,0.0
37.0,17.0,14.0,59.0,47.0,25.0,-2.0,49.0,61.0,12.0,0.0
68.0,48.0,35.0,63.0,63.0,51.0,15.0,71.0,80.0,8.0,0.0
86.0,79.0,44.0,58.0,88.0,80.0,27.0,86.0,82.0,26.0,0.0
90.0,69.0,70.0,67.0,93.0,83.0,22.0,69.0,89.0,80.0,0.0
65.0,57.0,65.0,62.0,74.0,75.0,13.0,52.0,82.0,179.0,0.0
50.0,55.0,53.0,54.0,57.0,61.0,-11.0,39.0,60.0,262.0,0.0
43.0,23.0,17.0,35.0,36.0,36.0,-13.0,17.0,10.0,196.0,0.0
22.0,-20.0,-24.0,7.0,10.0,2.0,-22.0,-16.0,-53.0,22.0,0.0
-2.0,-34.0,-62.0,-19.0,-27.0,-37.0,-33.0,-31.0,-74.0,-45.0,0.0
-17.0,-54.0,-79.0,-33.0,-56.0,-51.0,-32.0,-32.0,-71.0,-8.0,0.0
-39.0,-75.0,-90.0,-53.0,-74.0,-62.0,-20.0,-39.0,-60.0,-9.0,0.0
-76.0,-82.0,-95.0,-64.0,-89.0,-62.0,-11.0,-34.0,-45.0,-55.0,0.0
-104.0,-88.0,-84.0,-67.0,-73.0,-55.0,-3.0,-37.0,-65.0,-117.0,0.0
-97.0,-70.0,-62.0,-68.0,-49.0,-42.0,2.0,-36.0,-65.0,-145.0,0.0
-87.0,-42.0,-39.0,-37.0,-26.0,-23.0,6.0,-25.0,-48.0,-143.0,0.0
-54.0,-15.0,-6.0,23.0,9.0,-5.0,15.0,1.0,-27.0,-117.0,0.0
-16.0,7.0,24.0,52.0,22.0,24.0,5.0,29.0,-14.0,-65.0,0.0
30.0,40.0,48.0,67.0,31.0,47.0,-4.0,42.0,18.0,-4.0,0.0
71.0,69.0,72.0,76.0,50.0,52.0,-14.0,50.0,32.0,46.0,0.0
112.0,90.0,82.0,84.0,69.0,58.0,-6.0,63.0,46.0,75.0,0.0
117.0,93.0,84.0,82.0,74.0,61.0,9.0,69.0,53.0,66.0,0.0
88.0,84.0,79.0,67.0,60.0,52.0,-2.0,65.0,40.0,38.0,0.0
63.0,70.0,60.0,47.0,51.0,36.0,-13.0,38.0,21.0,3.0,0.0
23.0,48.0,28.0,29.0,30.0,17.0,-5.0,23.0,8.0,-39.0,0.0
-12.0,20.0,9.0,7.0,-4.0,-2.0,2.0,14.0,-6.0,-93.0,0.0
-31.0,2.0,-13.0,-5.0,-30.0,-17.0,-4.0,0.0,-17.0,-122.0,0.0
-62.0,-17.0,-50.0,-33.0,-50.0,-26.0,-5.0,-9.0,-25.0,-109.0,0.0
-96.0,-59.0,-78.0,-53.0,-76.0,-48.0,5.0,-24.0,-25.0,-72.0,0.0
-105.0,-68.0,-85.0,-56.0,-89.0,-66.0,12.0,-38.0,-37.0,-39.0,0.0
-99.0,-52.0,-72.0,-53.0,-72.0,-70.0,12.0,-35.0,-51.0,-18.0,0.0
-78.0,-37.0,-49.0,-48.0,-71.0,-60.0,20.0,-20.0,-36.0,4.0,0.0
-45.0,-29.0,-24.0,-45.0,-55.0,-46.0,24.0,-8.0,-22.0,18.0,0.0
3.0,-9.0,4.0,-19.0,-20.0,-22.0,13.0,3.0,-1.0,2.0,0.0
51.0,31.0,28.0,5.0,1.0,6.0,1.0,34.0,9.0,-7.0,0.0
89.0,63.0,70.0,27.0,19.0,30.0,3.0,53.0,28.0,-15.0,0.0
123.0,90.0,96.0,49.0,39.0,38.0,-5.0,57.0,43.0,12.0,0.0
147.0,109.0,100.0,55.0,52.0,39.0,-21.0,47.0,41.0,82.0,0.0
138.0,112.0,86.0,53.0,58.0,38.0,-16.0,33.0,27.0,106.0,0.0
119.0,92.0,77.0,52.0,46.0,36.0,-8.0,27.0,22.0,121.0,0.0
76.0,57.0,63.0,48.0,31.0,23.0,-12.0,17.0,23.0,135.0,0.0
18.0,18.0,45.0,35.0,21.0,14.0,-26.0,0.0,-12.0,71.0,0.0
4.0,2.0,30.0,10.0,1.0,-12.0,-11.0,-6.0,-22.0,65.0,0.0
6.0,-11.0,-4.0,-21.0,-38.0,-34.0,4.0,-13.0,-26.0,79.0,0.0
-2.0,-22.0,-30.0,-59.0,-72.0,-57.0,7.0,-17.0,-29.0,40.0,0.0
-46.0,-51.0,-72.0,-76.0,-89.0,-83.0,10.0,-25.0,-44.0,-27.0,0.0
-77.0,-80.0,-95.0,-81.0,-87.0,-92.0,10.0,-35.0,-50.0,-110.0,0.0
-89.0,-81.0,-92.0,-76.0,-84.0,-87.0,4.0,-36.0,-44.0,-118.0,0.0
-62.0,-65.0,-78.0,-64.0,-74.0,-62.0,8.0,-20.0,-20.0,-59.0,0.0
-56.0,-45.0,-47.0,-44.0,-50.0,-46.0,10.0,-1.0,-6.0,-51.0,0.0
-53.0,-23.0,-4.0,-17.0,-18.0,-25.0,4.0,6.0,-6.0,-73.0,0.0
-56.0,3.0,25.0,-4.0,7.0,3.0,0.0,14.0,0.0,-89.0,0.0
-16.0,36.0,59.0,28.0,30.0,39.0,-10.0,32.0,22.0,-79.0,0.0
37.0,55.0,72.0,48.0,47.0,53.0,-17.0,52.0,47.0,-27.0,0.0
73.0,60.0,75.0,55.0,60.0,61.0,-9.0,56.0,56.0,-8.0,0.0
71.0,68.0,70.0,41.0,51.0,60.0,-1.0,45.0,60.0,0.0,0.0
67.0,73.0,66.0,29.0,40.0,37.0,0.0,26.0,50.0,22.0,0.0
45.0,36.0,61.0,11.0,23.0,21.0,8.0,8.0,48.0,15.0,0.0
15.0,-4.0,29.0,-14.0,-2.0,1.0,4.0,0.0,43.0,6.0,0.0
-19.0,-27.0,-19.0,-35.0,-36.0,-28.0,-7.0,-16.0,37.0,13.0,0.0
-55.0,-36.0,-37.0,-58.0,-62.0,-44.0,-13.0,-40.0,2.0,-7.0,0.0
-80.0,-51.0,-53.0,-71.0,-79.0,-58.0,-14.0,-52.0,-29.0,-79.0,0.0
-98.0,-72.0,-76.0,-70.0,-88.0,-70.0,-10.0,-62.0,-54.0,-120.0,0.0
-106.0,-77.0,-73.0,-65.0,-76.0,-76.0,-3.0,-62.0,-69.0,-110.0,0.0
-101.0,-65.0,-61.0,-56.0,-57.0,-60.0,0.0,-56.0,-67.0,-85.0,0.0
-71.0,-45.0,-35.0,-40.0,-51.0,-44.0,2.0,-37.0,-55.0,-53.0,0.0
-8.0,-7.0,-11.0,-11.0,-24.0,-22.0,4.0,-11.0,-28.0,-15.0,0.0
33.0,7.0,10.0,6.0,12.0,5.0,0.0,9.0,2.0,7.0,0.0
57.0,16.0,39.0,26.0,32.0,31.0,0.0,19.0,15.0,20.0,0.0
78.0,37.0,75.0,53.0,51.0,48.0,-2.0,29.0,33.0,38.0,0.0
89.0,55.0,81.0,63.0,73.0,59.0,-7.0,39.0,49.0,50.0,0.0
94.0,57.0,70.0,65.0,76.0,78.0,0.0,52.0,39.0,57.0,0.0
81.0,44.0,63.0,52.0,71.0,79.0,-3.0,46.0,38.0,53.0,0.0
53.0,33.0,54.0,34.0,67.0,63.0,-3.0,42.0,36.0,31.0,0.0
25.0,22.0,40.0,22.0,46.0,37.0,-1.0,17.0,21.0,5.0,0.0
7.0,3.0,8.0,-2.0,16.0,6.0,-5.0,-3.0,3.0,-9.0,0.0
-24.0,-26.0,-15.0,-20.0,1.0,-18.0,-12.0,-21.0,-26.0,-39.0,0.0
-53.0,-51.0,-38.0,-32.0,-27.0,-40.0,-7.0,-40.0,-51.0,-71.0,0.0
-81.0,-77.0,-68.0,-36.0,-45.0,-53.0,1.0,-47.0,-41.0,-121.0,0.0
-97.0,-84.0,-75.0,-47.0,-37.0,-53.0,0.0,-50.0,-18.0,-153.0,0.0
-78.0,-62.0,-64.0,-45.0,-33.0,-36.0,-5.0,-34.0,1.0,-101.0,0.0
-41.0,-42.0,-62.0,-43.0,-28.0,-19.0,-1.0,-2.0,21.0,57.0,0.0
8.0,-30.0,-45.0,-26.0,-8.0,1.0,11.0,16.0,40.0,208.0,0.0
29.0,-10.0,-17.0,-13.0,25.0,12.0,14.0,19.0,49.0,293.0,0.0
32.0,17.0,19.0,21.0,54.0,22.0,5.0,24.0,30.0,254.0,0.0
54.0,43.0,31.0,48.0,77.0,45.0,-3.0,27.0,-4.0,106.0,0.0
84.0,53.0,44.0,69.0,101.0,63.0,-6.0,30.0,-10.0,48.0,0.0
109.0,49.0,60.0,85.0,112.0,74.0,-10.0,35.0,-9.0,48.0,0.0
92.0,48.0,70.0,85.0,104.0,62.0,-9.0,41.0,3.0,40.0,0.0
61.0,46.0,68.0,71.0,90.0,49.0,-21.0,18.0,-24.0,-63.0,0.0
18.0,26.0,48.0,51.0,68.0,39.0,-24.0,-4.0,-58.0,-198.0,0.0
-20.0,-9.0,12.0,35.0,40.0,26.0,-26.0,-26.0,-45.0,-184.0,0.0
