channel0,channel1,channel2,channel3,channel4,channel5,channel6,channel7,channel8,channel9,true_locs
46.0,0.0,27.0,-11.0,-6.0,-61.0,49.0,-25.0,-22.0,22.0,0.0
65.0,28.0,27.0,-15.0,-8.0,-203.0,48.0,-9.0,-12.0,36.0,0.0
93.0,49.0,29.0,-29.0,0.0,-298.0,51.0,7.0,-7.0,38.0,0.0
98.0,31.0,16.0,-27.0,4.0,-347.0,34.0,4.0,-12.0,28.0,0.0
75.0,27.0,14.0,-10.0,8.0,-349.0,26.0,-6.0,-19.0,13.0,0.0
62.0,23.0,28.0,-10.0,14.0,-265.0,42.0,-17.0,-22.0,-4.0,0.0
67.0,28.0,57.0,-3.0,9.0,-75.0,58.0,-32.0,-34.0,-17.0,0.0
60.0,55.0,79.0,16.0,19.0,108.0,75.0,-56.0,-57.0,-29.0,0.0
38.0,37.0,69.0,52.0,35.0,205.0,79.0,-66.0,-76.0,-32.0,0.0
21.0,-3.0,27.0,52.0,30.0,203.0,74.0,-52.0,-47.0,-8.0,0.0
13.0,9.0,0.0,22.0,3.0,199.0,89.0,-18.0,-12.0,14.0,0.0
11.0,20.0,-27.0,6.0,-6.0,263.0,96.0,-9.0,7.0,20.0,0.0
61.0,69.0,-67.0,6.0,0.0,352.0,93.0,-7.0,14.0,-1.0,0.0
143.0,144.0,-22.0,22.0,4.0,409.0,128.0,-9.0,2.0,-21.0,0.0
195.0,166.0,42.0,31.0,3.0,348.0,147.0,-20.0,-1.0,-13.0,0.0
200.0,127.0,39.0,11.0,-4.0,228.0,120.0,-16.0,7.0,24.0,0.0
151.0,56.0,-65.0,-9.0,-15.0,87.0,102.0,7.0,60.0,60.0,0.0
87.0,42.0,-91.0,-9.0,-3.0,-90.0,71.0,22.0,101.0,43.0,0.0
21.0,42.0,13.0,0.0,-4.0,-221.0,37.0,0.0,58.0,-23.0,0.0
-99.0,-37.0,41.0,10.0,-3.0,-330.0,-16.0,3.0,16.0,-54.0,0.0
-148.0,-62.0,32.0,6.0,-10.0,-385.0,-50.0,10.0,23.0,-28.0,0.0
-98.0,-21.0,42.0,5.0,-23.0,-349.0,-40.0,18.0,38.0,24.0,0.0
-82.0,27.0,31.0,-7.0,-15.0,-222.0,-33.0,9.0,19.0,8.0,0.0
-110.0,42.0,25.0,-3.0,-12.0,-24.0,-36.0,5.0,2.0,-16.0,0.0
-76.0,7.0,-1.0,-14.0,-16.0,113.0,-25.0,34.0,5.0,0.0,0.0
2.0,-41.0,-37.0,-22.0,-15.0,158.0,-15.0,52.0,34.0,16.0,0.0
30.0,-68.0,-62.0,-44.0,-18.0,163.0,-11.0,43.0,34.0,24.0,0.0
12.0,-67.0,-64.0,-43.0,-34.0,199.0,0.0,16.0,9.0,4.0,0.0
-58.0,-81.0,-48.0,-20.0,-44.0,283.0,3.0,5.0,-14.0,-25.0,0.0
-119.0,-118.0,-29.0,-19.0,-36.0,348.0,-5.0,-7.0,-27.0,-20.0,0.0
-83.0,-67.0,1.0,-10.0,-35.0,335.0,4.0,-14.0,-37.0,-20.0,0.0
5.0,7.0,5.0,12.0,-19.0,234.0,10.0,-27.0,-40.0,-14.0,0.0
20.0,19.0,-9.0,23.0,0.0,113.0,-21.0,-32.0,-37.0,-28.0,0.0
-15.0,4.0,60.0,37.0,15.0,-20.0,-61.0,-25.0,-25.0,-43.0,0.0
-102.0,-51.0,72.0,45.0,9.0,-205.0,-129.0,-2.0,-12.0,-19.0,0.0
-122.0,-111.0,57.0,47.0,17.0,-333.0,-143.0,13.0,11.0,12.0,0.0
-95.0,-93.0,57.0,55.0,25.0,-416.0,-138.0,6.0,1.0,11.0,0.0
-87.0,-64.0,63.0,65.0,41.0,-441.0,-159.0,-8.0,-10.0,5.0,0.0
-67.0,-31.0,16.0,62.0,34.0,-373.0,-141.0,-4.0,-6.0,13.0,0.0
-35.0,-4.0,30.0,46.0,17.0,-188.0,-102.0,0.0,8.0,11.0,0.0
-19.0,16.0,53.0,44.0,13.0,3.0,-70.0,13.0,10.0,9.0,0.0
-4.0,0.0,-5.0,35.0,18.0,120.0,-49.0,18.0,11.0,11.0,0.0
9.0,8.0,-32.0,20.0,4.0,140.0,-39.0,24.0,23.0,16.0,0.0
30.0,-1.0,32.0,-1.0,-6.0,134.0,-27.0,35.0,36.0,19.0,0.0
37.0,-11.0,37.0,-7.0,-20.0,178.0,-3.0,38.0,26.0,8.0,0.0
36.0,-26.0,13.0,-10.0,-25.0,273.0,22.0,36.0,15.0,8.0,0.0
46.0,-52.0,-24.0,-15.0,-36.0,318.0,23.0,28.0,-17.0,14.0,0.0
52.0,-29.0,0.0,-14.0,-43.0,268.0,19.0,12.0,-38.0,15.0,0.0
55.0,-5.0,38.0,-6.0,-39.0,157.0,2.0,8.0,-34.0,10.0,0.0
47.0,-2.0,19.0,-10.0,-32.0,25.0,-8.0,21.0,-27.0,17.0,0.0
57.0,-7.0,5.0,-12.0,-35.0,-141.0,-36.0,16.0,-25.0,26.0,0.0
59.0,13.0,19.0,-19.0,-46.0,-285.0,-52.0,16.0,-23.0,21.0,0.0
57.0,34.0,34.0,-8.0,-53.0,-372.0,-52.0,13.0,-23.0,19.0,0.0
53.0,37.0,7.0,5.0,-53.0,-416.0,-54.0,-10.0,-40.0,28.0,0.0
57.0,45.0,36.0,4.0,-40.0,-409.0,-44.0,-29.0,-65.0,21.0,0.0
48.0,37.0,52.0,2.0,-15.0,-314.0,-19.0,-22.0,-48.0,18.0,0.0
28.0,7.0,50.0,12.0,-5.0,-119.0,22.0,-14.0,-22.0,18.0,0.0
3.0,21.0,30.0,9.0,-12.0,53.0,28.0,3.0,2.0,17.0,0.0
2.0,14.0,-65.0,0.0,-19.0,130.0,48.0,12.0,17.0,9.0,0.0
27.0,11.0,-17.0,-15.0,-25.0,143.0,49.0,7.0,16.0,-10.0,0.0
39.0,33.0,25.0,-12.0,-20.0,176.0,76.0,7.0,14.0,20.0,0.0
61.0,23.0,7.0,-12.0,-19.0,259.0,101.0,4.0,13.0,32.0,0.0
97.0,28.0,-9.0,-18.0,-11.0,324.0,96.0,5.0,16.0,25.0,0.0
121.0,55.0,-20.0,-21.0,-6.0,343.0,114.0,20.0,41.0,28.0,0.0
156.0,103.0,-7.0,-31.0,-9.0,259.0,135.0,19.0,50.0,26.0,0.0
163.0,131.0,4.0,-26.0,-5.0,147.0,127.0,18.0,50.0,22.0,0.0
145.0,112.0,0.0,-14.0,12.0,20.0,101.0,25.0,76.0,51.0,0.0
91.0,71.0,-25.0,-10.0,19.0,-148.0,64.0,39.0,90.0,100.0,0.0
13.0,54.0,-105.0,3.0,0.0,-294.0,30.0,46.0,95.0,129.0,0.0
-78.0,40.0,-122.0,24.0,-1.0,-398.0,-35.0,26.0,67.0,93.0,0.0
-113.0,40.0,16.0,60.0,8.0,-429.0,-77.0,18.0,38.0,50.0,0.0
-109.0,41.0,98.0,81.0,4.0,-390.0,-54.0,10.0,13.0,14.0,0.0
-89.0,51.0,100.0,67.0,-23.0,-266.0,-17.0,2.0,13.0,-2.0,0.0
-24.0,82.0,87.0,56.0,-47.0,-50.0,20.0,-12.0,9.0,0.0,0.0
37.0,86.0,77.0,47.0,-4.0,124.0,53.0,-19.0,0.0,14.0,0.0
51.0,76.0,48.0,22.0,39.0,200.0,87.0,-9.0,-6.0,21.0,0.0
-11.0,42.0,36.0,23.0,59.0,196.0,60.0,14.0,-14.0,3.0,0.0
-106.0,-29.0,6.0,26.0,96.0,201.0,12.0,42.0,33.0,30.0,0.0
-138.0,-12.0,13.0,9.0,59.0,294.0,-4.0,19.0,10.0,22.0,0.0
-139.0,51.0,54.0,15.0,30.0,345.0,-35.0,-9.0,-35.0,-31.0,0.0
-81.0,89.0,49.0,14.0,9.0,314.0,-29.0,9.0,-26.0,11.0,0.0
-2.0,141.0,50.0,21.0,8.0,216.0,-42.0,8.0,-19.0,41.0,0.0
43.0,166.0,45.0,25.0,0.0,97.0,-74.0,9.0,-20.0,27.0,0.0
104.0,143.0,49.0,16.0,-8.0,-55.0,-73.0,24.0,-1.0,14.0,0.0
170.0,87.0,27.0,0.0,-18.0,-174.0,-57.0,18.0,28.0,10.0,0.0
128.0,-8.0,-4.0,-5.0,-29.0,-284.0,-71.0,11.0,3.0,2.0,0.0
-16.0,-133.0,-32.0,-5.0,-15.0,-364.0,-128.0,17.0,-3.0,-29.0,0.0
-161.0,-268.0,-68.0,-13.0,-15.0,-377.0,-171.0,31.0,34.0,-1.0,0.0
-195.0,-285.0,-77.0,-29.0,-18.0,-321.0,-145.0,36.0,80.0,17.0,0.0
-178.0,-215.0,-60.0,-16.0,-12.0,-133.0,-97.0,24.0,63.0,-17.0,0.0
-167.0,-165.0,-52.0,-10.0,-10.0,77.0,-62.0,13.0,19.0,-43.0,0.0
-131.0,-145.0,-45.0,14.0,-7.0,181.0,-65.0,2.0,14.0,-29.0,0.0
-103.0,-120.0,-48.0,27.0,4.0,187.0,-59.0,-9.0,22.0,-13.0,0.0
-68.0,-89.0,-28.0,21.0,0.0,189.0,-30.0,-3.0,12.0,5.0,0.0
-36.0,-53.0,-11.0,8.0,-20.0,251.0,-15.0,-2.0,18.0,14.0,0.0
4.0,-40.0,-12.0,-4.0,-32.0,326.0,-12.0,-10.0,12.0,30.0,0.0
50.0,-23.0,-19.0,-12.0,-33.0,357.0,-2.0,-20.0,4.0,37.0,0.0
78.0,-3.0,-13.0,-13.0,-23.0,283.0,10.0,-27.0,22.0,44.0,0.0
78.0,15.0,-10.0,9.0,-19.0,159.0,-22.0,-23.0,3.0,32.0,0.0
75.0,8.0,-88.0,29.0,-25.0,46.0,-41.0,-16.0,-13.0,33.0,0.0
86.0,30.0,-47.0,29.0,-23.0,-114.0,-29.0,-17.0,-10.0,25.0,1.0
106.0,79.0,54.0,19.0,-20.0,-249.0,4.0,-29.0,-8.0,10.0,1.0
97.0,105.0,62.0,2.0,-21.0,-336.0,-2.0,-43.0,-29.0,11.0,1.0
106.0,95.0,26.0,13.0,-33.0,-384.0,-21.0,-42.0,-48.0,6.0,1.0
97.0,62.0,-85.0,13.0,-45.0,-365.0,-9.0,-39.0,-46.0,24.0,1.0
39.0,28.0,-58.0,6.0,-36.0,-279.0,8.0,-21.0,-35.0,15.0,1.0
-19.0,-2.0,64.0,15.0,-21.0,-88.0,4.0,-6.0,-28.0,0.0,1.0
-25.0,0.0,81.0,30.0,-21.0,82.0,35.0,-10.0,-25.0,-4.0,1.0
2.0,19.0,7.0,29.0,-20.0,168.0,60.0,-6.0,-18.0,9.0,1.0
10.0,29.0,1.0,15.0,-22.0,181.0,76.0,-8.0,-7.0,9.0,1.0
6.0,19.0,22.0,9.0,-23.0,191.0,81.0,5.0,20.0,25.0,1.0
7.0,-27.0,-15.0,5.0,-11.0,271.0,89.0,15.0,50.0,36.0,1.0
5.0,-22.0,-36.0,12.0,-8.0,350.0,99.0,4.0,62.0,30.0,1.0
-1.0,-26.0,15.0,11.0,0.0,337.0,93.0,0.0,64.0,26.0,1.0
-9.0,-27.0,38.0,23.0,17.0,244.0,92.0,7.0,55.0,26.0,1.0
4.0,20.0,51.0,17.0,10.0,146.0,62.0,7.0,32.0,31.0,1.0
28.0,20.0,1.0,3.0,-1.0,5.0,31.0,6.0,16.0,20.0,1.0
43.0,-8.0,-67.0,1.0,-2.0,-164.0,4.0,7.0,1.0,16.0,1.0
30.0,0.0,9.0,5.0,8.0,-286.0,2.0,11.0,21.0,25.0,0.0
12.0,30.0,50.0,21.0,15.0,-358.0,-9.0,17.0,16.0,37.0,0.0
2.0,29.0,55.0,14.0,0.0,-373.0,-32.0,18.0,25.0,39.0,0.0
-4.0,-20.0,34.0,-1.0,-19.0,-319.0,-37.0,6.0,17.0,28.0,0.0
7.0,-16.0,39.0,7.0,-12.0,-160.0,-6.0,3.0,-8.0,9.0,0.0
50.0,27.0,56.0,15.0,-21.0,32.0,17.0,-4.0,-20.0,-2.0,0.0
98.0,64.0,60.0,12.0,-42.0,160.0,56.0,-5.0,-22.0,12.0,0.0
95.0,58.0,63.0,16.0,-43.0,189.0,79.0,5.0,-24.0,18.0,0.0
40.0,16.0,68.0,25.0,-28.0,174.0,62.0,6.0,-41.0,-16.0,0.0
-28.0,-15.0,-12.0,50.0,-12.0,221.0,24.0,-3.0,-58.0,-57.0,0.0
-35.0,-4.0,-99.0,53.0,0.0,294.0,19.0,-10.0,-53.0,-48.0,0.0
-11.0,8.0,-63.0,43.0,-7.0,333.0,21.0,4.0,-38.0,-24.0,0.0
6.0,2.0,26.0,24.0,-13.0,296.0,15.0,6.0,-33.0,-14.0,0.0
46.0,-2.0,26.0,0.0,-20.0,202.0,-1.0,1.0,-36.0,-7.0,0.0
66.0,12.0,21.0,-11.0,-36.0,91.0,-20.0,6.0,-27.0,10.0,0.0
66.0,27.0,10.0,-13.0,-30.0,-65.0,-60.0,15.0,-12.0,38.0,0.0
61.0,28.0,0.0,-11.0,-13.0,-213.0,-73.0,24.0,-13.0,32.0,0.0
47.0,10.0,-19.0,-9.0,-5.0,-333.0,-64.0,28.0,15.0,36.0,0.0
16.0,-8.0,-11.0,-9.0,-7.0,-390.0,-83.0,18.0,24.0,30.0,0.0
-24.0,-1.0,11.0,-7.0,-6.0,-381.0,-100.0,4.0,1.0,-1.0,0.0
-48.0,5.0,10.0,17.0,-6.0,-314.0,-83.0,4.0,25.0,-14.0,0.0
-57.0,23.0,28.0,32.0,-5.0,-115.0,-34.0,-2.0,33.0,-2.0,0.0
-46.0,23.0,73.0,39.0,-14.0,69.0,-6.0,-22.0,21.0,-18.0,0.0
-20.0,27.0,111.0,42.0,-18.0,147.0,-15.0,-36.0,18.0,-40.0,0.0
7.0,36.0,94.0,44.0,-18.0,180.0,-9.0,-45.0,14.0,-24.0,0.0
34.0,39.0,65.0,44.0,-14.0,190.0,10.0,-21.0,23.0,5.0,0.0
35.0,4.0,63.0,41.0,6.0,256.0,9.0,-2.0,29.0,-5.0,0.0
5.0,-1.0,55.0,35.0,4.0,359.0,39.0,2.0,11.0,-10.0,0.0
-20.0,15.0,6.0,34.0,0.0,391.0,34.0,4.0,19.0,-10.0,0.0
-27.0,28.0,-80.0,26.0,-7.0,304.0,5.0,7.0,23.0,-9.0,0.0
-18.0,16.0,-49.0,27.0,-17.0,207.0,1.0,6.0,-2.0,-16.0,0.0
0.0,-4.0,27.0,20.0,-26.0,79.0,9.0,-2.0,-16.0,-9.0,0.0
16.0,-14.0,25.0,4.0,-30.0,-109.0,-13.0,-13.0,-22.0,0.0,0.0
25.0,-1.0,-53.0,-9.0,-27.0,-255.0,-43.0,-19.0,-18.0,4.0,0.0
50.0,13.0,-19.0,-14.0,-31.0,-343.0,-44.0,-26.0,-20.0,13.0,0.0
67.0,28.0,-2.0,-5.0,-31.0,-371.0,-50.0,-21.0,-26.0,14.0,0.0
71.0,17.0,6.0,-10.0,-7.0,-344.0,-66.0,-12.0,-31.0,2.0,0.0
70.0,-12.0,36.0,-21.0,-11.0,-230.0,-35.0,2.0,-33.0,6.0,0.0
46.0,-31.0,9.0,-51.0,-29.0,-26.0,10.0,12.0,-19.0,33.0,0.0
16.0,-37.0,-21.0,-69.0,-46.0,123.0,15.0,31.0,3.0,56.0,0.0
1.0,-13.0,-14.0,-68.0,-52.0,176.0,25.0,35.0,11.0,55.0,0.0
-10.0,24.0,12.0,-57.0,-51.0,170.0,35.0,26.0,-2.0,15.0,0.0
0.0,29.0,15.0,-29.0,-26.0,189.0,59.0,18.0,9.0,16.0,0.0
28.0,9.0,-3.0,-32.0,-20.0,269.0,81.0,19.0,36.0,26.0,0.0
37.0,4.0,0.0,-9.0,-7.0,349.0,84.0,10.0,46.0,22.0,0.0
38.0,30.0,11.0,43.0,22.0,325.0,74.0,0.0,33.0,6.0,0.0
52.0,43.0,-14.0,60.0,31.0,213.0,64.0,23.0,46.0,27.0,0.0
73.0,48.0,22.0,40.0,17.0,117.0,59.0,36.0,60.0,39.0,0.0
95.0,65.0,45.0,27.0,7.0,-13.0,60.0,18.0,37.0,3.0,0.0
90.0,71.0,53.0,42.0,27.0,-165.0,35.0,-3.0,2.0,-23.0,0.0
60.0,8.0,11.0,42.0,35.0,-293.0,-14.0,0.0,-4.0,-19.0,0.0
2.0,-24.0,14.0,43.0,55.0,-366.0,-16.0,6.0,8.0,1.0,0.0
-27.0,-6.0,49.0,59.0,72.0,-390.0,-51.0,11.0,-12.0,6.0,0.0
-65.0,-1.0,38.0,59.0,56.0,-356.0,-91.0,10.0,-32.0,-4.0,0.0
-88.0,20.0,-23.0,48.0,27.0,-195.0,-103.0,-7.0,-50.0,-32.0,0.0
-100.0,31.0,3.0,37.0,17.0,-25.0,-63.0,-1.0,-36.0,-18.0,0.0
-50.0,26.0,40.0,17.0,13.0,94.0,-14.0,17.0,-1.0,30.0,0.0
90.0,38.0,29.0,1.0,4.0,174.0,21.0,6.0,2.0,46.0,0.0
240.0,56.0,14.0,-19.0,0.0,238.0,95.0,-10.0,-37.0,4.0,0.0
308.0,53.0,-1.0,-10.0,10.0,300.0,160.0,-10.0,-59.0,-24.0,0.0
261.0,26.0,-16.0,-26.0,14.0,379.0,179.0,3.0,-34.0,-7.0,0.0
160.0,5.0,-45.0,-45.0,-1.0,406.0,135.0,29.0,3.0,48.0,0.0
42.0,-2.0,-47.0,-44.0,-3.0,324.0,79.0,24.0,-8.0,26.0,0.0
-59.0,-20.0,-45.0,-14.0,6.0,188.0,27.0,23.0,-28.0,-19.0,0.0
-172.0,-59.0,-7.0,13.0,22.0,42.0,-27.0,19.0,-27.0,-57.0,0.0
-202.0,-76.0,17.0,6.0,12.0,-117.0,-69.0,21.0,-4.0,-47.0,0.0
-176.0,-52.0,14.0,3.0,-24.0,-239.0,-49.0,22.0,16.0,-35.0,0.0
-148.0,-23.0,18.0,11.0,-42.0,-333.0,-29.0,31.0,20.0,-18.0,0.0
-136.0,-46.0,13.0,13.0,-38.0,-386.0,-57.0,36.0,45.0,-18.0,0.0
-112.0,-36.0,23.0,12.0,-39.0,-379.0,-52.0,28.0,36.0,-44.0,0.0
-77.0,-15.0,19.0,6.0,-52.0,-282.0,-17.0,21.0,41.0,-30.0,0.0
-42.0,-21.0,-1.0,5.0,-23.0,-72.0,42.0,18.0,42.0,-12.0,0.0
-36.0,-43.0,-34.0,0.0,46.0,85.0,79.0,9.0,46.0,-22.0,0.0
-16.0,-46.0,-91.0,-10.0,24.0,156.0,108.0,11.0,27.0,-18.0,0.0
-3.0,-18.0,-69.0,-16.0,-17.0,171.0,113.0,16.0,30.0,1.0,0.0
0.0,7.0,-4.0,-25.0,-41.0,195.0,96.0,21.0,29.0,8.0,0.0
-3.0,33.0,17.0,-16.0,-48.0,275.0,102.0,26.0,40.0,11.0,0.0
1.0,39.0,38.0,10.0,-30.0,336.0,98.0,24.0,57.0,17.0,0.0
25.0,39.0,41.0,15.0,-32.0,336.0,99.0,4.0,33.0,9.0,0.0
76.0,22.0,31.0,-6.0,-48.0,235.0,109.0,-7.0,6.0,17.0,0.0
118.0,22.0,25.0,-21.0,-57.0,127.0,97.0,-4.0,-4.0,25.0,0.0
115.0,30.0,14.0,-36.0,-58.0,1.0,73.0,-8.0,-27.0,11.0,0.0
51.0,-14.0,-9.0,-37.0,-55.0,-154.0,34.0,-6.0,-40.0,3.0,0.0
-8.0,-39.0,-26.0,-28.0,-49.0,-288.0,-8.0,-1.0,-32.0,-16.0,0.0
-14.0,6.0,-40.0,-11.0,-49.0,-358.0,-30.0,10.0,-10.0,-32.0,0.0
-3.0,16.0,-32.0,-6.0,-48.0,-385.0,-43.0,10.0,-12.0,-28.0,0.0
4.0,-7.0,-80.0,-2.0,-48.0,-351.0,-34.0,10.0,-26.0,-9.0,0.0
-10.0,-46.0,-58.0,-16.0,-54.0,-208.0,-31.0,26.0,-8.0,3.0,0.0
-40.0,-72.0,-25.0,-37.0,-79.0,-27.0,-17.0,56.0,18.0,34.0,0.0
-81.0,-47.0,-18.0,-16.0,-52.0,70.0,-9.0,59.0,2.0,25.0,0.0
-68.0,9.0,-3.0,19.0,42.0,117.0,10.0,37.0,-10.0,-8.0,0.0
-41.0,31.0,-5.0,19.0,65.0,120.0,22.0,21.0,-19.0,1.0,0.0
27.0,44.0,-8.0,5.0,22.0,153.0,76.0,15.0,-10.0,37.0,0.0
83.0,58.0,-42.0,6.0,0.0,233.0,125.0,10.0,6.0,44.0,0.0
147.0,101.0,21.0,17.0,2.0,308.0,166.0,-11.0,-1.0,12.0,0.0
175.0,101.0,26.0,22.0,-1.0,311.0,183.0,-26.0,-10.0,-14.0,0.0
140.0,40.0,-81.0,-1.0,-24.0,224.0,138.0,-29.0,8.0,-11.0,0.0
38.0,-6.0,-43.0,-2.0,-4.0,123.0,73.0,-20.0,27.0,-9.0,0.0
11.0,18.0,53.0,18.0,13.0,-35.0,53.0,-10.0,24.0,-11.0,0.0
25.0,20.0,48.0,18.0,13.0,-195.0,47.0,-3.0,46.0,15.0,0.0
-37.0,-30.0,21.0,18.0,5.0,-321.0,-1.0,15.0,70.0,31.0,0.0
-154.0,-111.0,-45.0,34.0,25.0,-418.0,-80.0,32.0,79.0,2.0,0.0
-155.0,-96.0,-75.0,34.0,30.0,-415.0,-103.0,21.0,58.0,-28.0,0.0
-96.0,-58.0,13.0,30.0,17.0,-338.0,-73.0,5.0,41.0,-19.0,0.0
-35.0,-38.0,34.0,30.0,6.0,-146.0,-22.0,3.0,19.0,-14.0,0.0
18.0,-15.0,30.0,28.0,10.0,33.0,18.0,-1.0,17.0,-12.0,0.0
43.0,-21.0,16.0,29.0,25.0,128.0,50.0,12.0,40.0,11.0,0.0
51.0,-55.0,-2.0,25.0,27.0,149.0,64.0,21.0,44.0,25.0,0.0
50.0,-34.0,-9.0,3.0,11.0,178.0,74.0,15.0,34.0,14.0,0.0
4.0,-18.0,-35.0,-8.0,5.0,231.0,88.0,25.0,29.0,11.0,0.0
-16.0,-34.0,-33.0,-9.0,-10.0,294.0,75.0,31.0,21.0,6.0,0.0
-7.0,-24.0,-24.0,-17.0,-24.0,322.0,65.0,30.0,9.0,6.0,0.0
4.0,-4.0,-32.0,-31.0,-28.0,240.0,65.0,32.0,13.0,22.0,0.0
-4.0,-12.0,-42.0,-38.0,-26.0,127.0,45.0,30.0,13.0,19.0,0.0
-23.0,-19.0,-50.0,-27.0,-5.0,7.0,9.0,23.0,-10.0,-1.0,0.0
-17.0,-11.0,-35.0,-16.0,6.0,-136.0,-21.0,25.0,-5.0,13.0,0.0
0.0,2.0,-37.0,-16.0,7.0,-261.0,-44.0,30.0,28.0,29.0,0.0
13.0,11.0,-17.0,-8.0,19.0,-358.0,-51.0,22.0,12.0,42.0,0.0
16.0,12.0,21.0,0.0,10.0,-414.0,-55.0,-1.0,0.0,51.0,0.0
4.0,3.0,55.0,26.0,24.0,-385.0,-66.0,-17.0,-18.0,16.0,0.0
-6.0,10.0,99.0,55.0,34.0,-249.0,-59.0,-29.0,-40.0,-7.0,0.0
-12.0,36.0,64.0,63.0,19.0,-49.0,-18.0,-37.0,-19.0,-16.0,0.0
-15.0,38.0,15.0,71.0,17.0,110.0,11.0,-40.0,-21.0,-25.0,0.0
-3.0,33.0,-41.0,55.0,10.0,156.0,-6.0,-36.0,-17.0,-19.0,0.0
14.0,26.0,-66.0,27.0,5.0,151.0,-11.0,-14.0,0.0,-3.0,0.0
47.0,29.0,9.0,23.0,-6.0,174.0,-25.0,3.0,21.0,12.0,0.0
70.0,34.0,63.0,21.0,-16.0,257.0,-11.0,5.0,34.0,15.0,0.0
82.0,44.0,59.0,7.0,-19.0,325.0,12.0,3.0,49.0,27.0,0.0
70.0,49.0,57.0,13.0,-16.0,306.0,5.0,0.0,53.0,21.0,0.0
73.0,54.0,54.0,17.0,-6.0,204.0,-15.0,0.0,42.0,7.0,0.0
75.0,52.0,48.0,12.0,4.0,103.0,-37.0,-4.0,32.0,16.0,0.0
74.0,71.0,48.0,11.0,8.0,-38.0,-67.0,-2.0,26.0,22.0,0.0
86.0,101.0,59.0,14.0,-2.0,-197.0,-76.0,-23.0,16.0,12.0,0.0
68.0,94.0,61.0,28.0,12.0,-304.0,-90.0,-32.0,23.0,4.0,0.0
35.0,48.0,58.0,60.0,37.0,-363.0,-120.0,-24.0,23.0,0.0,0.0
29.0,9.0,49.0,57.0,22.0,-385.0,-105.0,-2.0,27.0,11.0,0.0
34.0,-4.0,33.0,39.0,1.0,-331.0,-94.0,-7.0,27.0,20.0,0.0
12.0,-12.0,7.0,29.0,-16.0,-175.0,-98.0,-28.0,-3.0,-13.0,0.0
-3.0,0.0,18.0,18.0,-19.0,19.0,-86.0,-21.0,-13.0,-27.0,0.0
7.0,5.0,-73.0,4.0,-22.0,141.0,-41.0,-9.0,5.0,5.0,0.0
2.0,-11.0,-94.0,0.0,-27.0,160.0,-28.0,0.0,31.0,47.0,0.0
-5.0,0.0,2.0,-5.0,-22.0,153.0,-10.0,10.0,20.0,35.0,0.0
-13.0,12.0,30.0,0.0,-22.0,199.0,-12.0,8.0,-7.0,12.0,0.0
3.0,16.0,22.0,-2.0,-24.0,288.0,-10.0,19.0,-12.0,0.0,0.0
-5.0,11.0,10.0,8.0,-2.0,332.0,2.0,12.0,-16.0,-9.0,0.0
-20.0,10.0,-6.0,12.0,14.0,268.0,-28.0,2.0,-31.0,-30.0,0.0
-3.0,8.0,-54.0,-6.0,3.0,151.0,-68.0,-9.0,-59.0,-43.0,0.0
26.0,-6.0,-54.0,-48.0,-18.0,51.0,-59.0,-15.0,-43.0,-32.0,0.0
31.0,20.0,-41.0,-57.0,-20.0,-106.0,-80.0,-18.0,-38.0,0.0,0.0
43.0,50.0,-23.0,-43.0,-7.0,-270.0,-95.0,-5.0,-20.0,28.0,0.0
67.0,58.0,-19.0,-47.0,1.0,-373.0,-81.0,5.0,-3.0,55.0,0.0
73.0,21.0,-32.0,-52.0,-2.0,-431.0,-71.0,15.0,-4.0,61.0,0.0
91.0,-12.0,-50.0,-36.0,-9.0,-418.0,-40.0,20.0,6.0,53.0,0.0
102.0,-30.0,-38.0,-25.0,-25.0,-296.0,-28.0,6.0,-4.0,40.0,0.0
43.0,-59.0,-8.0,-15.0,-52.0,-84.0,-13.0,-6.0,-33.0,9.0,0.0
-41.0,-45.0,26.0,6.0,-48.0,94.0,1.0,-5.0,-17.0,-13.0,0.0
-61.0,-13.0,47.0,5.0,-31.0,163.0,21.0,7.0,27.0,-5.0,0.0
-49.0,-11.0,38.0,9.0,-35.0,159.0,12.0,44.0,77.0,35.0,0.0
-70.0,-3.0,48.0,19.0,-31.0,156.0,4.0,46.0,110.0,53.0,0.0
-126.0,5.0,69.0,59.0,36.0,221.0,1.0,1.0,53.0,-17.0,0.0
-144.0,5.0,71.0,78.0,99.0,291.0,1.0,-25.0,7.0,-64.0,0.0
-97.0,25.0,52.0,49.0,57.0,297.0,23.0,-11.0,5.0,-33.0,0.0
-71.0,34.0,18.0,25.0,19.0,210.0,33.0,3.0,11.0,-7.0,0.0
-51.0,39.0,-59.0,10.0,11.0,103.0,15.0,3.0,15.0,-7.0,0.0
-29.0,21.0,-75.0,0.0,9.0,-20.0,-16.0,2.0,-1.0,-5.0,0.0
-34.0,-2.0,9.0,0.0,14.0,-188.0,-45.0,2.0,-6.0,-5.0,0.0
-39.0,-11.0,29.0,0.0,27.0,-324.0,-56.0,15.0,-5.0,4.0,0.0
-16.0,-1.0,21.0,0.0,36.0,-410.0,-77.0,21.0,-4.0,12.0,0.0
-4.0,31.0,31.0,3.0,46.0,-418.0,-75.0,79.0,8.0,13.0,0.0
-16.0,30.0,21.0,-4.0,26.0,-400.0,-55.0,47.0,-17.0,10.0,0.0
-36.0,12.0,1.0,-3.0,13.0,-243.0,-27.0,4.0,-30.0,16.0,0.0
17.0,12.0,-38.0,-8.0,4.0,-19.0,33.0,-13.0,-42.0,23.0,0.0
55.0,29.0,-102.0,-15.0,-1.0,127.0,76.0,-27.0,-48.0,19.0,0.0
45.0,22.0,-30.0,-6.0,3.0,173.0,81.0,-31.0,-49.0,20.0,0.0
9.0,-5.0,-80.0,6.0,18.0,176.0,73.0,-5.0,-18.0,41.0,0.0
-58.0,-50.0,-119.0,-2.0,26.0,192.0,40.0,36.0,35.0,55.0,0.0
-102.0,-39.0,-9.0,-4.0,31.0,261.0,34.0,24.0,27.0,4.0,0.0
-77.0,15.0,56.0,2.0,25.0,340.0,51.0,-3.0,0.0,-58.0,0.0
0.0,62.0,57.0,-11.0,13.0,341.0,62.0,-18.0,2.0,-57.0,0.0
124.0,88.0,39.0,-11.0,0.0,266.0,69.0,-22.0,0.0,-49.0,0.0
154.0,91.0,29.0,-9.0,5.0,156.0,66.0,-8.0,2.0,-38.0,0.0
105.0,64.0,18.0,4.0,18.0,-15.0,22.0,19.0,20.0,5.0,0.0
39.0,1.0,-19.0,15.0,16.0,-201.0,-34.0,24.0,42.0,50.0,0.0
-19.0,-26.0,-74.0,6.0,14.0,-342.0,-99.0,-1.0,38.0,67.0,0.0
-47.0,-6.0,2.0,13.0,8.0,-415.0,-111.0,-23.0,6.0,34.0,0.0
1.0,28.0,45.0,12.0,3.0,-408.0,-72.0,-24.0,-18.0,6.0,0.0
63.0,72.0,42.0,7.0,6.0,-326.0,-47.0,-47.0,-43.0,-20.0,0.0
38.0,55.0,28.0,14.0,15.0,-147.0,-14.0,-42.0,-30.0,-55.0,0.0
-25.0,10.0,-15.0,9.0,19.0,20.0,6.0,-13.0,-23.0,-56.0,0.0
-68.0,-11.0,-37.0,0.0,33.0,103.0,16.0,13.0,-13.0,-24.0,0.0
-85.0,-20.0,-60.0,6.0,42.0,118.0,6.0,18.0,-9.0,0.0,0.0
-96.0,-23.0,-134.0,-14.0,19.0,126.0,-19.0,17.0,14.0,5.0,0.0
-102.0,5.0,-40.0,-22.0,8.0,181.0,-21.0,13.0,3.0,-24.0,0.0
-71.0,28.0,26.0,-11.0,8.0,271.0,11.0,0.0,-15.0,-40.0,0.0
-57.0,22.0,25.0,-10.0,13.0,309.0,17.0,3.0,-14.0,-26.0,0.0
-93.0,-31.0,13.0,-18.0,6.0,213.0,-23.0,29.0,-10.0,-2.0,0.0
-132.0,-87.0,6.0,-17.0,25.0,95.0,-47.0,52.0,2.0,11.0,0.0
-94.0,-108.0,8.0,-8.0,41.0,-26.0,-68.0,40.0,-7.0,15.0,0.0
12.0,-79.0,20.0,11.0,18.0,-175.0,-38.0,17.0,-19.0,-1.0,0.0
48.0,-54.0,31.0,30.0,5.0,-308.0,-18.0,1.0,-31.0,-12.0,0.0
35.0,-39.0,46.0,44.0,9.0,-402.0,-4.0,-5.0,-21.0,-7.0,0.0
15.0,-23.0,45.0,38.0,9.0,-420.0,-11.0,-15.0,-30.0,0.0,0.0
17.0,14.0,24.0,25.0,-5.0,-385.0,-13.0,-25.0,-21.0,2.0,0.0
-12.0,42.0,66.0,38.0,-1.0,-260.0,-4.0,-32.0,-7.0,4.0,0.0
-45.0,34.0,76.0,36.0,7.0,-50.0,0.0,-30.0,8.0,8.0,0.0
-52.0,26.0,56.0,35.0,10.0,109.0,28.0,-20.0,19.0,-3.0,0.0
-33.0,13.0,22.0,33.0,14.0,181.0,43.0,-22.0,19.0,-17.0,0.0
-13.0,-11.0,-80.0,15.0,16.0,188.0,55.0,-18.0,12.0,-28.0,0.0
-5.0,-38.0,-60.0,-2.0,10.0,211.0,82.0,0.0,42.0,-14.0,0.0
6.0,-52.0,-11.0,-19.0,1.0,293.0,79.0,14.0,62.0,18.0,0.0
-2.0,-36.0,-13.0,-30.0,-9.0,365.0,76.0,38.0,67.0,70.0,0.0
-10.0,-16.0,-85.0,-36.0,-24.0,356.0,71.0,53.0,84.0,107.0,0.0
-13.0,-2.0,-131.0,-35.0,-17.0,251.0,52.0,53.0,89.0,118.0,0.0
-16.0,-1.0,-101.0,-35.0,-5.0,137.0,22.0,38.0,56.0,90.0,0.0
-18.0,12.0,-40.0,-11.0,4.0,-24.0,-6.0,32.0,28.0,29.0,0.0
12.0,29.0,45.0,30.0,8.0,-173.0,-24.0,0.0,0.0,-11.0,0.0
116.0,95.0,63.0,42.0,2.0,-248.0,-15.0,-33.0,-55.0,-31.0,0.0
168.0,132.0,52.0,17.0,-18.0,-294.0,-10.0,-44.0,-85.0,-67.0,0.0
67.0,85.0,50.0,2.0,-11.0,-326.0,-48.0,-34.0,-99.0,-122.0,0.0
0.0,27.0,55.0,8.0,17.0,-306.0,-68.0,-18.0,-94.0,-122.0,0.0
-11.0,-18.0,51.0,33.0,35.0,-167.0,-13.0,13.0,-46.0,-57.0,0.0
-30.0,-25.0,61.0,62.0,40.0,12.0,10.0,4.0,-23.0,-35.0,0.0
-52.0,-38.0,56.0,61.0,30.0,123.0,26.0,-5.0,-43.0,-31.0,0.0
-35.0,-21.0,28.0,41.0,14.0,155.0,48.0,-23.0,-76.0,-32.0,0.0
24.0,28.0,35.0,39.0,3.0,162.0,70.0,-35.0,-60.0,-23.0,0.0
74.0,46.0,44.0,31.0,-4.0,207.0,98.0,-19.0,-17.0,0.0,0.0
115.0,42.0,53.0,26.0,-14.0,309.0,123.0,-8.0,-5.0,1.0,0.0
180.0,35.0,20.0,18.0,-43.0,383.0,159.0,-9.0,0.0,4.0,0.0
184.0,13.0,48.0,2.0,-74.0,340.0,158.0,-19.0,-10.0,0.0,0.0
90.0,-54.0,35.0,8.0,-73.0,213.0,118.0,-23.0,16.0,11.0,0.0
-93.0,-177.0,-24.0,5.0,-7.0,68.0,33.0,-21.0,33.0,21.0,0.0
-188.0,-185.0,-40.0,-10.0,23.0,-115.0,-24.0,-9.0,50.0,-5.0,0.0
-126.0,-89.0,-9.0,-11.0,-4.0,-253.0,-24.0,0.0,58.0,-31.0,0.0
-73.0,2.0,9.0,-6.0,-16.0,-341.0,-31.0,1.0,34.0,-32.0,0.0
-27.0,41.0,9.0,-18.0,-33.0,-387.0,-38.0,9.0,27.0,-4.0,0.0
19.0,22.0,-4.0,-16.0,-33.0,-372.0,-1.0,11.0,35.0,-4.0,0.0
38.0,-12.0,-12.0,-3.0,-9.0,-288.0,29.0,-7.0,14.0,-14.0,0.0
43.0,-52.0,-18.0,-5.0,6.0,-84.0,55.0,-12.0,0.0,-2.0,0.0
-2.0,-108.0,-38.0,-9.0,-8.0,70.0,66.0,-4.0,4.0,1.0,0.0
-63.0,-145.0,-91.0,-7.0,-10.0,122.0,53.0,-5.0,9.0,1.0,0.0
-39.0,-99.0,-28.0,-9.0,-8.0,138.0,55.0,-16.0,0.0,-12.0,0.0
-25.0,-60.0,-9.0,-8.0,2.0,151.0,48.0,-26.0,-9.0,-40.0,0.0
-28.0,-60.0,0.0,-14.0,8.0,224.0,36.0,-15.0,-3.0,-15.0,0.0
-6.0,-41.0,3.0,-12.0,1.0,314.0,49.0,-7.0,-2.0,10.0,0.0
15.0,-14.0,1.0,0.0,-8.0,331.0,78.0,-7.0,-12.0,2.0,0.0
38.0,2.0,1.0,-6.0,-23.0,228.0,64.0,-8.0,-29.0,2.0,0.0
49.0,21.0,9.0,-10.0,-44.0,120.0,44.0,-18.0,-32.0,10.0,0.0
42.0,30.0,25.0,-2.0,-63.0,16.0,38.0,-20.0,-39.0,19.0,0.0
11.0,20.0,27.0,-25.0,-67.0,-145.0,5.0,-14.0,-14.0,27.0,0.0
-23.0,-17.0,5.0,-18.0,0.0,-296.0,-28.0,-12.0,-3.0,34.0,0.0
121.0,33.0,10.0,14.0,7.0,-121.0,68.0,-18.0,13.0,15.0,0.0
94.0,14.0,-6.0,9.0,-3.0,17.0,65.0,-18.0,28.0,11.0,0.0
55.0,11.0,13.0,14.0,1.0,65.0,32.0,-13.0,32.0,-8.0,0.0
21.0,37.0,41.0,23.0,15.0,84.0,23.0,-25.0,27.0,-20.0,0.0
24.0,34.0,39.0,29.0,16.0,124.0,45.0,-21.0,18.0,-15.0,0.0
72.0,15.0,24.0,25.0,8.0,202.0,88.0,-8.0,30.0,-2.0,0.0
148.0,6.0,16.0,6.0,3.0,268.0,107.0,-3.0,56.0,26.0,0.0
150.0,19.0,6.0,-6.0,-3.0,254.0,96.0,-2.0,75.0,50.0,0.0
128.0,54.0,7.0,-9.0,-12.0,174.0,72.0,7.0,58.0,16.0,0.0
87.0,82.0,11.0,-14.0,-13.0,90.0,41.0,9.0,31.0,-13.0,0.0
31.0,86.0,-1.0,-11.0,-5.0,-58.0,4.0,11.0,26.0,-9.0,0.0
4.0,50.0,-46.0,-20.0,-2.0,-229.0,-25.0,24.0,21.0,5.0,0.0
-9.0,13.0,-48.0,-31.0,-12.0,-356.0,-42.0,27.0,21.0,19.0,0.0
-27.0,-4.0,-20.0,-32.0,-9.0,-423.0,-63.0,24.0,19.0,2.0,0.0
-35.0,0.0,1.0,-17.0,-5.0,-426.0,-86.0,26.0,19.0,-1.0,0.0
-33.0,15.0,11.0,-21.0,-10.0,-350.0,-78.0,33.0,32.0,13.0,0.0
-32.0,18.0,-55.0,-24.0,-24.0,-176.0,-48.0,27.0,32.0,17.0,0.0
-42.0,5.0,-58.0,-29.0,-35.0,10.0,-19.0,0.0,14.0,2.0,0.0
-39.0,15.0,28.0,-15.0,-28.0,99.0,-19.0,-16.0,-11.0,-13.0,0.0
-22.0,61.0,0.0,-12.0,-14.0,129.0,5.0,-24.0,-38.0,-15.0,0.0
17.0,88.0,-81.0,0.0,14.0,148.0,5.0,-32.0,-45.0,-8.0,0.0
77.0,107.0,-27.0,6.0,37.0,210.0,37.0,-48.0,-61.0,-25.0,0.0
127.0,116.0,65.0,13.0,42.0,314.0,66.0,-57.0,-86.0,-39.0,0.0
166.0,67.0,57.0,17.0,54.0,387.0,87.0,-34.0,-75.0,-11.0,0.0
210.0,41.0,30.0,20.0,48.0,340.0,106.0,-14.0,-36.0,15.0,0.0
232.0,48.0,12.0,1.0,23.0,244.0,93.0,0.0,-4.0,56.0,0.0
219.0,31.0,4.0,-6.0,15.0,124.0,66.0,17.0,4.0,81.0,0.0
208.0,59.0,15.0,-2.0,12.0,-39.0,30.0,16.0,-7.0,80.0,0.0
142.0,56.0,30.0,8.0,2.0,-190.0,-15.0,29.0,25.0,92.0,0.0
28.0,63.0,52.0,36.0,12.0,-308.0,-66.0,12.0,8.0,15.0,0.0
-88.0,53.0,58.0,45.0,17.0,-382.0,-99.0,-6.0,2.0,-47.0,0.0
-122.0,25.0,39.0,33.0,6.0,-389.0,-130.0,-2.0,28.0,-44.0,0.0
-134.0,17.0,-33.0,23.0,-6.0,-293.0,-125.0,10.0,43.0,-15.0,0.0
-172.0,-23.0,-112.0,13.0,0.0,-95.0,-94.0,30.0,61.0,10.0,0.0
-172.0,-8.0,1.0,19.0,7.0,86.0,-53.0,22.0,38.0,-5.0,0.0
-151.0,-7.0,49.0,19.0,-2.0,151.0,-51.0,11.0,16.0,-20.0,0.0
-101.0,-18.0,29.0,-3.0,-8.0,164.0,-43.0,10.0,29.0,-16.0,0.0
-49.0,-51.0,1.0,-27.0,-29.0,181.0,-37.0,16.0,45.0,8.0,0.0
-51.0,-119.0,-43.0,-34.0,-29.0,264.0,-36.0,38.0,58.0,20.0,0.0
-88.0,-174.0,-77.0,-17.0,-23.0,341.0,-48.0,41.0,42.0,-6.0,0.0
-95.0,-150.0,-42.0,-16.0,-13.0,317.0,-47.0,41.0,39.0,-5.0,0.0
-103.0,-130.0,-4.0,-16.0,-6.0,208.0,-50.0,29.0,43.0,14.0,0.0
-103.0,-98.0,-17.0,-7.0,-3.0,94.0,-53.0,32.0,35.0,14.0,0.0
-79.0,-49.0,-93.0,-21.0,-8.0,-32.0,-63.0,30.0,12.0,17.0,0.0
-31.0,-28.0,-31.0,-31.0,-19.0,-178.0,-50.0,22.0,14.0,28.0,0.0
48.0,-2.0,32.0,-15.0,-31.0,-287.0,-40.0,14.0,19.0,36.0,0.0
136.0,21.0,51.0,2.0,-45.0,-348.0,-49.0,0.0,-8.0,39.0,0.0
148.0,28.0,23.0,-3.0,-43.0,-366.0,-33.0,-5.0,-42.0,25.0,0.0
73.0,-2.0,13.0,-2.0,-33.0,-348.0,-6.0,-12.0,-36.0,7.0,0.0
-23.0,-10.0,71.0,33.0,16.0,-203.0,0.0,-18.0,-50.0,-17.0,0.0
-80.0,2.0,113.0,80.0,58.0,-7.0,-10.0,-27.0,-58.0,-37.0,0.0
-47.0,22.0,91.0,92.0,62.0,118.0,13.0,-26.0,-59.0,-46.0,0.0
-13.0,-1.0,76.0,48.0,44.0,136.0,34.0,-18.0,-39.0,-25.0,0.0
6.0,-23.0,55.0,25.0,22.0,123.0,63.0,-1.0,-31.0,1.0,0.0
31.0,-3.0,19.0,14.0,18.0,170.0,100.0,3.0,-14.0,-2.0,0.0
51.0,24.0,8.0,13.0,2.0,266.0,123.0,-9.0,-4.0,-28.0,0.0
59.0,18.0,5.0,8.0,-8.0,334.0,155.0,-13.0,-13.0,-25.0,0.0
70.0,7.0,13.0,8.0,-11.0,298.0,121.0,-19.0,-11.0,-15.0,0.0
28.0,-2.0,6.0,13.0,-8.0,188.0,76.0,-11.0,3.0,-5.0,0.0
3.0,-9.0,0.0,33.0,7.0,70.0,37.0,-8.0,0.0,-2.0,0.0
-8.0,-18.0,5.0,44.0,24.0,-95.0,18.0,9.0,0.0,-6.0,0.0
24.0,1.0,25.0,46.0,32.0,-222.0,23.0,10.0,18.0,-8.0,0.0
71.0,31.0,46.0,47.0,16.0,-283.0,32.0,-6.0,4.0,-5.0,0.0
118.0,78.0,60.0,36.0,-6.0,-306.0,58.0,-30.0,4.0,17.0,0.0
158.0,102.0,67.0,20.0,-32.0,-288.0,73.0,-30.0,17.0,27.0,0.0
138.0,85.0,65.0,10.0,-44.0,-238.0,72.0,-24.0,38.0,42.0,0.0
84.0,57.0,35.0,-12.0,-71.0,-78.0,100.0,7.0,63.0,79.0,0.0
25.0,28.0,16.0,-38.0,-100.0,72.0,115.0,34.0,69.0,55.0,0.0
-53.0,-7.0,-12.0,-4.0,-30.0,117.0,103.0,15.0,32.0,-20.0,0.0
-112.0,-54.0,-117.0,40.0,146.0,138.0,87.0,-19.0,-19.0,-52.0,0.0
-109.0,-40.0,-68.0,15.0,149.0,165.0,108.0,-34.0,-41.0,-25.0,0.0
-70.0,0.0,9.0,-5.0,86.0,235.0,116.0,-22.0,-18.0,0.0,0.0
-49.0,16.0,39.0,6.0,62.0,325.0,93.0,-13.0,-7.0,-1.0,0.0
-48.0,17.0,68.0,27.0,45.0,341.0,88.0,-10.0,-38.0,-19.0,0.0
-48.0,13.0,54.0,24.0,19.0,266.0,67.0,5.0,-33.0,-20.0,0.0
-21.0,4.0,36.0,21.0,10.0,163.0,32.0,-5.0,-21.0,-12.0,0.0
18.0,-14.0,35.0,9.0,1.0,45.0,23.0,-16.0,-24.0,-10.0,0.0
21.0,-15.0,13.0,-4.0,0.0,-105.0,8.0,-23.0,-45.0,-11.0,0.0
-5.0,-15.0,3.0,7.0,3.0,-253.0,-44.0,-19.0,-42.0,-20.0,0.0
-13.0,18.0,43.0,27.0,12.0,-349.0,-58.0,-11.0,-43.0,-16.0,0.0
-13.0,67.0,54.0,42.0,17.0,-392.0,-55.0,-8.0,-33.0,-25.0,0.0
-16.0,62.0,41.0,36.0,28.0,-372.0,-47.0,7.0,-33.0,-34.0,0.0
4.0,49.0,25.0,24.0,25.0,-243.0,-18.0,6.0,-22.0,-24.0,0.0
50.0,22.0,7.0,12.0,22.0,-42.0,0.0,8.0,-20.0,-6.0,0.0
55.0,-22.0,-12.0,3.0,23.0,96.0,8.0,11.0,-6.0,-2.0,0.0
37.0,-36.0,-26.0,-5.0,16.0,143.0,0.0,11.0,-9.0,-7.0,0.0
-16.0,-61.0,-90.0,2.0,2.0,136.0,5.0,9.0,13.0,-6.0,0.0
-81.0,-86.0,-93.0,10.0,-3.0,155.0,-11.0,6.0,34.0,-5.0,0.0
-75.0,-76.0,-19.0,11.0,-3.0,224.0,-12.0,15.0,63.0,1.0,0.0
-40.0,-48.0,-17.0,5.0,-8.0,269.0,19.0,32.0,69.0,-4.0,0.0
-15.0,-50.0,-23.0,0.0,-4.0,233.0,14.0,50.0,73.0,-2.0,0.0
-11.0,-58.0,-31.0,-2.0,-2.0,130.0,-22.0,47.0,60.0,14.0,0.0
-19.0,-41.0,-91.0,4.0,-3.0,29.0,-60.0,40.0,42.0,12.0,0.0
-20.0,-32.0,-172.0,5.0,-5.0,-120.0,-88.0,41.0,25.0,7.0,0.0
-2.0,-14.0,-86.0,-1.0,-12.0,-272.0,-97.0,27.0,17.0,0.0,0.0
26.0,-1.0,-43.0,-11.0,-11.0,-362.0,-105.0,17.0,4.0,3.0,0.0
78.0,19.0,-61.0,-2.0,-5.0,-426.0,-117.0,15.0,-7.0,3.0,0.0
107.0,37.0,11.0,11.0,8.0,-425.0,-97.0,12.0,-19.0,2.0,0.0
113.0,32.0,30.0,34.0,2.0,-360.0,-81.0,-1.0,-29.0,-2.0,0.0
111.0,37.0,4.0,65.0,10.0,-187.0,-75.0,-16.0,-43.0,-7.0,0.0
88.0,39.0,32.0,80.0,22.0,8.0,-66.0,-28.0,-57.0,-12.0,0.0
46.0,55.0,60.0,87.0,18.0,121.0,-50.0,-29.0,-56.0,-35.0,0.0
51.0,97.0,90.0,88.0,7.0,160.0,-19.0,-48.0,-85.0,-55.0,0.0
86.0,134.0,97.0,90.0,-5.0,179.0,6.0,-64.0,-98.0,-33.0,0.0
100.0,154.0,90.0,82.0,-14.0,225.0,18.0,-37.0,-74.0,22.0,0.0
108.0,119.0,52.0,55.0,-24.0,293.0,32.0,4.0,-25.0,84.0,0.0
126.0,86.0,37.0,53.0,-34.0,332.0,45.0,8.0,9.0,71.0,0.0
105.0,18.0,45.0,58.0,-28.0,276.0,33.0,-1.0,11.0,13.0,0.0
18.0,-62.0,30.0,68.0,-23.0,180.0,10.0,20.0,18.0,-1.0,0.0
-63.0,-128.0,13.0,58.0,-11.0,93.0,-13.0,48.0,52.0,12.0,0.0
-165.0,-178.0,0.0,73.0,21.0,-62.0,-47.0,64.0,85.0,11.0,0.0
-249.0,-184.0,-2.0,84.0,41.0,-230.0,-92.0,63.0,72.0,8.0,0.0
-287.0,-166.0,-8.0,86.0,37.0,-355.0,-118.0,72.0,57.0,6.0,0.0
-233.0,-100.0,-6.0,75.0,14.0,-397.0,-110.0,52.0,41.0,0.0,0.0
-149.0,-73.0,-2.0,50.0,0.0,-366.0,-93.0,23.0,22.0,-14.0,0.0
-93.0,-69.0,-5.0,50.0,-3.0,-263.0,-78.0,11.0,26.0,-16.0,0.0
-61.0,-60.0,-38.0,49.0,-2.0,-71.0,-33.0,9.0,20.0,-25.0,0.0
-37.0,-54.0,-92.0,43.0,-3.0,106.0,4.0,-1.0,6.0,-36.0,0.0
3.0,-42.0,-59.0,38.0,-10.0,171.0,22.0,-7.0,-14.0,-26.0,0.0
38.0,-3.0,16.0,22.0,-28.0,172.0,22.0,4.0,-27.0,-20.0,0.0
66.0,13.0,14.0,14.0,-38.0,194.0,43.0,1.0,-29.0,-9.0,0.0
106.0,10.0,-5.0,14.0,-34.0,293.0,66.0,3.0,-21.0,8.0,0.0
130.0,39.0,-19.0,25.0,-23.0,389.0,81.0,14.0,-6.0,26.0,0.0
188.0,124.0,0.0,42.0,-10.0,417.0,102.0,9.0,-29.0,24.0,0.0
212.0,196.0,41.0,68.0,-16.0,316.0,111.0,-26.0,-76.0,-30.0,0.0
116.0,152.0,53.0,91.0,-1.0,181.0,52.0,-38.0,-84.0,-12.0,0.0
20.0,52.0,40.0,115.0,34.0,25.0,-39.0,-39.0,-71.0,20.0,0.0
-73.0,-40.0,26.0,127.0,47.0,-166.0,-104.0,-32.0,-43.0,31.0,0.0
-171.0,-102.0,33.0,128.0,45.0,-325.0,-141.0,-28.0,-45.0,-25.0,0.0
-156.0,-98.0,35.0,132.0,38.0,-415.0,-149.0,-23.0,-61.0,-61.0,0.0
-35.0,-62.0,20.0,120.0,14.0,-417.0,-101.0,-25.0,-68.0,-35.0,0.0
35.0,-37.0,-34.0,98.0,9.0,-342.0,-60.0,-23.0,-45.0,10.0,0.0
53.0,-34.0,-71.0,70.0,11.0,-189.0,-45.0,-9.0,-6.0,20.0,0.0
-26.0,-42.0,-46.0,62.0,4.0,-15.0,-47.0,19.0,24.0,41.0,0.0
-93.0,-38.0,-45.0,67.0,-3.0,94.0,-53.0,22.0,33.0,30.0,0.0
-87.0,-7.0,-44.0,71.0,-9.0,140.0,-59.0,1.0,11.0,-18.0,0.0
-77.0,-52.0,-36.0,80.0,-2.0,136.0,-55.0,8.0,29.0,-20.0,0.0
-71.0,-97.0,-42.0,91.0,0.0,170.0,-48.0,23.0,44.0,-12.0,0.0
-81.0,-73.0,-31.0,108.0,8.0,258.0,-29.0,30.0,21.0,-44.0,0.0
-47.0,-45.0,-8.0,113.0,-2.0,317.0,-10.0,10.0,-3.0,-50.0,0.0
-7.0,-11.0,17.0,114.0,-6.0,287.0,-4.0,-6.0,-4.0,-20.0,0.0
34.0,66.0,40.0,123.0,-16.0,194.0,-13.0,-20.0,-13.0,10.0,0.0
76.0,125.0,51.0,122.0,-38.0,91.0,-12.0,-42.0,-32.0,2.0,0.0
54.0,124.0,56.0,109.0,-38.0,-61.0,-15.0,-48.0,-55.0,-17.0,0.0
10.0,90.0,35.0,112.0,-20.0,-219.0,-54.0,-28.0,-57.0,-35.0,0.0
-20.0,47.0,17.0,116.0,-9.0,-343.0,-91.0,-17.0,-66.0,-53.0,0.0
-47.0,9.0,5.0,103.0,-7.0,-404.0,-79.0,-10.0,-42.0,-25.0,0.0
-100.0,-48.0,-15.0,108.0,-11.0,-430.0,-98.0,15.0,1.0,0.0,0.0
-164.0,-80.0,-33.0,113.0,-10.0,-357.0,-100.0,27.0,6.0,-7.0,0.0
-160.0,-44.0,-18.0,122.0,-4.0,-186.0,-78.0,28.0,2.0,10.0,0.0
-132.0,-21.0,-2.0,131.0,6.0,-17.0,-77.0,19.0,4.0,9.0,0.0
-81.0,-18.0,15.0,137.0,12.0,85.0,-37.0,8.0,9.0,3.0,0.0
-26.0,-14.0,20.0,156.0,29.0,125.0,2.0,0.0,-16.0,-1.0,0.0
33.0,-7.0,23.0,158.0,34.0,154.0,42.0,-7.0,-14.0,-12.0,0.0
100.0,-14.0,1.0,134.0,27.0,239.0,99.0,-9.0,-16.0,-2.0,0.0
45.0,-90.0,-39.0,108.0,21.0,317.0,99.0,-11.0,3.0,-3.0,0.0
-36.0,-126.0,-62.0,115.0,20.0,335.0,68.0,-15.0,17.0,-23.0,0.0
-34.0,-95.0,-72.0,130.0,32.0,236.0,71.0,-4.0,35.0,-23.0,0.0
-44.0,-74.0,-49.0,130.0,27.0,116.0,57.0,10.0,56.0,24.0,0.0
-66.0,-69.0,-38.0,134.0,18.0,-8.0,45.0,19.0,56.0,48.0,0.0
-80.0,-40.0,-6.0,144.0,7.0,-172.0,34.0,0.0,21.0,0.0,0.0
-63.0,0.0,5.0,151.0,-3.0,-296.0,5.0,-3.0,-7.0,-18.0,0.0
-40.0,24.0,-58.0,149.0,-13.0,-375.0,-14.0,6.0,0.0,1.0,0.0
-25.0,26.0,-143.0,136.0,-14.0,-407.0,-11.0,14.0,7.0,24.0,0.0
-35.0,37.0,-115.0,133.0,-11.0,-400.0,6.0,22.0,16.0,42.0,0.0
-23.0,69.0,-35.0,144.0,-8.0,-307.0,30.0,14.0,21.0,52.0,0.0
-4.0,77.0,1.0,123.0,-33.0,-109.0,62.0,20.0,4.0,55.0,0.0
27.0,41.0,-115.0,115.0,-48.0,39.0,93.0,6.0,-8.0,51.0,0.0
58.0,19.0,-166.0,143.0,38.0,106.0,109.0,-5.0,-19.0,29.0,0.0
95.0,21.0,-124.0,140.0,78.0,123.0,133.0,0.0,-23.0,18.0,0.0
122.0,17.0,-15.0,119.0,31.0,169.0,169.0,1.0,-36.0,23.0,0.0
93.0,-11.0,17.0,116.0,8.0,258.0,160.0,0.0,-39.0,33.0,0.0
-15.0,-69.0,8.0,114.0,-6.0,321.0,111.0,-5.0,-26.0,19.0,0.0
-68.0,-81.0,-32.0,116.0,13.0,300.0,88.0,-1.0,-16.0,27.0,0.0
-19.0,-31.0,-19.0,126.0,20.0,214.0,81.0,-11.0,-31.0,34.0,0.0
16.0,1.0,-63.0,115.0,22.0,104.0,81.0,-17.0,-35.0,14.0,0.0
11.0,26.0,13.0,100.0,22.0,-29.0,74.0,-11.0,-34.0,5.0,0.0
8.0,44.0,68.0,115.0,9.0,-184.0,72.0,9.0,-28.0,24.0,0.0
12.0,43.0,73.0,121.0,10.0,-298.0,61.0,12.0,-4.0,25.0,0.0
29.0,37.0,66.0,114.0,8.0,-383.0,37.0,2.0,1.0,21.0,0.0
29.0,24.0,53.0,103.0,7.0,-406.0,33.0,3.0,11.0,12.0,0.0
19.0,14.0,34.0,103.0,-3.0,-342.0,51.0,9.0,14.0,15.0,0.0
6.0,-4.0,11.0,106.0,-14.0,-176.0,75.0,12.0,18.0,18.0,0.0
6.0,-33.0,-42.0,108.0,-11.0,2.0,118.0,20.0,18.0,25.0,0.0
34.0,-25.0,-129.0,116.0,-3.0,123.0,147.0,32.0,26.0,36.0,0.0
54.0,-3.0,-40.0,122.0,3.0,152.0,141.0,29.0,26.0,28.0,0.0
60.0,13.0,37.0,133.0,21.0,167.0,129.0,27.0,26.0,17.0,0.0
53.0,12.0,41.0,124.0,26.0,201.0,127.0,15.0,17.0,10.0,0.0
53.0,20.0,52.0,135.0,25.0,266.0,139.0,4.0,11.0,17.0,0.0
48.0,69.0,87.0,152.0,22.0,314.0,128.0,-10.0,12.0,19.0,0.0
29.0,98.0,83.0,144.0,18.0,257.0,109.0,-11.0,2.0,15.0,0.0
0.0,120.0,70.0,156.0,16.0,152.0,94.0,-11.0,-8.0,27.0,0.0
28.0,166.0,92.0,175.0,15.0,47.0,81.0,-28.0,-21.0,24.0,0.0
90.0,186.0,99.0,179.0,22.0,-76.0,65.0,-38.0,-31.0,15.0,0.0
114.0,162.0,37.0,179.0,34.0,-209.0,57.0,-30.0,-16.0,6.0,0.0
168.0,127.0,48.0,162.0,23.0,-319.0,65.0,0.0,-14.0,-1.0,0.0
139.0,40.0,60.0,158.0,9.0,-366.0,17.0,13.0,-18.0,-18.0,0.0
15.0,-58.0,54.0,183.0,23.0,-358.0,-52.0,11.0,-10.0,-32.0,0.0
-90.0,-133.0,27.0,187.0,30.0,-258.0,-89.0,20.0,-26.0,-23.0,0.0
-142.0,-180.0,6.0,184.0,22.0,-79.0,-102.0,24.0,-27.0,4.0,0.0
-174.0,-137.0,16.0,188.0,-3.0,86.0,-86.0,19.0,-17.0,-3.0,0.0
-166.0,-85.0,36.0,189.0,-11.0,153.0,-80.0,7.0,-31.0,-22.0,0.0
-101.0,-44.0,36.0,174.0,-31.0,171.0,-72.0,6.0,-39.0,-33.0,0.0
-66.0,-9.0,39.0,164.0,-58.0,191.0,-59.0,23.0,-15.0,-32.0,0.0
-68.0,5.0,46.0,160.0,-60.0,274.0,-53.0,32.0,30.0,-29.0,0.0
-59.0,0.0,8.0,165.0,-15.0,361.0,-26.0,24.0,34.0,-28.0,0.0
-50.0,-16.0,-96.0,168.0,50.0,357.0,-8.0,4.0,11.0,-31.0,0.0
-29.0,-5.0,-65.0,156.0,45.0,264.0,-15.0,-2.0,7.0,-17.0,0.0
16.0,15.0,-101.0,152.0,8.0,176.0,-23.0,17.0,36.0,0.0,0.0
46.0,26.0,-157.0,162.0,-8.0,58.0,-36.0,23.0,47.0,19.0,0.0
47.0,11.0,-87.0,188.0,7.0,-104.0,-60.0,0.0,45.0,8.0,0.0
7.0,-2.0,13.0,183.0,11.0,-230.0,-106.0,-8.0,30.0,-11.0,0.0
-22.0,-9.0,22.0,169.0,0.0,-323.0,-129.0,4.0,26.0,-12.0,0.0
-3.0,-6.0,-11.0,154.0,-8.0,-351.0,-114.0,10.0,27.0,8.0,0.0
37.0,10.0,-81.0,160.0,2.0,-306.0,-100.0,5.0,36.0,21.0,0.0
90.0,26.0,-46.0,180.0,39.0,-151.0,-79.0,-25.0,-1.0,-3.0,0.0
153.0,37.0,-3.0,173.0,43.0,62.0,-34.0,-48.0,-28.0,-7.0,0.0
153.0,64.0,35.0,160.0,5.0,203.0,3.0,-48.0,-18.0,16.0,0.0
125.0,95.0,27.0,154.0,-13.0,239.0,-3.0,-31.0,-13.0,38.0,0.0
60.0,83.0,-47.0,160.0,-14.0,217.0,-55.0,-17.0,-1.0,32.0,0.0
-3.0,76.0,50.0,164.0,0.0,236.0,-80.0,0.0,6.0,9.0,0.0
7.0,85.0,125.0,168.0,5.0,328.0,-67.0,-10.0,-26.0,-53.0,0.0
16.0,33.0,85.0,155.0,5.0,376.0,-52.0,-6.0,-13.0,-54.0,0.0
11.0,-46.0,42.0,157.0,31.0,317.0,-55.0,21.0,3.0,-14.0,0.0
-6.0,-96.0,16.0,139.0,43.0,195.0,-96.0,46.0,19.0,-4.0,0.0
-20.0,-67.0,0.0,111.0,30.0,79.0,-115.0,50.0,24.0,31.0,0.0
-52.0,-35.0,-10.0,102.0,12.0,-80.0,-148.0,49.0,22.0,56.0,0.0
-46.0,1.0,-2.0,93.0,2.0,-228.0,-168.0,63.0,25.0,76.0,0.0
1.0,78.0,18.0,115.0,5.0,-300.0,-183.0,27.0,-27.0,7.0,0.0
-10.0,111.0,54.0,150.0,-11.0,-343.0,-199.0,-14.0,-46.0,-50.0,0.0
-28.0,43.0,114.0,146.0,-22.0,-334.0,-198.0,-19.0,-38.0,-26.0,0.0
-98.0,-72.0,74.0,145.0,-22.0,-277.0,-206.0,-4.0,-10.0,3.0,0.0
-187.0,-140.0,83.0,174.0,-4.0,-128.0,-230.0,9.0,11.0,-15.0,0.0
-110.0,-109.0,114.0,185.0,-11.0,73.0,-189.0,62.0,34.0,-15.0,0.0
5.0,-30.0,81.0,171.0,-9.0,182.0,-110.0,16.0,-11.0,-30.0,0.0
61.0,15.0,14.0,147.0,-9.0,199.0,-43.0,-29.0,-30.0,-34.0,0.0
55.0,6.0,29.0,129.0,-21.0,187.0,-1.0,-8.0,31.0,4.0,0.0
11.0,-40.0,18.0,128.0,-24.0,236.0,8.0,12.0,64.0,11.0,0.0
-58.0,-107.0,-12.0,125.0,-17.0,311.0,0.0,28.0,96.0,19.0,0.0
-114.0,-124.0,-2.0,136.0,-10.0,342.0,-33.0,24.0,83.0,0.0,0.0
-148.0,-71.0,30.0,166.0,0.0,255.0,-45.0,12.0,47.0,-41.0,0.0
-137.0,-48.0,35.0,170.0,4.0,144.0,-61.0,0.0,36.0,-38.0,0.0
-93.0,-55.0,8.0,161.0,13.0,28.0,-60.0,-5.0,41.0,-30.0,0.0
-50.0,-37.0,-96.0,151.0,15.0,-108.0,-71.0,2.0,18.0,-18.0,0.0
-46.0,3.0,-147.0,140.0,-2.0,-230.0,-110.0,7.0,-4.0,-16.0,0.0
-29.0,36.0,-97.0,151.0,-19.0,-318.0,-109.0,2.0,-7.0,-9.0,0.0
2.0,58.0,20.0,150.0,-18.0,-353.0,-93.0,2.0,5.0,-5.0,0.0
16.0,39.0,64.0,140.0,-26.0,-351.0,-65.0,-5.0,-3.0,5.0,0.0
27.0,10.0,49.0,133.0,-33.0,-252.0,-7.0,-5.0,-10.0,4.0,0.0
39.0,0.0,25.0,122.0,-25.0,-69.0,47.0,7.0,3.0,-2.0,0.0
36.0,-15.0,7.0,111.0,-28.0,84.0,77.0,18.0,7.0,0.0,0.0
48.0,-16.0,2.0,91.0,-50.0,145.0,89.0,15.0,8.0,11.0,0.0
52.0,7.0,-29.0,111.0,-21.0,171.0,100.0,-3.0,-10.0,21.0,0.0
38.0,10.0,-42.0,147.0,69.0,203.0,107.0,-3.0,-34.0,10.0,0.0
22.0,16.0,-8.0,154.0,71.0,259.0,107.0,3.0,-23.0,8.0,0.0
11.0,20.0,12.0,151.0,24.0,325.0,92.0,5.0,-38.0,8.0,0.0
12.0,19.0,30.0,158.0,0.0,323.0,82.0,3.0,-65.0,0.0,0.0
39.0,23.0,32.0,165.0,-12.0,221.0,85.0,-9.0,-59.0,-2.0,0.0
48.0,18.0,8.0,159.0,-27.0,129.0,84.0,-21.0,-29.0,4.0,0.0
32.0,3.0,-27.0,145.0,-23.0,-21.0,54.0,-16.0,-26.0,17.0,0.0
2.0,3.0,1.0,143.0,-12.0,-175.0,12.0,-11.0,-19.0,16.0,0.0
-19.0,6.0,12.0,148.0,-2.0,-299.0,-7.0,-4.0,-16.0,28.0,0.0
-27.0,13.0,20.0,167.0,2.0,-382.0,-12.0,-10.0,-26.0,18.0,0.0
-14.0,24.0,37.0,182.0,9.0,-384.0,-8.0,-13.0,-10.0,9.0,0.0
2.0,20.0,36.0,183.0,11.0,-334.0,26.0,-9.0,18.0,15.0,0.0
38.0,29.0,13.0,176.0,11.0,-171.0,83.0,-9.0,31.0,14.0,0.0
58.0,42.0,-1.0,186.0,7.0,39.0,122.0,-6.0,30.0,-2.0,0.0
36.0,55.0,0.0,183.0,-4.0,155.0,162.0,-6.0,33.0,-23.0,0.0
11.0,37.0,2.0,173.0,-21.0,191.0,151.0,2.0,15.0,-29.0,0.0
31.0,6.0,-31.0,163.0,-31.0,204.0,131.0,6.0,21.0,-11.0,0.0
8.0,-25.0,-31.0,146.0,-34.0,239.0,112.0,4.0,12.0,-10.0,0.0
-17.0,-43.0,-24.0,144.0,-24.0,305.0,122.0,3.0,7.0,-20.0,0.0
7.0,-21.0,-22.0,124.0,-27.0,361.0,157.0,-8.0,0.0,0.0,0.0
44.0,21.0,-1.0,113.0,-26.0,338.0,164.0,-25.0,-24.0,16.0,0.0
89.0,54.0,-8.0,119.0,-11.0,237.0,155.0,-22.0,-48.0,20.0,0.0
102.0,46.0,-66.0,120.0,0.0,114.0,144.0,-5.0,-44.0,13.0,0.0
100.0,26.0,-56.0,115.0,5.0,-47.0,134.0,3.0,-26.0,10.0,0.0
97.0,-3.0,-34.0,106.0,13.0,-202.0,107.0,15.0,-22.0,21.0,0.0
47.0,-18.0,0.0,105.0,15.0,-299.0,44.0,16.0,-16.0,38.0,0.0
0.0,-21.0,12.0,110.0,14.0,-366.0,0.0,2.0,-15.0,50.0,0.0
-35.0,-51.0,-16.0,120.0,20.0,-378.0,-29.0,-4.0,-16.0,42.0,0.0
-29.0,-49.0,-8.0,112.0,15.0,-289.0,-28.0,-14.0,-17.0,21.0,0.0
5.0,-32.0,4.0,122.0,14.0,-90.0,-8.0,-8.0,-52.0,-2.0,0.0
46.0,-17.0,-13.0,109.0,7.0,83.0,15.0,-5.0,-58.0,-19.0,0.0
62.0,-11.0,21.0,99.0,1.0,184.0,46.0,-14.0,-62.0,-24.0,0.0
34.0,-7.0,27.0,105.0,6.0,198.0,49.0,-15.0,-64.0,-35.0,0.0
-6.0,-12.0,19.0,99.0,11.0,188.0,30.0,-21.0,-52.0,-38.0,0.0
-25.0,-33.0,14.0,89.0,10.0,241.0,32.0,-14.0,-36.0,-28.0,0.0
-23.0,-22.0,19.0,61.0,4.0,317.0,55.0,-8.0,-6.0,-17.0,0.0
2.0,2.0,28.0,70.0,-3.0,327.0,48.0,-7.0,9.0,-3.0,0.0
20.0,13.0,20.0,62.0,-2.0,243.0,54.0,-4.0,13.0,12.0,0.0
24.0,16.0,-3.0,30.0,1.0,132.0,21.0,0.0,23.0,27.0,0.0
20.0,39.0,-80.0,10.0,0.0,0.0,-8.0,10.0,21.0,24.0,0.0
44.0,35.0,-83.0,8.0,3.0,-166.0,-51.0,7.0,41.0,14.0,0.0
104.0,32.0,-46.0,19.0,0.0,-289.0,-62.0,6.0,34.0,0.0,0.0
114.0,43.0,-26.0,15.0,-13.0,-379.0,-51.0,6.0,21.0,-10.0,0.0
89.0,65.0,-84.0,21.0,-7.0,-406.0,-45.0,-8.0,13.0,-11.0,0.0
76.0,85.0,0.0,13.0,-7.0,-363.0,-66.0,-12.0,-4.0,-6.0,0.0
33.0,40.0,23.0,0.0,-18.0,-221.0,-79.0,-8.0,9.0,15.0,0.0
-46.0,-10.0,8.0,-17.0,-16.0,-38.0,-88.0,-9.0,0.0,-11.0,0.0
-86.0,-36.0,-13.0,-11.0,3.0,71.0,-78.0,-10.0,-11.0,-27.0,0.0
-88.0,-32.0,-4.0,8.0,31.0,115.0,-68.0,-27.0,-15.0,-35.0,0.0
-55.0,-17.0,-28.0,9.0,30.0,125.0,-56.0,-33.0,-29.0,-42.0,0.0
-6.0,8.0,-31.0,-15.0,4.0,165.0,-45.0,-26.0,-33.0,-38.0,0.0
4.0,17.0,31.0,-39.0,-15.0,269.0,-14.0,-25.0,-37.0,-21.0,0.0
0.0,0.0,-22.0,-51.0,-26.0,335.0,-21.0,-28.0,0.0,8.0,0.0
-12.0,19.0,-27.0,-64.0,-23.0,306.0,-30.0,-19.0,-4.0,6.0,0.0
-1.0,57.0,53.0,-54.0,-18.0,200.0,-34.0,-15.0,-21.0,1.0,0.0
4.0,74.0,83.0,-37.0,-24.0,85.0,-72.0,-18.0,-44.0,2.0,0.0
-3.0,114.0,92.0,-45.0,-25.0,-48.0,-110.0,-28.0,-72.0,-26.0,0.0
6.0,176.0,83.0,-53.0,-7.0,-201.0,-122.0,-31.0,-71.0,-23.0,0.0
40.0,200.0,85.0,-83.0,-12.0,-324.0,-114.0,-29.0,-48.0,9.0,0.0
62.0,186.0,85.0,-99.0,-41.0,-403.0,-114.0,-6.0,-3.0,54.0,0.0
59.0,146.0,68.0,-108.0,-54.0,-407.0,-83.0,18.0,39.0,64.0,0.0
71.0,68.0,29.0,-125.0,-60.0,-327.0,-62.0,32.0,40.0,70.0,0.0
15.0,-41.0,-3.0,-143.0,-65.0,-166.0,-67.0,32.0,54.0,63.0,0.0
-96.0,-128.0,-7.0,-137.0,-44.0,-26.0,-84.0,43.0,60.0,42.0,0.0
-164.0,-165.0,-42.0,-123.0,-10.0,59.0,-110.0,37.0,48.0,26.0,0.0
-121.0,-141.0,-49.0,-129.0,48.0,90.0,-83.0,16.0,47.0,32.0,0.0
0.0,-107.0,-48.0,-150.0,45.0,114.0,-36.0,-18.0,34.0,6.0,0.0
75.0,-113.0,-24.0,-173.0,-11.0,179.0,-5.0,-16.0,21.0,-30.0,0.0
43.0,-132.0,-20.0,-184.0,-27.0,276.0,-3.0,3.0,31.0,-60.0,0.0
-19.0,-171.0,-29.0,-175.0,-8.0,320.0,-31.0,6.0,37.0,-64.0,0.0
16.0,-143.0,-38.0,-162.0,0.0,255.0,-36.0,18.0,26.0,-24.0,0.0
46.0,-107.0,-56.0,-170.0,8.0,141.0,-59.0,17.0,36.0,33.0,0.0
42.0,-82.0,-42.0,-176.0,18.0,14.0,-91.0,6.0,31.0,39.0,0.0
38.0,-29.0,-11.0,-173.0,0.0,-139.0,-138.0,-6.0,32.0,34.0,0.0
69.0,18.0,1.0,-199.0,-12.0,-278.0,-156.0,-15.0,29.0,26.0,0.0
96.0,43.0,4.0,-203.0,-4.0,-374.0,-150.0,-20.0,-4.0,-14.0,0.0
58.0,16.0,11.0,-191.0,1.0,-430.0,-154.0,-4.0,-3.0,-15.0,0.0
-3.0,-9.0,6.0,-207.0,-11.0,-436.0,-171.0,26.0,14.0,29.0,0.0
-60.0,-14.0,5.0,-204.0,-29.0,-354.0,-168.0,37.0,29.0,35.0,0.0
-106.0,-10.0,17.0,-182.0,0.0,-176.0,-146.0,9.0,3.0,-6.0,0.0
-140.0,-19.0,39.0,-147.0,82.0,-20.0,-124.0,-14.0,-18.0,-31.0,0.0
-110.0,-14.0,58.0,-145.0,100.0,79.0,-76.0,-24.0,-32.0,-9.0,0.0
-76.0,1.0,68.0,-157.0,65.0,119.0,-69.0,-20.0,-33.0,-12.0,0.0
-73.0,22.0,-9.0,-138.0,35.0,145.0,-79.0,-27.0,-26.0,-33.0,0.0
-95.0,11.0,-43.0,-124.0,37.0,220.0,-54.0,-45.0,-39.0,-57.0,0.0
-107.0,-19.0,32.0,-132.0,29.0,306.0,-2.0,-46.0,-45.0,-64.0,0.0
-85.0,-18.0,56.0,-151.0,17.0,312.0,6.0,-34.0,-32.0,-40.0,0.0
-54.0,-5.0,33.0,-153.0,0.0,245.0,-29.0,-36.0,-15.0,-8.0,0.0
-41.0,3.0,61.0,-173.0,-8.0,155.0,-44.0,-25.0,-24.0,3.0,0.0
-32.0,-4.0,1.0,-197.0,-15.0,36.0,-63.0,-11.0,-24.0,3.0,0.0
-13.0,8.0,-65.0,-197.0,-21.0,-109.0,-92.0,-13.0,-13.0,3.0,0.0
-12.0,26.0,14.0,-209.0,-30.0,-224.0,-113.0,-27.0,-4.0,5.0,0.0
3.0,20.0,31.0,-209.0,-35.0,-301.0,-90.0,-21.0,-4.0,10.0,0.0
11.0,21.0,28.0,-198.0,-37.0,-323.0,-44.0,-16.0,12.0,6.0,0.0
17.0,16.0,24.0,-193.0,-40.0,-284.0,-10.0,-17.0,44.0,1.0,0.0
21.0,4.0,19.0,-193.0,-41.0,-135.0,-2.0,-3.0,58.0,15.0,0.0
20.0,1.0,19.0,-173.0,-32.0,58.0,22.0,11.0,56.0,15.0,0.0
25.0,19.0,27.0,-162.0,-33.0,180.0,48.0,0.0,32.0,9.0,0.0
26.0,46.0,42.0,-174.0,-28.0,213.0,69.0,-18.0,8.0,4.0,0.0
21.0,66.0,64.0,-160.0,-22.0,220.0,70.0,-29.0,-6.0,-2.0,0.0
11.0,50.0,53.0,-158.0,-25.0,270.0,97.0,-28.0,9.0,9.0,0.0
0.0,10.0,25.0,-176.0,-37.0,344.0,131.0,-11.0,21.0,13.0,0.0
5.0,-1.0,10.0,-189.0,-30.0,395.0,131.0,5.0,23.0,15.0,0.0
21.0,6.0,5.0,-187.0,-22.0,352.0,111.0,12.0,12.0,13.0,0.0
40.0,14.0,6.0,-191.0,-28.0,234.0,109.0,7.0,-4.0,20.0,0.0
44.0,32.0,4.0,-204.0,-32.0,130.0,103.0,4.0,-14.0,24.0,0.0
56.0,34.0,6.0,-207.0,-24.0,-9.0,69.0,-7.0,-18.0,19.0,0.0
63.0,14.0,2.0,-204.0,-20.0,-152.0,24.0,-10.0,-26.0,18.0,0.0
27.0,-33.0,-15.0,-201.0,-14.0,-266.0,9.0,15.0,0.0,43.0,0.0
7.0,-53.0,-26.0,-204.0,-4.0,-341.0,-5.0,25.0,0.0,40.0,0.0
-2.0,-31.0,-22.0,-195.0,-2.0,-355.0,-16.0,10.0,-25.0,10.0,0.0
-4.0,-14.0,-12.0,-202.0,-7.0,-292.0,-47.0,6.0,-21.0,2.0,0.0
1.0,-31.0,-39.0,-189.0,6.0,-112.0,-12.0,10.0,-24.0,14.0,0.0
5.0,-32.0,-47.0,-176.0,20.0,42.0,37.0,7.0,-27.0,15.0,0.0
10.0,-19.0,-21.0,-166.0,28.0,115.0,52.0,7.0,-25.0,20.0,0.0
11.0,-16.0,-21.0,-161.0,36.0,140.0,61.0,3.0,-9.0,21.0,0.0
8.0,-14.0,-24.0,-164.0,26.0,157.0,73.0,4.0,-13.0,10.0,0.0
2.0,-10.0,-10.0,-158.0,9.0,215.0,75.0,8.0,10.0,5.0,0.0
-12.0,-19.0,-4.0,-161.0,1.0,307.0,63.0,18.0,29.0,-11.0,0.0
-22.0,-10.0,12.0,-153.0,-3.0,334.0,56.0,11.0,28.0,-14.0,0.0
-14.0,7.0,27.0,-148.0,-5.0,244.0,49.0,11.0,29.0,-24.0,0.0
-11.0,37.0,45.0,-129.0,-1.0,142.0,34.0,17.0,32.0,-21.0,0.0
-10.0,42.0,74.0,-115.0,0.0,20.0,43.0,6.0,40.0,-13.0,0.0
-26.0,42.0,59.0,-112.0,7.0,-152.0,51.0,2.0,48.0,6.0,0.0
-36.0,45.0,51.0,-128.0,7.0,-281.0,12.0,1.0,16.0,27.0,0.0
-10.0,36.0,31.0,-151.0,3.0,-365.0,-12.0,1.0,7.0,38.0,0.0
-6.0,2.0,3.0,-151.0,7.0,-398.0,-18.0,14.0,14.0,45.0,0.0
-13.0,-16.0,-21.0,-149.0,13.0,-384.0,0.0,22.0,18.0,44.0,0.0
-6.0,-5.0,-123.0,-162.0,21.0,-267.0,37.0,14.0,3.0,40.0,0.0
7.0,7.0,-140.0,-179.0,17.0,-78.0,60.0,17.0,-10.0,33.0,0.0
-12.0,-4.0,-32.0,-185.0,-1.0,57.0,75.0,15.0,-25.0,20.0,0.0
-37.0,-8.0,12.0,-187.0,0.0,121.0,72.0,19.0,-42.0,15.0,0.0
-12.0,-1.0,8.0,-177.0,2.0,125.0,60.0,24.0,-25.0,26.0,0.0
23.0,11.0,9.0,-176.0,-1.0,159.0,66.0,31.0,-14.0,33.0,0.0
37.0,16.0,8.0,-172.0,0.0,255.0,84.0,21.0,-20.0,16.0,0.0
46.0,27.0,-1.0,-161.0,9.0,341.0,95.0,14.0,1.0,1.0,0.0
31.0,9.0,1.0,-131.0,31.0,305.0,87.0,15.0,-3.0,-13.0,0.0
18.0,22.0,4.0,-116.0,33.0,191.0,69.0,5.0,0.0,-21.0,0.0
16.0,38.0,0.0,-137.0,13.0,97.0,58.0,7.0,19.0,4.0,0.0
15.0,19.0,-5.0,-144.0,6.0,-36.0,36.0,18.0,45.0,26.0,0.0
-6.0,9.0,-19.0,-138.0,13.0,-188.0,-2.0,32.0,63.0,28.0,0.0
3.0,47.0,6.0,-133.0,12.0,-310.0,-19.0,29.0,59.0,31.0,0.0
58.0,96.0,0.0,-132.0,-2.0,-394.0,-33.0,8.0,33.0,26.0,0.0
89.0,100.0,-5.0,-141.0,-6.0,-407.0,-32.0,4.0,36.0,38.0,0.0
102.0,77.0,20.0,-154.0,-11.0,-380.0,-12.0,9.0,52.0,59.0,0.0
73.0,63.0,25.0,-162.0,-20.0,-216.0,10.0,12.0,38.0,70.0,0.0
29.0,87.0,39.0,-165.0,-23.0,-8.0,23.0,20.0,22.0,44.0,0.0
-9.0,56.0,48.0,-152.0,-17.0,86.0,13.0,20.0,14.0,16.0,0.0
-56.0,10.0,37.0,-138.0,-2.0,137.0,0.0,13.0,0.0,-10.0,0.0
-79.0,-6.0,45.0,-131.0,-2.0,164.0,-12.0,15.0,-10.0,-16.0,0.0
-39.0,-21.0,5.0,-158.0,-25.0,209.0,-20.0,31.0,7.0,18.0,0.0
35.0,-28.0,-53.0,-179.0,-43.0,292.0,4.0,41.0,12.0,29.0,0.0
46.0,-50.0,-49.0,-156.0,21.0,331.0,-8.0,40.0,17.0,11.0,0.0
9.0,-64.0,-18.0,-118.0,100.0,262.0,-20.0,26.0,8.0,3.0,0.0
-22.0,-21.0,17.0,-95.0,70.0,155.0,-38.0,3.0,-25.0,-25.0,0.0
-39.0,-17.0,-27.0,-99.0,30.0,31.0,-74.0,-2.0,-31.0,-28.0,0.0
-32.0,-43.0,-23.0,-109.0,14.0,-110.0,-99.0,5.0,-7.0,4.0,0.0
-45.0,-53.0,25.0,-111.0,7.0,-235.0,-135.0,5.0,-30.0,-27.0,0.0
-87.0,-66.0,22.0,-112.0,-1.0,-340.0,-153.0,-3.0,-67.0,-51.0,0.0
-72.0,-36.0,9.0,-113.0,-4.0,-371.0,-143.0,-11.0,-76.0,-58.0,0.0
-9.0,-1.0,-34.0,-111.0,-10.0,-361.0,-124.0,-14.0,-67.0,-46.0,0.0
17.0,0.0,-49.0,-102.0,-15.0,-279.0,-106.0,-4.0,-16.0,-17.0,0.0
-9.0,-16.0,-113.0,-87.0,-17.0,-106.0,-73.0,10.0,29.0,31.0,0.0
-56.0,-31.0,-113.0,-97.0,-35.0,57.0,-40.0,23.0,69.0,64.0,0.0
-99.0,-59.0,-44.0,-85.0,-42.0,129.0,-53.0,23.0,71.0,40.0,0.0
-130.0,-108.0,22.0,-66.0,-31.0,133.0,-62.0,34.0,75.0,7.0,0.0
-122.0,-132.0,45.0,-80.0,-23.0,133.0,-36.0,46.0,74.0,-7.0,0.0
12.0,-34.0,-12.0,-116.0,-51.0,251.0,12.0,38.0,51.0,30.0,0.0
80.0,14.0,49.0,-131.0,-54.0,352.0,42.0,44.0,43.0,61.0,0.0
64.0,-10.0,48.0,-117.0,19.0,339.0,41.0,46.0,45.0,82.0,0.0
38.0,-17.0,55.0,-101.0,73.0,224.0,28.0,17.0,12.0,38.0,0.0
21.0,-19.0,62.0,-108.0,28.0,128.0,9.0,0.0,-9.0,4.0,0.0
-19.0,-30.0,46.0,-110.0,15.0,4.0,-23.0,10.0,12.0,-6.0,0.0
-74.0,-53.0,14.0,-102.0,37.0,-158.0,-48.0,17.0,14.0,-12.0,0.0
-99.0,-46.0,16.0,-90.0,49.0,-285.0,-75.0,15.0,-7.0,-35.0,0.0
-70.0,-16.0,24.0,-86.0,37.0,-360.0,-85.0,31.0,-7.0,-40.0,0.0
-42.0,-36.0,10.0,-83.0,37.0,-391.0,-86.0,46.0,-6.0,-17.0,0.0
-29.0,-37.0,18.0,-72.0,39.0,-347.0,-68.0,26.0,-31.0,-26.0,0.0
-42.0,11.0,43.0,-68.0,35.0,-213.0,-35.0,6.0,-41.0,-24.0,0.0
-77.0,33.0,53.0,-74.0,23.0,-32.0,-18.0,10.0,-28.0,10.0,0.0
-71.0,35.0,56.0,-73.0,22.0,67.0,-9.0,10.0,-29.0,18.0,0.0
-54.0,59.0,79.0,-58.0,22.0,122.0,14.0,0.0,-37.0,-17.0,0.0
-9.0,72.0,69.0,-57.0,22.0,155.0,49.0,14.0,-47.0,-22.0,0.0
46.0,58.0,37.0,-84.0,20.0,231.0,77.0,22.0,-31.0,-1.0,0.0
46.0,18.0,3.0,-106.0,13.0,325.0,98.0,21.0,-8.0,0.0,0.0
-22.0,-29.0,-20.0,-119.0,5.0,375.0,101.0,22.0,0.0,3.0,0.0
-119.0,-57.0,-30.0,-113.0,9.0,325.0,56.0,9.0,22.0,10.0,0.0
-111.0,-33.0,-45.0,-88.0,17.0,215.0,43.0,-6.0,28.0,21.0,0.0
-41.0,-40.0,-67.0,-70.0,2.0,151.0,48.0,-17.0,21.0,22.0,0.0
-2.0,-34.0,-34.0,-60.0,9.0,52.0,55.0,-20.0,0.0,-9.0,0.0
21.0,15.0,-49.0,-48.0,16.0,-108.0,55.0,0.0,17.0,-2.0,0.0
28.0,43.0,-39.0,-49.0,12.0,-244.0,40.0,22.0,26.0,11.0,0.0
20.0,53.0,49.0,-43.0,14.0,-310.0,41.0,12.0,3.0,7.0,0.0
70.0,51.0,46.0,-55.0,12.0,-315.0,47.0,3.0,-10.0,21.0,0.0
110.0,24.0,38.0,-80.0,-3.0,-235.0,104.0,4.0,-15.0,40.0,0.0
119.0,11.0,48.0,-86.0,-2.0,-42.0,191.0,-2.0,-9.0,45.0,0.0
94.0,6.0,41.0,-94.0,-11.0,151.0,205.0,-14.0,-16.0,40.0,0.0
10.0,-44.0,14.0,-98.0,-20.0,203.0,179.0,-24.0,-30.0,29.0,0.0
-35.0,-46.0,-41.0,-78.0,-11.0,185.0,158.0,-19.0,-45.0,12.0,0.0
-41.0,-32.0,-26.0,-65.0,8.0,196.0,150.0,5.0,-16.0,16.0,0.0
-75.0,-34.0,52.0,-51.0,31.0,260.0,170.0,26.0,2.0,13.0,0.0
-115.0,-47.0,48.0,-41.0,31.0,318.0,165.0,32.0,-2.0,-1.0,0.0
-140.0,-50.0,-9.0,-43.0,19.0,312.0,127.0,34.0,-33.0,-8.0,0.0
-135.0,-59.0,-59.0,-55.0,0.0,223.0,115.0,26.0,-33.0,-8.0,0.0
-96.0,-54.0,-2.0,-74.0,-7.0,108.0,106.0,10.0,-31.0,1.0,0.0
-39.0,-13.0,0.0,-83.0,-14.0,-10.0,129.0,10.0,-32.0,15.0,0.0
16.0,17.0,9.0,-93.0,-15.0,-140.0,142.0,6.0,-18.0,26.0,0.0
51.0,24.0,16.0,-98.0,-16.0,-248.0,131.0,-6.0,-57.0,25.0,0.0
54.0,-2.0,24.0,-107.0,-27.0,-337.0,102.0,-28.0,-210.0,11.0,0.0
20.0,30.0,47.0,-48.0,-12.0,-365.0,112.0,-7.0,-51.0,-7.0,0.0
10.0,76.0,66.0,-8.0,5.0,-350.0,134.0,2.0,43.0,-8.0,0.0
-7.0,81.0,53.0,-12.0,-2.0,-238.0,143.0,7.0,33.0,-12.0,0.0
-6.0,69.0,66.0,-22.0,-2.0,-47.0,145.0,1.0,30.0,-9.0,0.0
0.0,53.0,87.0,-24.0,-9.0,97.0,163.0,-7.0,20.0,-16.0,0.0
-10.0,44.0,79.0,-26.0,-8.0,143.0,161.0,-14.0,15.0,-24.0,0.0
-6.0,15.0,51.0,-39.0,-3.0,144.0,141.0,-5.0,13.0,-15.0,0.0
-33.0,-14.0,14.0,-47.0,-2.0,152.0,121.0,-3.0,15.0,-5.0,0.0
-49.0,-28.0,-14.0,-41.0,-3.0,239.0,109.0,5.0,31.0,3.0,0.0
-54.0,-43.0,-2.0,-45.0,-4.0,295.0,97.0,13.0,37.0,18.0,0.0
-54.0,-29.0,12.0,-47.0,-3.0,267.0,88.0,13.0,18.0,16.0,0.0
-30.0,-16.0,5.0,-47.0,0.0,158.0,75.0,-3.0,-11.0,4.0,0.0
1.0,-1.0,3.0,-49.0,12.0,55.0,65.0,-9.0,-7.0,-4.0,0.0
18.0,1.0,5.0,-63.0,22.0,-75.0,59.0,-12.0,-12.0,-2.0,0.0
19.0,7.0,-3.0,-67.0,18.0,-221.0,46.0,-11.0,-11.0,-2.0,0.0
18.0,10.0,-63.0,-66.0,12.0,-335.0,13.0,-17.0,-16.0,-10.0,0.0
-14.0,13.0,-30.0,-59.0,12.0,-406.0,-29.0,-22.0,-6.0,-5.0,0.0
-47.0,16.0,-25.0,-55.0,7.0,-418.0,-47.0,-12.0,27.0,12.0,0.0
-28.0,27.0,2.0,-76.0,-2.0,-382.0,-53.0,-1.0,15.0,29.0,0.0
48.0,71.0,2.0,-78.0,-13.0,-229.0,-16.0,-3.0,-11.0,31.0,0.0
123.0,108.0,-8.0,-73.0,-25.0,-34.0,12.0,-9.0,-33.0,31.0,0.0
134.0,131.0,12.0,-68.0,-24.0,69.0,54.0,-17.0,-51.0,33.0,0.0
144.0,150.0,36.0,-67.0,-18.0,124.0,104.0,-31.0,-30.0,33.0,0.0
176.0,163.0,35.0,-69.0,-25.0,173.0,128.0,-41.0,-30.0,17.0,0.0
148.0,134.0,22.0,-67.0,-35.0,226.0,129.0,-36.0,-29.0,-7.0,0.0
11.0,60.0,9.0,-49.0,-22.0,310.0,91.0,-25.0,-6.0,-36.0,0.0
-86.0,-22.0,16.0,-30.0,-5.0,316.0,43.0,11.0,-3.0,-25.0,0.0
-117.0,-77.0,7.0,-51.0,-4.0,220.0,21.0,37.0,23.0,9.0,0.0
-72.0,-40.0,4.0,-66.0,-15.0,106.0,20.0,26.0,47.0,25.0,0.0
-57.0,-34.0,2.0,-49.0,47.0,-16.0,0.0,7.0,24.0,4.0,0.0
-101.0,-73.0,-19.0,-34.0,123.0,-188.0,-56.0,6.0,31.0,-20.0,0.0
-95.0,-94.0,-55.0,-52.0,83.0,-325.0,-92.0,24.0,62.0,-9.0,0.0
-51.0,-55.0,-30.0,-63.0,43.0,-394.0,-94.0,18.0,69.0,-7.0,0.0
-20.0,-15.0,0.0,-67.0,39.0,-423.0,-73.0,2.0,50.0,-11.0,0.0
-3.0,24.0,-4.0,-66.0,31.0,-400.0,-57.0,3.0,33.0,-5.0,0.0
4.0,47.0,2.0,-55.0,26.0,-293.0,-62.0,-7.0,19.0,-7.0,0.0
-10.0,49.0,54.0,-58.0,20.0,-92.0,-46.0,-11.0,-4.0,-24.0,0.0
-6.0,57.0,61.0,-62.0,-4.0,46.0,-29.0,-19.0,-18.0,-27.0,0.0
20.0,63.0,89.0,-45.0,-24.0,133.0,-7.0,-31.0,-28.0,-18.0,0.0
53.0,56.0,83.0,-43.0,-1.0,156.0,1.0,-20.0,-40.0,-15.0,0.0
85.0,52.0,60.0,-36.0,6.0,161.0,-27.0,-4.0,-38.0,-12.0,0.0
96.0,60.0,51.0,-29.0,3.0,254.0,-12.0,-4.0,-28.0,0.0,0.0
142.0,68.0,35.0,-23.0,-7.0,364.0,-10.0,-4.0,-53.0,30.0,0.0
212.0,24.0,8.0,-38.0,-26.0,378.0,-4.0,5.0,-56.0,57.0,0.0
209.0,22.0,-8.0,-41.0,-31.0,284.0,-8.0,15.0,-48.0,63.0,0.0
163.0,31.0,0.0,-40.0,-13.0,169.0,-61.0,12.0,-38.0,60.0,0.0
34.0,-24.0,1.0,-36.0,9.0,9.0,-130.0,27.0,6.0,70.0,0.0
-44.0,-14.0,17.0,-26.0,16.0,-168.0,-180.0,38.0,19.0,56.0,0.0
-73.0,37.0,45.0,-12.0,6.0,-309.0,-206.0,21.0,28.0,0.0,0.0
-39.0,68.0,54.0,-7.0,-5.0,-400.0,-208.0,8.0,29.0,-45.0,0.0
10.0,74.0,42.0,-20.0,-24.0,-401.0,-196.0,5.0,14.0,-49.0,0.0
5.0,34.0,0.0,-40.0,-40.0,-348.0,-169.0,27.0,22.0,-20.0,0.0
-22.0,29.0,-22.0,-61.0,-59.0,-216.0,-160.0,45.0,55.0,10.0,0.0
-76.0,0.0,-38.0,-71.0,-68.0,-18.0,-138.0,53.0,70.0,64.0,0.0
-109.0,-15.0,-114.0,-38.0,-28.0,106.0,-139.0,32.0,56.0,48.0,0.0
-95.0,17.0,-46.0,4.0,19.0,138.0,-135.0,1.0,1.0,-11.0,0.0
-59.0,-3.0,-12.0,6.0,34.0,138.0,-134.0,-1.0,-9.0,3.0,0.0
-1.0,-35.0,-73.0,8.0,32.0,197.0,-110.0,13.0,10.0,37.0,0.0
42.0,-16.0,-30.0,-12.0,8.0,314.0,-70.0,10.0,12.0,32.0,0.0
13.0,-3.0,-63.0,-30.0,-3.0,385.0,-59.0,20.0,6.0,16.0,0.0
-52.0,-30.0,-64.0,-34.0,6.0,337.0,-95.0,34.0,-6.0,-19.0,0.0
-58.0,-42.0,-30.0,-19.0,17.0,226.0,-120.0,22.0,-4.0,-52.0,0.0
-27.0,-36.0,-27.0,-8.0,16.0,117.0,-146.0,24.0,-26.0,-63.0,0.0
-16.0,-34.0,-27.0,-8.0,6.0,-33.0,-171.0,39.0,-18.0,-52.0,0.0
31.0,8.0,-17.0,-16.0,-13.0,-180.0,-164.0,23.0,-15.0,-33.0,0.0
94.0,41.0,-51.0,-23.0,-46.0,-276.0,-131.0,17.0,-25.0,14.0,0.0
133.0,43.0,-63.0,-2.0,-27.0,-336.0,-131.0,12.0,-12.0,33.0,0.0
140.0,43.0,26.0,60.0,72.0,-338.0,-146.0,-22.0,-45.0,2.0,0.0
74.0,15.0,67.0,85.0,122.0,-292.0,-161.0,-33.0,-63.0,-35.0,0.0
22.0,26.0,105.0,70.0,83.0,-120.0,-135.0,-26.0,-59.0,-52.0,0.0
-33.0,33.0,115.0,57.0,62.0,83.0,-115.0,-18.0,-54.0,-69.0,0.0
-66.0,25.0,92.0,41.0,49.0,168.0,-77.0,-1.0,-36.0,-57.0,0.0
-99.0,61.0,89.0,31.0,37.0,160.0,-91.0,-8.0,-6.0,-46.0,0.0
-105.0,101.0,96.0,16.0,24.0,135.0,-94.0,-13.0,0.0,-44.0,0.0
-86.0,89.0,86.0,10.0,20.0,176.0,-77.0,9.0,45.0,-21.0,0.0
-77.0,44.0,55.0,7.0,24.0,271.0,-52.0,33.0,82.0,-2.0,0.0
-28.0,49.0,-4.0,11.0,29.0,303.0,-46.0,23.0,51.0,-25.0,0.0
34.0,47.0,-29.0,-6.0,3.0,255.0,-31.0,7.0,42.0,-34.0,0.0
39.0,-10.0,-88.0,-31.0,-24.0,165.0,-28.0,16.0,38.0,-20.0,0.0
-33.0,-100.0,-84.0,-51.0,-25.0,36.0,-75.0,22.0,32.0,0.0,0.0
-93.0,-121.0,-110.0,-63.0,-23.0,-117.0,-106.0,20.0,32.0,-2.0,0.0
-82.0,-89.0,-62.0,-65.0,-10.0,-241.0,-106.0,27.0,20.0,-20.0,0.0
-91.0,-129.0,-29.0,-45.0,-2.0,-340.0,-109.0,31.0,10.0,-33.0,0.0
-117.0,-150.0,-34.0,-24.0,-11.0,-394.0,-113.0,24.0,10.0,-21.0,0.0
-75.0,-100.0,-2.0,2.0,-1.0,-384.0,-108.0,4.0,-6.0,-17.0,0.0
-31.0,-74.0,13.0,37.0,14.0,-287.0,-87.0,-19.0,-28.0,-19.0,0.0
-21.0,-62.0,-1.0,14.0,-1.0,-93.0,-43.0,-17.0,-47.0,-12.0,0.0
-17.0,-56.0,-52.0,-16.0,-24.0,79.0,-1.0,-4.0,-39.0,1.0,0.0
-28.0,-62.0,-95.0,-20.0,-37.0,123.0,22.0,8.0,-24.0,-1.0,0.0
-43.0,-46.0,-16.0,-24.0,-42.0,114.0,19.0,29.0,-24.0,-9.0,0.0
-20.0,-20.0,50.0,-41.0,-47.0,143.0,54.0,93.0,9.0,-1.0,0.0
15.0,-25.0,44.0,-51.0,-77.0,225.0,93.0,52.0,-12.0,14.0,0.0
19.0,-30.0,36.0,-49.0,-73.0,282.0,92.0,8.0,-49.0,6.0,0.0
2.0,-35.0,39.0,-31.0,8.0,261.0,87.0,-1.0,-55.0,-11.0,0.0
-11.0,-41.0,33.0,-13.0,52.0,158.0,79.0,-1.0,-49.0,-21.0,0.0
-8.0,-26.0,30.0,-17.0,2.0,66.0,75.0,16.0,-23.0,-20.0,0.0
-5.0,-15.0,22.0,-35.0,-23.0,-44.0,72.0,2.0,-5.0,-13.0,0.0
-1.0,0.0,11.0,-50.0,-28.0,-186.0,43.0,-3.0,-23.0,-1.0,0.0
16.0,7.0,-20.0,-52.0,-35.0,-300.0,-10.0,-5.0,-29.0,3.0,0.0
15.0,10.0,-96.0,-57.0,-40.0,-369.0,-24.0,-14.0,-2.0,-2.0,0.0
2.0,18.0,-45.0,-54.0,-32.0,-393.0,-24.0,-15.0,2.0,-1.0,0.0
-9.0,10.0,-14.0,-38.0,-22.0,-356.0,-6.0,-8.0,16.0,-2.0,0.0
-35.0,-2.0,-18.0,-41.0,-13.0,-212.0,52.0,-10.0,33.0,-4.0,0.0
-34.0,-7.0,4.0,-38.0,-17.0,-19.0,103.0,-7.0,27.0,5.0,0.0
-33.0,7.0,17.0,-30.0,-13.0,87.0,132.0,-4.0,11.0,2.0,0.0
-38.0,5.0,19.0,-12.0,-18.0,110.0,145.0,-2.0,-1.0,-3.0,0.0
-28.0,22.0,22.0,-10.0,-26.0,115.0,131.0,-1.0,-11.0,-2.0,0.0
-19.0,13.0,28.0,-6.0,-22.0,173.0,101.0,-7.0,-29.0,-10.0,0.0
-14.0,-9.0,15.0,-13.0,-21.0,258.0,73.0,-10.0,-44.0,-21.0,0.0
32.0,-21.0,-2.0,-30.0,-22.0,305.0,103.0,4.0,-54.0,-7.0,0.0
112.0,-18.0,-17.0,-34.0,-10.0,242.0,112.0,15.0,-57.0,8.0,0.0
138.0,-7.0,-25.0,-43.0,-1.0,140.0,107.0,13.0,-52.0,9.0,0.0
102.0,0.0,-20.0,-47.0,0.0,47.0,103.0,14.0,-51.0,15.0,0.0
65.0,16.0,-11.0,-42.0,-10.0,-86.0,80.0,9.0,-51.0,9.0,0.0
47.0,32.0,-8.0,-46.0,-14.0,-220.0,64.0,6.0,-43.0,-1.0,0.0
-3.0,16.0,-72.0,-40.0,-10.0,-336.0,36.0,7.0,-38.0,-13.0,0.0
-89.0,5.0,-60.0,-20.0,-6.0,-416.0,10.0,13.0,-24.0,-22.0,0.0
-145.0,9.0,18.0,1.0,10.0,-423.0,-14.0,23.0,20.0,-8.0,0.0
-153.0,40.0,55.0,19.0,24.0,-351.0,-4.0,46.0,33.0,-2.0,0.0
-101.0,86.0,75.0,33.0,28.0,-141.0,44.0,50.0,35.0,-12.0,0.0
-49.0,135.0,97.0,32.0,28.0,22.0,88.0,14.0,25.0,-28.0,0.0
-15.0,149.0,124.0,47.0,27.0,94.0,107.0,0.0,-15.0,-61.0,0.0
38.0,113.0,102.0,38.0,23.0,141.0,125.0,-7.0,-37.0,-75.0,0.0
58.0,76.0,70.0,2.0,26.0,175.0,104.0,-10.0,-41.0,-78.0,0.0
82.0,57.0,46.0,-9.0,24.0,260.0,93.0,-11.0,-42.0,-59.0,0.0
136.0,40.0,25.0,0.0,7.0,349.0,114.0,-10.0,-23.0,-20.0,0.0
119.0,-11.0,18.0,3.0,3.0,372.0,95.0,5.0,-22.0,8.0,0.0
77.0,-59.0,4.0,4.0,11.0,260.0,49.0,18.0,-5.0,14.0,0.0
24.0,-162.0,-33.0,-31.0,9.0,122.0,4.0,39.0,33.0,43.0,0.0
-45.0,-211.0,-63.0,-54.0,-4.0,0.0,-42.0,59.0,62.0,93.0,0.0
-72.0,-150.0,-31.0,-32.0,0.0,-170.0,-72.0,43.0,33.0,31.0,0.0
-108.0,-83.0,29.0,-5.0,1.0,-309.0,-118.0,3.0,-34.0,-70.0,0.0
-95.0,-57.0,46.0,-13.0,5.0,-388.0,-119.0,2.0,-54.0,-93.0,0.0
-59.0,-46.0,12.0,-42.0,-3.0,-401.0,-105.0,8.0,-49.0,-63.0,0.0
-48.0,-36.0,-16.0,-54.0,-20.0,-368.0,-79.0,3.0,-44.0,-45.0,0.0
-43.0,-16.0,-98.0,-68.0,-28.0,-235.0,-55.0,10.0,-32.0,-18.0,0.0
-43.0,-12.0,-142.0,-59.0,-28.0,-25.0,-37.0,3.0,-24.0,0.0,0.0
-31.0,-12.0,-135.0,-45.0,-14.0,109.0,-22.0,-5.0,-18.0,-18.0,0.0
-32.0,-19.0,-111.0,-26.0,-4.0,130.0,-19.0,-5.0,-13.0,-18.0,0.0
-43.0,-19.0,4.0,-13.0,-9.0,112.0,-13.0,0.0,-25.0,-26.0,0.0
-45.0,-14.0,13.0,-19.0,7.0,134.0,-18.0,-2.0,-21.0,-35.0,0.0
-22.0,7.0,-16.0,-10.0,14.0,216.0,-10.0,10.0,-2.0,-18.0,0.0
-20.0,2.0,5.0,-14.0,4.0,284.0,24.0,19.0,14.0,-4.0,0.0
-30.0,0.0,-85.0,-15.0,11.0,269.0,12.0,21.0,39.0,-13.0,0.0
-19.0,0.0,-112.0,-17.0,19.0,174.0,-29.0,20.0,30.0,-12.0,0.0
-1.0,4.0,-51.0,-14.0,20.0,69.0,-37.0,11.0,7.0,-14.0,0.0
40.0,17.0,38.0,-3.0,26.0,-65.0,-38.0,10.0,-14.0,-14.0,0.0
89.0,44.0,65.0,3.0,26.0,-209.0,-24.0,1.0,-22.0,-3.0,0.0
122.0,62.0,48.0,-14.0,11.0,-313.0,-23.0,4.0,-17.0,13.0,0.0
127.0,35.0,12.0,-48.0,-10.0,-383.0,-27.0,21.0,22.0,44.0,0.0
107.0,-3.0,-13.0,-60.0,-21.0,-381.0,-39.0,43.0,29.0,55.0,0.0
128.0,5.0,-8.0,-69.0,-16.0,-311.0,-16.0,36.0,18.0,41.0,0.0
144.0,37.0,-13.0,-80.0,-38.0,-144.0,16.0,25.0,27.0,51.0,0.0
126.0,45.0,-30.0,-88.0,-48.0,39.0,64.0,42.0,36.0,99.0,0.0
113.0,38.0,-26.0,-71.0,-18.0,123.0,56.0,41.0,-2.0,83.0,0.0
48.0,17.0,-18.0,-60.0,-7.0,124.0,28.0,24.0,-22.0,53.0,0.0
-24.0,30.0,-4.0,-48.0,-3.0,130.0,24.0,13.0,-36.0,11.0,0.0
-119.0,-14.0,-32.0,0.0,3.0,167.0,-1.0,13.0,-28.0,6.0,0.0
-129.0,-65.0,-52.0,10.0,-13.0,252.0,5.0,16.0,-11.0,45.0,0.0
-147.0,-78.0,30.0,43.0,-13.0,307.0,1.0,-1.0,-8.0,15.0,0.0
-193.0,-86.0,81.0,113.0,31.0,250.0,-38.0,-33.0,-62.0,-75.0,0.0
-141.0,-48.0,98.0,110.0,35.0,170.0,-42.0,-41.0,-81.0,-86.0,0.0
-77.0,-17.0,109.0,91.0,31.0,68.0,-44.0,-26.0,-52.0,-63.0,0.0
-35.0,-18.0,106.0,102.0,44.0,-97.0,-51.0,-11.0,-33.0,-52.0,0.0
-36.0,-23.0,65.0,91.0,24.0,-236.0,-63.0,-3.0,-41.0,-41.0,0.0
-64.0,-11.0,-14.0,64.0,-8.0,-330.0,-73.0,-7.0,-64.0,-48.0,0.0
-83.0,-5.0,19.0,43.0,-26.0,-372.0,-41.0,-14.0,-52.0,-34.0,0.0
-90.0,16.0,-15.0,38.0,-25.0,-386.0,-35.0,-28.0,-41.0,-38.0,0.0
-97.0,23.0,-11.0,41.0,-29.0,-284.0,-32.0,-41.0,-48.0,-55.0,0.0
-79.0,13.0,74.0,53.0,-20.0,-69.0,16.0,-26.0,-26.0,-53.0,0.0
-59.0,-5.0,76.0,64.0,5.0,93.0,53.0,-13.0,6.0,-51.0,0.0
-23.0,-6.0,63.0,64.0,4.0,173.0,86.0,-4.0,6.0,-70.0,0.0
26.0,11.0,45.0,51.0,-11.0,188.0,123.0,5.0,26.0,-51.0,0.0
34.0,-1.0,29.0,39.0,-21.0,220.0,153.0,7.0,63.0,-11.0,0.0
13.0,0.0,34.0,42.0,-20.0,293.0,146.0,0.0,58.0,0.0,0.0
-18.0,-4.0,24.0,45.0,-8.0,362.0,150.0,13.0,66.0,22.0,0.0
-23.0,-26.0,1.0,19.0,-7.0,369.0,148.0,31.0,86.0,51.0,0.0
-30.0,-6.0,-26.0,10.0,-12.0,260.0,92.0,29.0,39.0,12.0,0.0
-60.0,-4.0,-20.0,7.0,46.0,136.0,54.0,14.0,18.0,-25.0,0.0
-61.0,-12.0,-40.0,5.0,96.0,4.0,22.0,-12.0,2.0,-29.0,0.0
-18.0,-7.0,-22.0,-1.0,52.0,-145.0,38.0,-4.0,-6.0,-19.0,0.0
28.0,-3.0,1.0,0.0,14.0,-269.0,23.0,-2.0,-5.0,-6.0,0.0
47.0,-9.0,-4.0,-13.0,9.0,-343.0,-4.0,-1.0,-8.0,1.0,0.0
28.0,-35.0,-16.0,-24.0,9.0,-362.0,-29.0,8.0,-22.0,2.0,0.0
-64.0,-99.0,-30.0,-12.0,-9.0,-345.0,-35.0,11.0,-20.0,-12.0,0.0
-114.0,-139.0,-24.0,-3.0,-18.0,-208.0,-9.0,6.0,-15.0,-18.0,0.0
-77.0,-87.0,-25.0,4.0,-8.0,4.0,35.0,10.0,-31.0,-7.0,0.0
-38.0,-24.0,-37.0,18.0,9.0,149.0,74.0,11.0,-33.0,0.0,0.0
-4.0,6.0,-98.0,17.0,2.0,198.0,76.0,21.0,-39.0,2.0,0.0
8.0,5.0,-19.0,19.0,-6.0,194.0,81.0,22.0,-43.0,1.0,0.0
13.0,-3.0,27.0,14.0,-9.0,247.0,96.0,27.0,-17.0,6.0,0.0
16.0,-1.0,-16.0,4.0,-14.0,348.0,114.0,41.0,4.0,7.0,0.0
18.0,-3.0,-42.0,-11.0,-16.0,390.0,142.0,46.0,34.0,-2.0,0.0
10.0,-9.0,12.0,-20.0,-26.0,351.0,167.0,52.0,59.0,8.0,0.0
23.0,2.0,2.0,-33.0,-54.0,265.0,194.0,52.0,39.0,34.0,0.0
48.0,19.0,-5.0,-38.0,-54.0,156.0,180.0,47.0,18.0,20.0,0.0
30.0,7.0,-11.0,-8.0,16.0,8.0,154.0,39.0,7.0,-6.0,0.0
1.0,-4.0,-11.0,-10.0,60.0,-139.0,133.0,36.0,10.0,2.0,0.0
-23.0,6.0,0.0,-27.0,19.0,-259.0,115.0,37.0,23.0,25.0,0.0
0.0,7.0,0.0,-33.0,-10.0,-340.0,118.0,32.0,21.0,54.0,0.0
65.0,15.0,-1.0,-29.0,-8.0,-353.0,137.0,17.0,4.0,54.0,0.0
162.0,39.0,13.0,-17.0,1.0,-272.0,170.0,-15.0,-21.0,34.0,0.0
200.0,68.0,40.0,-10.0,7.0,-70.0,227.0,-24.0,-31.0,22.0,0.0
200.0,84.0,54.0,-12.0,7.0,91.0,258.0,-23.0,-31.0,20.0,0.0
181.0,52.0,35.0,-3.0,3.0,192.0,245.0,-15.0,-16.0,12.0,0.0
99.0,31.0,24.0,20.0,-4.0,222.0,214.0,-17.0,-32.0,-40.0,0.0
-22.0,4.0,-65.0,30.0,1.0,222.0,162.0,-12.0,-44.0,-87.0,0.0
-93.0,-47.0,-117.0,14.0,4.0,265.0,140.0,5.0,-56.0,-82.0,0.0
-94.0,-64.0,-29.0,-6.0,-6.0,309.0,139.0,16.0,-37.0,-49.0,0.0
-48.0,-11.0,11.0,0.0,-17.0,332.0,149.0,6.0,-30.0,-20.0,0.0
5.0,48.0,50.0,13.0,-24.0,276.0,131.0,-12.0,-56.0,-37.0,0.0
35.0,69.0,69.0,18.0,-17.0,167.0,127.0,-17.0,-76.0,-41.0,0.0
50.0,50.0,46.0,5.0,-14.0,28.0,92.0,-13.0,-54.0,-26.0,0.0
46.0,-3.0,10.0,-2.0,-13.0,-129.0,77.0,0.0,-46.0,-6.0,0.0
35.0,-41.0,-15.0,5.0,-1.0,-250.0,50.0,27.0,3.0,25.0,0.0
30.0,-28.0,29.0,24.0,7.0,-324.0,4.0,35.0,22.0,22.0,0.0
-3.0,-14.0,43.0,21.0,31.0,-364.0,-10.0,38.0,26.0,0.0,0.0
-25.0,-5.0,34.0,17.0,41.0,-353.0,-4.0,21.0,35.0,-14.0,0.0
-21.0,9.0,28.0,18.0,34.0,-227.0,28.0,9.0,57.0,-10.0,0.0
-36.0,5.0,-1.0,13.0,39.0,-36.0,57.0,28.0,66.0,10.0,0.0
-45.0,18.0,28.0,-1.0,20.0,103.0,51.0,26.0,56.0,15.0,0.0
-38.0,53.0,58.0,-10.0,2.0,169.0,39.0,13.0,40.0,11.0,0.0
-8.0,57.0,45.0,-22.0,-1.0,164.0,35.0,15.0,38.0,30.0,0.0
25.0,29.0,32.0,-24.0,-1.0,175.0,18.0,18.0,31.0,27.0,0.0
55.0,7.0,35.0,-8.0,3.0,275.0,22.0,13.0,1.0,15.0,0.0
87.0,-24.0,2.0,-27.0,-7.0,360.0,15.0,14.0,-1.0,25.0,0.0
92.0,-29.0,-1.0,-23.0,-2.0,339.0,-13.0,10.0,-10.0,19.0,0.0
45.0,-28.0,-10.0,20.0,27.0,231.0,-70.0,4.0,-13.0,24.0,0.0
8.0,-16.0,-87.0,42.0,34.0,123.0,-92.0,-5.0,-23.0,21.0,0.0
10.0,15.0,-28.0,8.0,24.0,-35.0,-118.0,-4.0,-21.0,-12.0,0.0
2.0,29.0,5.0,-22.0,27.0,-194.0,-143.0,9.0,-11.0,-10.0,0.0
6.0,27.0,-19.0,-34.0,35.0,-304.0,-143.0,8.0,-5.0,14.0,0.0
-12.0,-7.0,-29.0,-45.0,29.0,-367.0,-183.0,4.0,-1.0,28.0,0.0
-34.0,-42.0,-65.0,-54.0,21.0,-392.0,-205.0,27.0,7.0,34.0,0.0
-28.0,-36.0,-161.0,-46.0,20.0,-348.0,-188.0,38.0,3.0,49.0,0.0
-18.0,-12.0,-77.0,-20.0,24.0,-181.0,-147.0,23.0,3.0,44.0,0.0
-8.0,-3.0,52.0,15.0,32.0,22.0,-128.0,4.0,-10.0,19.0,0.0
0.0,-4.0,73.0,48.0,52.0,143.0,-121.0,-8.0,-28.0,-15.0,0.0
32.0,-5.0,82.0,37.0,53.0,166.0,-108.0,-7.0,-30.0,-25.0,0.0
74.0,9.0,101.0,21.0,20.0,185.0,-91.0,-4.0,-15.0,5.0,0.0
97.0,43.0,97.0,35.0,3.0,250.0,-95.0,-15.0,-31.0,22.0,0.0
127.0,100.0,62.0,22.0,-5.0,338.0,-64.0,-23.0,-63.0,19.0,0.0
151.0,121.0,80.0,15.0,-22.0,391.0,-49.0,-22.0,-37.0,39.0,0.0
107.0,123.0,61.0,11.0,-25.0,341.0,-51.0,-20.0,-12.0,30.0,0.0
60.0,105.0,-67.0,-15.0,-24.0,239.0,-62.0,-8.0,10.0,4.0,0.0
19.0,57.0,-104.0,-22.0,4.0,122.0,-97.0,12.0,33.0,-34.0,0.0
-24.0,29.0,12.0,4.0,29.0,-42.0,-139.0,22.0,35.0,-57.0,0.0
-26.0,54.0,60.0,0.0,6.0,-175.0,-143.0,6.0,35.0,-39.0,0.0
-8.0,39.0,46.0,-9.0,-7.0,-261.0,-140.0,13.0,47.0,2.0,0.0
-12.0,9.0,44.0,-14.0,-3.0,-325.0,-148.0,24.0,70.0,47.0,0.0
-69.0,-28.0,40.0,-14.0,13.0,-337.0,-164.0,22.0,62.0,33.0,0.0
-116.0,-106.0,18.0,-20.0,29.0,-262.0,-162.0,39.0,60.0,0.0,0.0
-79.0,-103.0,25.0,-16.0,31.0,-70.0,-90.0,32.0,41.0,-18.0,0.0
-44.0,-64.0,42.0,-5.0,26.0,75.0,-59.0,24.0,26.0,-7.0,0.0
-20.0,-53.0,36.0,-7.0,27.0,141.0,-49.0,37.0,32.0,21.0,0.0
-18.0,-59.0,10.0,-18.0,8.0,157.0,-42.0,36.0,36.0,51.0,0.0
-31.0,-61.0,-3.0,-28.0,-2.0,169.0,-41.0,19.0,22.0,65.0,0.0
-41.0,-33.0,19.0,-20.0,6.0,240.0,-62.0,1.0,-20.0,24.0,0.0
-24.0,-15.0,-33.0,-13.0,17.0,329.0,-23.0,7.0,-32.0,6.0,0.0
36.0,-16.0,-132.0,-30.0,13.0,360.0,0.0,21.0,-32.0,24.0,0.0
94.0,-13.0,-118.0,-56.0,-13.0,272.0,-3.0,19.0,-22.0,54.0,0.0
105.0,-8.0,-36.0,-75.0,-39.0,157.0,-12.0,12.0,-15.0,70.0,0.0
70.0,-19.0,-12.0,-64.0,-49.0,22.0,-24.0,8.0,-20.0,45.0,0.0
71.0,-40.0,-14.0,-61.0,-40.0,-148.0,-35.0,35.0,-5.0,64.0,0.0
86.0,-23.0,5.0,-41.0,-42.0,-282.0,-37.0,48.0,0.0,49.0,0.0
72.0,-6.0,28.0,-26.0,-56.0,-363.0,-48.0,45.0,-10.0,12.0,0.0
48.0,-13.0,-12.0,-12.0,-47.0,-376.0,-52.0,50.0,13.0,66.0,0.0
8.0,-23.0,-79.0,7.0,45.0,-345.0,-55.0,51.0,37.0,85.0,0.0
-57.0,-17.0,14.0,14.0,72.0,-210.0,-33.0,42.0,50.0,59.0,0.0
-80.0,12.0,77.0,7.0,-2.0,-6.0,11.0,50.0,46.0,34.0,0.0
-93.0,27.0,108.0,37.0,-2.0,121.0,27.0,29.0,21.0,-15.0,0.0
-59.0,9.0,75.0,50.0,62.0,144.0,62.0,26.0,27.0,-27.0,0.0
22.0,22.0,28.0,13.0,75.0,141.0,82.0,5.0,11.0,-30.0,0.0
35.0,26.0,10.0,-7.0,18.0,184.0,108.0,5.0,12.0,-57.0,0.0
-26.0,0.0,-3.0,-10.0,8.0,263.0,92.0,7.0,22.0,-69.0,0.0
-22.0,-7.0,17.0,-1.0,9.0,322.0,80.0,9.0,42.0,-51.0,0.0
-3.0,21.0,35.0,9.0,7.0,306.0,82.0,4.0,26.0,-13.0,0.0
-27.0,5.0,17.0,13.0,15.0,180.0,51.0,11.0,15.0,16.0,0.0
-66.0,-43.0,-8.0,10.0,24.0,58.0,0.0,14.0,0.0,2.0,0.0
-91.0,-105.0,30.0,3.0,29.0,-107.0,-40.0,19.0,-17.0,-15.0,0.0
-40.0,-74.0,18.0,-15.0,11.0,-250.0,-48.0,20.0,-25.0,-6.0,0.0
21.0,-25.0,15.0,-17.0,7.0,-339.0,-40.0,13.0,-17.0,1.0,0.0
24.0,-1.0,18.0,-2.0,5.0,-393.0,-31.0,-1.0,-27.0,-13.0,0.0
9.0,-2.0,21.0,13.0,14.0,-410.0,-38.0,-13.0,-31.0,-9.0,0.0
5.0,14.0,35.0,29.0,19.0,-345.0,-40.0,-13.0,-42.0,0.0,0.0
15.0,29.0,44.0,17.0,20.0,-155.0,3.0,-19.0,-73.0,16.0,0.0
32.0,23.0,39.0,-9.0,9.0,25.0,64.0,-18.0,-56.0,15.0,0.0
44.0,18.0,36.0,-17.0,-1.0,98.0,88.0,-11.0,-47.0,8.0,0.0
56.0,34.0,18.0,-27.0,-15.0,109.0,88.0,-6.0,-49.0,13.0,0.0
69.0,31.0,-18.0,-34.0,-9.0,127.0,99.0,-4.0,-59.0,29.0,0.0
76.0,24.0,-40.0,-34.0,-13.0,217.0,107.0,-6.0,-47.0,36.0,0.0
75.0,33.0,6.0,-13.0,-15.0,330.0,106.0,-12.0,-17.0,37.0,0.0
77.0,57.0,13.0,-4.0,1.0,367.0,121.0,-13.0,-5.0,34.0,0.0
73.0,86.0,-29.0,36.0,16.0,294.0,138.0,-35.0,-17.0,30.0,0.0
93.0,76.0,31.0,73.0,37.0,188.0,118.0,-61.0,-37.0,1.0,0.0
124.0,89.0,67.0,51.0,22.0,91.0,84.0,-71.0,-40.0,-20.0,0.0
87.0,55.0,74.0,35.0,8.0,-59.0,29.0,-66.0,-16.0,-17.0,0.0
2.0,-18.0,48.0,23.0,1.0,-203.0,-7.0,-48.0,-1.0,-7.0,0.0
-56.0,-82.0,7.0,15.0,-4.0,-304.0,-25.0,-35.0,18.0,-1.0,0.0
-15.0,-66.0,19.0,9.0,8.0,-355.0,-25.0,-13.0,34.0,-14.0,0.0
45.0,-46.0,36.0,-2.0,16.0,-353.0,-6.0,-2.0,14.0,-12.0,0.0
54.0,-30.0,-7.0,-9.0,-7.0,-228.0,11.0,2.0,-1.0,1.0,0.0
50.0,-32.0,-47.0,-25.0,-29.0,-27.0,57.0,-2.0,0.0,32.0,0.0
58.0,-38.0,-41.0,-27.0,-29.0,129.0,81.0,-20.0,-1.0,41.0,0.0
36.0,-32.0,21.0,2.0,-21.0,198.0,67.0,-34.0,-15.0,12.0,0.0
-7.0,-26.0,18.0,-1.0,-16.0,186.0,34.0,-28.0,-18.0,-18.0,0.0
-46.0,-34.0,0.0,-16.0,-16.0,205.0,12.0,-23.0,3.0,0.0,0.0
-96.0,-60.0,-11.0,-22.0,-13.0,272.0,12.0,-6.0,23.0,31.0,0.0
-110.0,-46.0,-16.0,-15.0,-3.0,328.0,-1.0,-10.0,-16.0,-16.0,0.0
-90.0,-29.0,-9.0,-21.0,1.0,330.0,15.0,-22.0,-36.0,-40.0,0.0
-70.0,-42.0,1.0,-22.0,0.0,230.0,-2.0,-29.0,-46.0,-24.0,0.0
-67.0,-40.0,23.0,-20.0,-5.0,108.0,-47.0,-29.0,-39.0,-7.0,0.0
-59.0,-29.0,18.0,-15.0,2.0,-50.0,-50.0,-21.0,-23.0,7.0,0.0
-41.0,-27.0,4.0,-18.0,10.0,-220.0,-76.0,-15.0,-7.0,29.0,0.0
-19.0,-7.0,-7.0,-31.0,0.0,-331.0,-73.0,-15.0,-14.0,19.0,0.0
23.0,15.0,-36.0,-26.0,-6.0,-377.0,-56.0,-19.0,-36.0,-7.0,0.0
70.0,29.0,-87.0,-31.0,-4.0,-370.0,-49.0,-32.0,-39.0,-11.0,0.0
102.0,44.0,-9.0,-28.0,-8.0,-326.0,-35.0,-36.0,-55.0,-20.0,0.0
107.0,45.0,-7.0,-28.0,1.0,-162.0,-12.0,-33.0,-46.0,-2.0,0.0
141.0,61.0,1.0,-39.0,-16.0,36.0,28.0,-29.0,-7.0,23.0,0.0
142.0,54.0,14.0,-45.0,-17.0,144.0,48.0,-6.0,12.0,31.0,0.0
74.0,16.0,13.0,-32.0,4.0,157.0,50.0,12.0,43.0,23.0,0.0
-10.0,-17.0,-2.0,-23.0,9.0,119.0,13.0,22.0,50.0,15.0,0.0
-50.0,-38.0,-67.0,-15.0,0.0,135.0,-20.0,22.0,21.0,10.0,0.0
-70.0,-38.0,-76.0,2.0,1.0,233.0,-43.0,18.0,13.0,3.0,0.0
-58.0,-18.0,17.0,19.0,11.0,299.0,-59.0,1.0,0.0,-24.0,0.0
-50.0,-16.0,42.0,32.0,31.0,252.0,-55.0,-16.0,-21.0,-33.0,0.0
-37.0,-3.0,62.0,47.0,20.0,152.0,-92.0,-23.0,-60.0,-15.0,0.0
-21.0,0.0,61.0,40.0,4.0,54.0,-97.0,-30.0,-51.0,3.0,0.0
-8.0,-4.0,52.0,24.0,9.0,-109.0,-98.0,-31.0,-47.0,0.0,0.0
-26.0,-18.0,41.0,9.0,16.0,-265.0,-106.0,0.0,-14.0,-6.0,0.0
-39.0,-35.0,15.0,4.0,12.0,-358.0,-96.0,13.0,0.0,4.0,0.0
-33.0,-29.0,-33.0,-1.0,14.0,-394.0,-88.0,15.0,-21.0,14.0,0.0
-31.0,-11.0,-37.0,0.0,9.0,-400.0,-78.0,-1.0,-29.0,3.0,0.0
-24.0,0.0,-111.0,1.0,3.0,-333.0,-58.0,-12.0,-24.0,0.0,0.0
18.0,10.0,-80.0,4.0,-3.0,-127.0,-8.0,-21.0,-45.0,9.0,0.0
39.0,0.0,36.0,6.0,1.0,61.0,36.0,-20.0,-38.0,1.0,0.0
23.0,-29.0,63.0,-7.0,7.0,141.0,42.0,-22.0,-44.0,7.0,0.0
-2.0,-62.0,29.0,-21.0,6.0,146.0,27.0,-14.0,-11.0,12.0,0.0
-52.0,-89.0,6.0,-30.0,5.0,130.0,-8.0,5.0,21.0,44.0,0.0
-60.0,-61.0,12.0,-30.0,6.0,192.0,1.0,15.0,25.0,61.0,0.0
-23.0,-7.0,20.0,-19.0,3.0,282.0,26.0,2.0,-12.0,33.0,0.0
36.0,18.0,12.0,-21.0,-3.0,309.0,32.0,-3.0,-2.0,20.0,0.0
137.0,31.0,-22.0,-27.0,-11.0,243.0,56.0,-12.0,13.0,26.0,0.0
196.0,60.0,-118.0,-17.0,-1.0,165.0,54.0,-26.0,-1.0,-4.0,0.0
183.0,93.0,-82.0,-10.0,11.0,55.0,54.0,-39.0,-20.0,-39.0,0.0
94.0,107.0,-20.0,6.0,4.0,-110.0,54.0,-33.0,-6.0,-50.0,0.0
8.0,84.0,-12.0,10.0,-21.0,-247.0,21.0,-43.0,17.0,-6.0,0.0
-31.0,24.0,38.0,1.0,-33.0,-370.0,-20.0,-26.0,54.0,64.0,0.0
-75.0,-13.0,57.0,18.0,-18.0,-443.0,-70.0,-12.0,42.0,45.0,0.0
-107.0,-26.0,82.0,39.0,-6.0,-439.0,-109.0,-27.0,7.0,-33.0,0.0
-96.0,-32.0,80.0,38.0,-9.0,-311.0,-113.0,-20.0,-1.0,-38.0,0.0
-54.0,-25.0,53.0,13.0,-9.0,-107.0,-50.0,4.0,-1.0,-26.0,0.0
-36.0,-22.0,18.0,-21.0,-17.0,34.0,-15.0,-3.0,-12.0,-42.0,0.0
-48.0,-42.0,-27.0,-33.0,-19.0,71.0,-17.0,-10.0,-26.0,-38.0,0.0
-49.0,-46.0,0.0,-35.0,-13.0,67.0,-10.0,-2.0,-27.0,-18.0,0.0
-70.0,-52.0,7.0,-31.0,-21.0,99.0,-9.0,-5.0,-9.0,-16.0,0.0
-110.0,-79.0,8.0,-31.0,-18.0,190.0,6.0,-6.0,-21.0,-20.0,0.0
-132.0,-133.0,0.0,-24.0,14.0,259.0,-2.0,-1.0,-22.0,-23.0,0.0
-107.0,-106.0,7.0,-18.0,17.0,229.0,-11.0,8.0,0.0,-21.0,0.0
-74.0,-50.0,16.0,-18.0,16.0,117.0,-2.0,-6.0,5.0,-24.0,0.0
-57.0,-21.0,17.0,-22.0,16.0,15.0,1.0,-21.0,4.0,-25.0,0.0
-39.0,-3.0,25.0,-20.0,3.0,-117.0,-3.0,-22.0,5.0,-22.0,0.0
-29.0,2.0,29.0,-18.0,7.0,-258.0,-15.0,-20.0,1.0,-16.0,0.0
-9.0,-1.0,-30.0,-8.0,11.0,-347.0,-16.0,-26.0,7.0,-5.0,0.0
-9.0,-30.0,-76.0,-13.0,-8.0,-415.0,-14.0,-20.0,21.0,1.0,0.0
-12.0,-34.0,-4.0,-23.0,-21.0,-437.0,-8.0,-17.0,21.0,6.0,0.0
-12.0,-17.0,6.0,-16.0,-26.0,-367.0,13.0,-21.0,0.0,0.0,0.0
17.0,3.0,4.0,-23.0,-28.0,-187.0,32.0,-13.0,5.0,0.0,0.0
55.0,21.0,-6.0,-32.0,-31.0,11.0,44.0,-13.0,23.0,-16.0,0.0
62.0,45.0,-2.0,-25.0,-43.0,95.0,59.0,-5.0,28.0,-16.0,0.0
61.0,57.0,-2.0,-44.0,-59.0,102.0,64.0,-2.0,34.0,0.0,0.0
48.0,49.0,-16.0,-68.0,-83.0,106.0,42.0,8.0,26.0,21.0,0.0
30.0,41.0,-21.0,-77.0,-104.0,174.0,50.0,10.0,33.0,46.0,0.0
10.0,6.0,-26.0,-88.0,-139.0,248.0,70.0,16.0,34.0,59.0,0.0
13.0,-31.0,-28.0,-77.0,-128.0,281.0,59.0,2.0,10.0,41.0,0.0
-5.0,-54.0,-62.0,-44.0,-56.0,198.0,34.0,1.0,6.0,23.0,0.0
-5.0,-58.0,-120.0,-39.0,-27.0,102.0,23.0,1.0,12.0,11.0,0.0
-10.0,-44.0,-54.0,-27.0,-25.0,-2.0,-29.0,1.0,-15.0,12.0,0.0
-76.0,-29.0,-21.0,0.0,59.0,-168.0,-80.0,-9.0,-43.0,19.0,0.0
-90.0,-25.0,-7.0,24.0,106.0,-311.0,-116.0,-27.0,-51.0,3.0,0.0
-38.0,-10.0,26.0,32.0,76.0,-375.0,-115.0,-31.0,-60.0,4.0,0.0
9.0,11.0,51.0,31.0,47.0,-406.0,-91.0,-32.0,-28.0,6.0,0.0
21.0,39.0,54.0,30.0,30.0,-392.0,-48.0,-21.0,-8.0,28.0,0.0
32.0,74.0,51.0,31.0,34.0,-261.0,-3.0,-23.0,-1.0,8.0,0.0
54.0,103.0,21.0,18.0,22.0,-30.0,54.0,-38.0,0.0,-19.0,0.0
-18.0,86.0,23.0,18.0,23.0,134.0,51.0,-42.0,-23.0,-58.0,0.0
-109.0,71.0,39.0,26.0,28.0,174.0,13.0,-42.0,-35.0,-100.0,0.0
-103.0,76.0,44.0,20.0,20.0,170.0,-5.0,-32.0,-14.0,-77.0,0.0
-58.0,38.0,19.0,19.0,16.0,192.0,16.0,-23.0,4.0,-40.0,0.0
-15.0,-9.0,11.0,20.0,12.0,272.0,36.0,-11.0,9.0,-14.0,0.0
-18.0,-74.0,9.0,16.0,23.0,336.0,30.0,6.0,13.0,-6.0,0.0
-19.0,-92.0,0.0,14.0,25.0,319.0,19.0,7.0,8.0,-11.0,0.0
8.0,-44.0,5.0,26.0,15.0,234.0,10.0,-21.0,-10.0,-7.0,0.0
-13.0,-46.0,-9.0,16.0,-3.0,125.0,-12.0,-33.0,-22.0,-11.0,0.0
-81.0,-122.0,-30.0,-2.0,-13.0,-5.0,-53.0,-25.0,-16.0,-19.0,0.0
-108.0,-112.0,-16.0,-18.0,-9.0,-169.0,-74.0,-13.0,-26.0,-9.0,0.0
-102.0,-75.0,-9.0,-20.0,-6.0,-306.0,-89.0,-12.0,-33.0,-16.0,0.0
-95.0,-44.0,-1.0,-7.0,-17.0,-389.0,-90.0,-10.0,-47.0,-28.0,0.0
-87.0,-52.0,0.0,-9.0,-22.0,-430.0,-106.0,-3.0,-38.0,-24.0,0.0
-75.0,-60.0,-1.0,-14.0,-25.0,-400.0,-104.0,-1.0,-40.0,-22.0,0.0
-66.0,-37.0,-3.0,-12.0,-35.0,-257.0,-77.0,3.0,-42.0,-28.0,0.0
-62.0,-45.0,-7.0,-16.0,-33.0,-63.0,-41.0,5.0,-34.0,-13.0,0.0
-53.0,-28.0,-16.0,-22.0,-36.0,73.0,-5.0,6.0,0.0,-11.0,0.0
-44.0,-5.0,-27.0,-18.0,-34.0,119.0,8.0,11.0,-1.0,-9.0,0.0
-31.0,-19.0,-33.0,-21.0,-41.0,134.0,6.0,4.0,7.0,-15.0,0.0
-15.0,-20.0,-34.0,-37.0,-44.0,173.0,5.0,11.0,25.0,-22.0,0.0
-2.0,3.0,-45.0,-46.0,-46.0,248.0,4.0,21.0,33.0,-12.0,0.0
7.0,26.0,-63.0,-49.0,-40.0,316.0,-6.0,43.0,40.0,7.0,0.0
10.0,43.0,-61.0,-48.0,-42.0,274.0,-22.0,120.0,95.0,20.0,0.0
11.0,16.0,-87.0,-43.0,-44.0,149.0,-38.0,58.0,43.0,14.0,0.0
14.0,-15.0,-175.0,-41.0,-58.0,41.0,-31.0,4.0,-6.0,2.0,0.0
18.0,-16.0,-178.0,-34.0,-53.0,-112.0,-67.0,2.0,-5.0,2.0,0.0
11.0,2.0,-65.0,-17.0,-44.0,-270.0,-100.0,-8.0,-1.0,-4.0,0.0
2.0,31.0,8.0,-2.0,-50.0,-349.0,-121.0,-19.0,-23.0,-3.0,0.0
9.0,48.0,32.0,-18.0,-59.0,-364.0,-126.0,-28.0,-25.0,-16.0,0.0
19.0,51.0,6.0,-45.0,-58.0,-376.0,-124.0,-34.0,-26.0,-18.0,0.0
63.0,62.0,8.0,-47.0,-67.0,-297.0,-123.0,-24.0,-40.0,-27.0,0.0
94.0,71.0,13.0,-48.0,-66.0,-115.0,-87.0,-31.0,-56.0,-27.0,0.0
112.0,64.0,4.0,-43.0,-69.0,55.0,-41.0,-46.0,-75.0,-11.0,0.0
121.0,41.0,-2.0,-32.0,-68.0,161.0,-21.0,-42.0,-90.0,-3.0,0.0
106.0,18.0,7.0,-16.0,-43.0,186.0,1.0,-29.0,-71.0,-6.0,0.0
112.0,38.0,18.0,0.0,-38.0,211.0,3.0,-36.0,-56.0,-14.0,0.0
90.0,32.0,16.0,-7.0,-33.0,294.0,-6.0,-54.0,-39.0,-40.0,0.0
32.0,12.0,7.0,-5.0,-30.0,369.0,-10.0,-40.0,-16.0,-18.0,0.0
-25.0,25.0,59.0,27.0,-15.0,361.0,-8.0,0.0,15.0,36.0,0.0
-66.0,94.0,123.0,69.0,1.0,252.0,-46.0,-2.0,31.0,48.0,0.0
-41.0,149.0,112.0,87.0,8.0,142.0,-67.0,-24.0,16.0,14.0,0.0
4.0,124.0,14.0,64.0,-3.0,17.0,-63.0,-28.0,5.0,-12.0,0.0
51.0,82.0,-68.0,58.0,-1.0,-132.0,-52.0,-11.0,19.0,-18.0,0.0
95.0,24.0,-114.0,37.0,-6.0,-264.0,-53.0,-2.0,33.0,-14.0,0.0
52.0,-49.0,-58.0,-2.0,-14.0,-336.0,-70.0,-14.0,24.0,-11.0,0.0
-89.0,-146.0,-28.0,-21.0,-23.0,-366.0,-101.0,-20.0,6.0,-66.0,0.0
-264.0,-245.0,-27.0,-20.0,-11.0,-377.0,-133.0,-9.0,-11.0,-119.0,0.0
-250.0,-227.0,-98.0,-9.0,-1.0,-276.0,-122.0,0.0,-13.0,-118.0,0.0
-155.0,-168.0,-168.0,-13.0,2.0,-98.0,-77.0,2.0,-16.0,-88.0,0.0
-83.0,-116.0,-159.0,-20.0,-1.0,47.0,-46.0,-2.0,-32.0,-67.0,0.0
-58.0,-84.0,-76.0,-25.0,-2.0,110.0,-48.0,-13.0,-45.0,-44.0,0.0
-56.0,-58.0,20.0,-28.0,-3.0,110.0,-29.0,-16.0,-47.0,-20.0,0.0
-53.0,-40.0,29.0,-27.0,-4.0,147.0,-32.0,-15.0,-45.0,-37.0,0.0
-74.0,-23.0,0.0,-35.0,-3.0,247.0,-16.0,-2.0,-43.0,-41.0,0.0
-79.0,-17.0,-57.0,-47.0,0.0,318.0,-14.0,7.0,-29.0,-28.0,0.0
-49.0,-44.0,6.0,-44.0,2.0,293.0,-4.0,5.0,9.0,-23.0,0.0
-10.0,-31.0,21.0,-40.0,10.0,192.0,-11.0,13.0,18.0,-5.0,0.0
42.0,0.0,37.0,-32.0,1.0,88.0,-18.0,10.0,18.0,6.0,0.0
78.0,48.0,60.0,-12.0,0.0,-56.0,-18.0,-1.0,19.0,4.0,0.0
76.0,72.0,61.0,6.0,1.0,-199.0,-37.0,-1.0,15.0,13.0,0.0
109.0,73.0,52.0,8.0,-12.0,-305.0,-50.0,-12.0,34.0,44.0,0.0
121.0,78.0,34.0,-1.0,-28.0,-374.0,-50.0,-20.0,51.0,56.0,0.0
91.0,107.0,7.0,6.0,-30.0,-380.0,-71.0,-18.0,23.0,18.0,0.0
24.0,103.0,-11.0,43.0,0.0,-327.0,-39.0,-38.0,-11.0,-34.0,0.0
-17.0,75.0,9.0,65.0,31.0,-173.0,-9.0,-30.0,-7.0,-45.0,0.0
-29.0,23.0,14.0,32.0,11.0,9.0,0.0,3.0,24.0,-15.0,0.0
-67.0,-49.0,45.0,12.0,6.0,73.0,-7.0,21.0,26.0,3.0,0.0
-112.0,-100.0,6.0,19.0,17.0,67.0,-24.0,34.0,-8.0,-17.0,0.0
-86.0,-84.0,-5.0,15.0,14.0,96.0,-8.0,45.0,0.0,-10.0,0.0
-44.0,-64.0,15.0,-7.0,8.0,194.0,8.0,30.0,-10.0,4.0,0.0
0.0,-38.0,9.0,-8.0,-3.0,308.0,46.0,10.0,-25.0,15.0,0.0
28.0,-17.0,14.0,-3.0,2.0,355.0,38.0,10.0,-32.0,11.0,0.0
26.0,-23.0,19.0,0.0,13.0,304.0,36.0,19.0,-8.0,31.0,0.0
32.0,-4.0,27.0,-2.0,3.0,204.0,50.0,20.0,2.0,36.0,0.0
47.0,37.0,50.0,9.0,-15.0,68.0,36.0,13.0,14.0,9.0,0.0
4.0,30.0,51.0,17.0,-20.0,-97.0,28.0,15.0,26.0,0.0,0.0
-26.0,38.0,47.0,11.0,-16.0,-241.0,11.0,3.0,17.0,-33.0,0.0
-21.0,52.0,52.0,8.0,-39.0,-329.0,-5.0,-4.0,32.0,-35.0,0.0
0.0,34.0,37.0,7.0,-31.0,-373.0,-16.0,0.0,54.0,6.0,0.0
-20.0,-3.0,26.0,33.0,52.0,-372.0,-9.0,5.0,41.0,14.0,0.0
-35.0,-30.0,-20.0,28.0,111.0,-268.0,3.0,1.0,23.0,1.0,0.0
-22.0,-8.0,-14.0,-8.0,60.0,-72.0,21.0,1.0,23.0,-2.0,0.0
-28.0,14.0,18.0,-15.0,30.0,86.0,43.0,-1.0,24.0,-17.0,0.0
-36.0,14.0,-55.0,-13.0,35.0,127.0,61.0,1.0,9.0,-22.0,0.0
-33.0,24.0,-51.0,-15.0,24.0,136.0,71.0,1.0,-1.0,-1.0,0.0
-10.0,4.0,34.0,-21.0,14.0,147.0,77.0,-7.0,19.0,9.0,0.0
17.0,-10.0,42.0,-8.0,11.0,216.0,73.0,-20.0,9.0,0.0,0.0
3.0,-7.0,38.0,0.0,3.0,305.0,84.0,-16.0,-14.0,-11.0,0.0
-16.0,-8.0,41.0,-4.0,-3.0,303.0,90.0,-4.0,-28.0,-7.0,0.0
-5.0,-14.0,33.0,-8.0,-19.0,212.0,106.0,-4.0,-42.0,0.0,0.0
12.0,-23.0,16.0,-19.0,-31.0,110.0,127.0,2.0,-38.0,18.0,0.0
2.0,-24.0,6.0,-19.0,-43.0,-38.0,120.0,-3.0,-33.0,20.0,0.0
-2.0,-12.0,18.0,-9.0,-31.0,-200.0,74.0,-10.0,-38.0,4.0,0.0
3.0,5.0,18.0,-13.0,-20.0,-319.0,36.0,-13.0,-26.0,3.0,0.0
16.0,1.0,19.0,-19.0,-18.0,-396.0,21.0,-6.0,-39.0,4.0,0.0
25.0,-4.0,23.0,-13.0,-9.0,-437.0,20.0,-8.0,-27.0,-11.0,0.0
24.0,-10.0,16.0,-20.0,-15.0,-390.0,12.0,-3.0,-21.0,-16.0,0.0
24.0,4.0,6.0,-32.0,-27.0,-218.0,47.0,-10.0,-32.0,0.0,0.0
18.0,18.0,11.0,-35.0,-25.0,-18.0,66.0,-17.0,-35.0,12.0,0.0
27.0,8.0,8.0,-23.0,-20.0,88.0,81.0,-5.0,-14.0,4.0,0.0
33.0,-3.0,3.0,-16.0,-18.0,131.0,97.0,-3.0,-9.0,-9.0,0.0
27.0,-3.0,-20.0,-16.0,-29.0,135.0,98.0,7.0,8.0,-13.0,0.0
21.0,-1.0,-31.0,-13.0,-28.0,180.0,90.0,4.0,19.0,-11.0,0.0
2.0,5.0,-46.0,-10.0,-17.0,252.0,90.0,-1.0,34.0,-6.0,0.0
-6.0,-13.0,-10.0,-1.0,-12.0,319.0,89.0,4.0,40.0,-3.0,0.0
-3.0,-22.0,10.0,4.0,3.0,280.0,59.0,4.0,19.0,3.0,0.0
-7.0,-1.0,18.0,12.0,10.0,169.0,41.0,-3.0,16.0,-2.0,0.0
-2.0,15.0,22.0,4.0,8.0,68.0,44.0,-5.0,15.0,-10.0,0.0
10.0,20.0,25.0,-3.0,6.0,-89.0,23.0,-10.0,4.0,5.0,0.0
29.0,24.0,16.0,-7.0,0.0,-243.0,12.0,-5.0,20.0,16.0,0.0
55.0,8.0,0.0,-19.0,-10.0,-346.0,11.0,-4.0,23.0,23.0,0.0
75.0,2.0,-3.0,-36.0,-18.0,-425.0,6.0,0.0,-1.0,18.0,0.0
70.0,-1.0,-5.0,-39.0,-22.0,-403.0,8.0,2.0,11.0,18.0,0.0
27.0,0.0,-23.0,-27.0,-26.0,-324.0,1.0,0.0,-2.0,10.0,0.0
-21.0,0.0,-12.0,-30.0,-24.0,-153.0,8.0,0.0,-17.0,-1.0,0.0
-13.0,0.0,2.0,-21.0,-32.0,18.0,32.0,0.0,-12.0,3.0,0.0
1.0,-10.0,7.0,-4.0,-37.0,119.0,41.0,-1.0,-13.0,5.0,0.0
-8.0,-6.0,-2.0,1.0,-40.0,143.0,23.0,-15.0,-27.0,11.0,0.0
-5.0,2.0,-67.0,2.0,-29.0,142.0,17.0,-14.0,-27.0,11.0,0.0
-6.0,12.0,-13.0,5.0,-24.0,205.0,30.0,-10.0,-25.0,20.0,0.0
14.0,16.0,43.0,6.0,-21.0,277.0,40.0,-13.0,-13.0,21.0,0.0
29.0,12.0,58.0,14.0,-11.0,304.0,48.0,-19.0,-8.0,-4.0,0.0
34.0,25.0,63.0,17.0,1.0,232.0,31.0,-27.0,10.0,-4.0,0.0
48.0,39.0,49.0,20.0,-2.0,140.0,33.0,-23.0,30.0,12.0,0.0
43.0,36.0,38.0,20.0,-2.0,26.0,57.0,-11.0,54.0,17.0,0.0
43.0,34.0,38.0,16.0,10.0,-141.0,39.0,-8.0,70.0,12.0,0.0
37.0,26.0,10.0,10.0,10.0,-269.0,36.0,2.0,70.0,18.0,0.0
25.0,0.0,-21.0,1.0,0.0,-354.0,-7.0,23.0,71.0,15.0,0.0
18.0,-15.0,-32.0,2.0,-14.0,-400.0,-35.0,21.0,63.0,25.0,0.0
29.0,-6.0,-32.0,0.0,-17.0,-395.0,-50.0,7.0,47.0,24.0,0.0
10.0,2.0,-28.0,1.0,-18.0,-264.0,-47.0,1.0,30.0,20.0,0.0
-6.0,-16.0,-36.0,-4.0,-25.0,-79.0,-22.0,4.0,23.0,13.0,0.0
-8.0,-13.0,-42.0,-5.0,-29.0,49.0,-11.0,8.0,31.0,2.0,0.0
18.0,14.0,26.0,23.0,-30.0,117.0,-5.0,-14.0,-7.0,-3.0,0.0
26.0,39.0,82.0,43.0,-17.0,117.0,-1.0,-9.0,-13.0,3.0,0.0
32.0,42.0,63.0,37.0,-9.0,131.0,-6.0,-4.0,5.0,20.0,0.0
45.0,51.0,65.0,29.0,-11.0,215.0,-7.0,-23.0,-20.0,1.0,0.0
50.0,56.0,54.0,51.0,-10.0,302.0,-17.0,-39.0,-41.0,-21.0,0.0
75.0,37.0,25.0,33.0,-21.0,292.0,-32.0,-25.0,-47.0,-22.0,0.0
72.0,3.0,8.0,-1.0,-31.0,210.0,-44.0,-7.0,-32.0,-11.0,0.0
42.0,-14.0,25.0,6.0,-40.0,116.0,-76.0,3.0,-24.0,-5.0,0.0
41.0,-16.0,32.0,0.0,-33.0,-41.0,-99.0,23.0,10.0,22.0,0.0
44.0,-7.0,12.0,-24.0,-47.0,-199.0,-125.0,29.0,5.0,61.0,0.0
44.0,12.0,3.0,-29.0,-49.0,-295.0,-139.0,6.0,-35.0,21.0,0.0
83.0,46.0,6.0,-29.0,-43.0,-350.0,-138.0,-31.0,-65.0,-24.0,0.0
147.0,87.0,-10.0,-13.0,-41.0,-353.0,-131.0,-59.0,-89.0,-49.0,0.0
190.0,135.0,9.0,19.0,-5.0,-275.0,-89.0,-72.0,-91.0,-31.0,0.0
186.0,108.0,13.0,26.0,8.0,-108.0,-36.0,-42.0,-48.0,11.0,0.0
125.0,55.0,0.0,16.0,15.0,50.0,-21.0,8.0,21.0,60.0,0.0
60.0,27.0,2.0,32.0,23.0,152.0,-34.0,18.0,38.0,36.0,0.0
-8.0,-14.0,-9.0,42.0,33.0,171.0,-55.0,27.0,51.0,-6.0,0.0
-65.0,-79.0,-48.0,10.0,22.0,140.0,-57.0,59.0,92.0,14.0,0.0
-80.0,-45.0,-50.0,-7.0,25.0,173.0,-68.0,62.0,76.0,-3.0,0.0
-147.0,-9.0,7.0,12.0,29.0,257.0,-88.0,54.0,52.0,-9.0,0.0
-168.0,22.0,35.0,25.0,16.0,311.0,-80.0,47.0,44.0,6.0,0.0
-124.0,28.0,30.0,23.0,-5.0,278.0,-78.0,32.0,27.0,5.0,0.0
-114.0,12.0,-9.0,41.0,-6.0,188.0,-74.0,29.0,21.0,-3.0,0.0
-99.0,4.0,-119.0,33.0,-3.0,86.0,-96.0,21.0,-7.0,-2.0,0.0
-91.0,-26.0,-146.0,12.0,-11.0,-60.0,-113.0,11.0,-14.0,9.0,0.0
-142.0,-116.0,-74.0,15.0,-3.0,-200.0,-138.0,0.0,-24.0,-10.0,0.0
-173.0,-166.0,1.0,19.0,-3.0,-311.0,-146.0,0.0,-3.0,-24.0,0.0
-196.0,-167.0,14.0,7.0,-23.0,-400.0,-173.0,24.0,20.0,-2.0,0.0
-248.0,-201.0,9.0,0.0,-28.0,-428.0,-208.0,51.0,21.0,29.0,0.0
-251.0,-191.0,7.0,10.0,30.0,-337.0,-202.0,46.0,11.0,15.0,0.0
-208.0,-129.0,-2.0,8.0,71.0,-150.0,-160.0,9.0,-21.0,-49.0,0.0
-160.0,-71.0,-43.0,0.0,36.0,13.0,-101.0,-11.0,-50.0,-79.0,0.0
-68.0,-42.0,-110.0,5.0,-8.0,117.0,-57.0,-18.0,-56.0,-48.0,0.0
-4.0,-37.0,-40.0,7.0,-14.0,152.0,-29.0,-18.0,-59.0,-28.0,0.0
8.0,-39.0,42.0,-7.0,2.0,191.0,3.0,-21.0,-37.0,-33.0,0.0
34.0,-34.0,25.0,-18.0,11.0,270.0,17.0,-20.0,-23.0,-60.0,0.0
53.0,0.0,-17.0,-24.0,-8.0,374.0,41.0,-9.0,-20.0,-46.0,0.0
43.0,7.0,19.0,-13.0,-8.0,394.0,35.0,-4.0,5.0,-15.0,0.0
8.0,14.0,48.0,9.0,27.0,299.0,32.0,-11.0,-4.0,-23.0,0.0
-12.0,17.0,-33.0,13.0,34.0,178.0,40.0,-4.0,22.0,-16.0,0.0
-18.0,-2.0,-28.0,7.0,21.0,31.0,38.0,19.0,53.0,22.0,0.0
-9.0,-14.0,37.0,14.0,17.0,-138.0,11.0,7.0,50.0,12.0,0.0
-11.0,-4.0,47.0,10.0,12.0,-253.0,-14.0,-7.0,24.0,-6.0,0.0
-10.0,2.0,42.0,-17.0,7.0,-324.0,0.0,-11.0,3.0,-6.0,0.0
-11.0,3.0,39.0,-27.0,-10.0,-345.0,33.0,-12.0,5.0,-6.0,0.0
-6.0,10.0,6.0,-33.0,-40.0,-312.0,34.0,-11.0,-8.0,-11.0,0.0
24.0,35.0,-9.0,-35.0,-31.0,-172.0,65.0,-12.0,-21.0,-13.0,0.0
39.0,62.0,23.0,-21.0,47.0,15.0,105.0,-25.0,-40.0,-17.0,0.0
40.0,48.0,11.0,-21.0,63.0,149.0,137.0,-17.0,-36.0,-9.0,0.0
49.0,31.0,-23.0,-30.0,21.0,191.0,136.0,-14.0,-43.0,0.0,0.0
44.0,-13.0,-127.0,-20.0,17.0,209.0,139.0,0.0,-39.0,14.0,0.0
21.0,-55.0,-162.0,-7.0,21.0,259.0,158.0,6.0,-36.0,35.0,0.0
0.0,-49.0,-35.0,-6.0,15.0,359.0,166.0,5.0,-57.0,27.0,0.0
-4.0,-31.0,10.0,-24.0,10.0,417.0,183.0,-11.0,-59.0,-5.0,0.0
-7.0,-6.0,8.0,-38.0,14.0,360.0,167.0,-17.0,-60.0,-14.0,0.0
-2.0,1.0,-54.0,-24.0,16.0,249.0,161.0,-15.0,-57.0,-17.0,0.0
7.0,-2.0,-78.0,-2.0,12.0,153.0,119.0,-20.0,-52.0,-19.0,0.0
8.0,15.0,-105.0,19.0,2.0,20.0,107.0,-20.0,-46.0,-7.0,0.0
25.0,44.0,-118.0,21.0,1.0,-115.0,90.0,-6.0,-41.0,0.0,0.0
36.0,40.0,-22.0,29.0,-9.0,-225.0,81.0,-12.0,-21.0,-4.0,0.0
36.0,27.0,64.0,31.0,0.0,-304.0,88.0,-22.0,5.0,-9.0,0.0
37.0,29.0,90.0,40.0,6.0,-306.0,72.0,-23.0,4.0,-11.0,0.0
35.0,14.0,86.0,32.0,-6.0,-243.0,84.0,-16.0,9.0,6.0,0.0
17.0,16.0,4.0,31.0,-9.0,-58.0,102.0,-21.0,11.0,15.0,0.0
7.0,39.0,-71.0,34.0,-7.0,132.0,132.0,-33.0,18.0,0.0,0.0
25.0,58.0,-22.0,33.0,4.0,222.0,150.0,-17.0,17.0,2.0,0.0
43.0,62.0,88.0,35.0,-2.0,230.0,157.0,-23.0,13.0,2.0,0.0
44.0,73.0,118.0,35.0,-5.0,236.0,153.0,-36.0,0.0,-4.0,0.0
62.0,80.0,130.0,32.0,-1.0,293.0,164.0,-46.0,-7.0,-8.0,0.0
82.0,95.0,117.0,28.0,-12.0,358.0,182.0,-50.0,-2.0,3.0,0.0
70.0,123.0,98.0,10.0,-23.0,373.0,169.0,-44.0,-16.0,16.0,0.0
60.0,101.0,87.0,6.0,-17.0,275.0,142.0,-36.0,-16.0,14.0,0.0
44.0,58.0,85.0,25.0,10.0,163.0,107.0,-18.0,-14.0,3.0,0.0
21.0,16.0,81.0,32.0,29.0,50.0,88.0,-2.0,-15.0,5.0,0.0
-2.0,-21.0,54.0,17.0,29.0,-102.0,54.0,0.0,11.0,7.0,0.0
-25.0,-18.0,47.0,16.0,21.0,-244.0,-21.0,0.0,14.0,9.0,0.0
-37.0,5.0,52.0,20.0,21.0,-344.0,-69.0,7.0,17.0,5.0,0.0
-13.0,12.0,37.0,11.0,28.0,-390.0,-90.0,13.0,4.0,14.0,0.0
16.0,16.0,35.0,28.0,25.0,-388.0,-83.0,15.0,6.0,21.0,0.0
27.0,19.0,31.0,15.0,11.0,-279.0,-56.0,12.0,0.0,19.0,0.0
27.0,6.0,23.0,-3.0,9.0,-72.0,-30.0,7.0,-5.0,24.0,0.0
26.0,-17.0,9.0,-10.0,12.0,99.0,-21.0,-1.0,-15.0,15.0,0.0
19.0,-45.0,1.0,-12.0,3.0,164.0,-16.0,-11.0,-17.0,6.0,0.0
10.0,-31.0,17.0,-14.0,13.0,146.0,-23.0,-16.0,0.0,2.0,0.0
13.0,-14.0,23.0,-13.0,19.0,148.0,-22.0,-12.0,11.0,7.0,0.0
6.0,-2.0,18.0,-3.0,17.0,231.0,-7.0,-7.0,41.0,22.0,0.0
-5.0,-9.0,12.0,2.0,28.0,292.0,-10.0,-7.0,68.0,31.0,0.0
-20.0,-21.0,2.0,-1.0,38.0,254.0,-18.0,-6.0,60.0,30.0,0.0
-15.0,-26.0,-5.0,-7.0,39.0,139.0,-39.0,-5.0,41.0,28.0,0.0
10.0,-18.0,-8.0,-7.0,36.0,53.0,-39.0,6.0,51.0,30.0,0.0
47.0,4.0,1.0,-4.0,23.0,-80.0,-56.0,7.0,58.0,23.0,0.0
73.0,15.0,21.0,4.0,18.0,-240.0,-92.0,-3.0,57.0,21.0,0.0
72.0,8.0,22.0,8.0,24.0,-349.0,-97.0,-4.0,56.0,22.0,0.0
60.0,4.0,19.0,0.0,23.0,-395.0,-95.0,-1.0,55.0,29.0,0.0
16.0,7.0,28.0,-6.0,17.0,-404.0,-104.0,6.0,35.0,20.0,0.0
-7.0,15.0,36.0,-12.0,38.0,-368.0,-110.0,0.0,17.0,-5.0,0.0
51.0,28.0,28.0,-18.0,45.0,-214.0,-78.0,2.0,23.0,-2.0,0.0
150.0,41.0,41.0,-18.0,36.0,-13.0,-27.0,-3.0,19.0,5.0,0.0
186.0,52.0,43.0,-13.0,25.0,119.0,-2.0,0.0,3.0,5.0,0.0
143.0,52.0,21.0,-21.0,20.0,155.0,9.0,0.0,-7.0,7.0,0.0
98.0,30.0,-2.0,-34.0,19.0,145.0,3.0,0.0,-19.0,-4.0,0.0
62.0,-1.0,-16.0,-41.0,24.0,191.0,-2.0,0.0,-29.0,-7.0,0.0
0.0,-18.0,-6.0,-59.0,24.0,260.0,-16.0,17.0,-15.0,-1.0,0.0
-47.0,-15.0,-4.0,-64.0,22.0,295.0,-32.0,29.0,-16.0,7.0,0.0
-41.0,1.0,-11.0,-54.0,24.0,236.0,-27.0,26.0,-1.0,8.0,0.0
-20.0,14.0,-7.0,-55.0,27.0,132.0,-17.0,35.0,2.0,5.0,0.0
6.0,8.0,10.0,-47.0,37.0,27.0,-16.0,46.0,22.0,1.0,0.0
27.0,15.0,12.0,-35.0,45.0,-96.0,-25.0,44.0,41.0,7.0,0.0
33.0,25.0,11.0,-16.0,58.0,-225.0,-40.0,31.0,50.0,11.0,0.0
12.0,21.0,26.0,22.0,79.0,-320.0,-76.0,3.0,23.0,-3.0,0.0
16.0,24.0,15.0,20.0,71.0,-386.0,-93.0,2.0,10.0,-1.0,0.0
33.0,23.0,-3.0,-12.0,42.0,-370.0,-67.0,10.0,38.0,17.0,0.0
60.0,27.0,-6.0,-32.0,27.0,-252.0,-34.0,3.0,37.0,7.0,0.0
85.0,31.0,4.0,-26.0,44.0,-70.0,-6.0,6.0,48.0,17.0,0.0
85.0,45.0,6.0,-5.0,54.0,87.0,3.0,29.0,54.0,25.0,0.0
90.0,93.0,40.0,30.0,63.0,165.0,14.0,25.0,33.0,9.0,0.0
80.0,137.0,92.0,57.0,57.0,184.0,4.0,-6.0,19.0,13.0,0.0
92.0,177.0,1.0,50.0,48.0,219.0,6.0,-26.0,7.0,24.0,0.0
90.0,165.0,-73.0,49.0,53.0,290.0,24.0,-11.0,-4.0,20.0,0.0
105.0,146.0,-58.0,47.0,58.0,368.0,22.0,-13.0,-16.0,8.0,0.0
138.0,135.0,27.0,38.0,54.0,409.0,33.0,-19.0,-26.0,3.0,0.0
126.0,86.0,46.0,19.0,58.0,325.0,13.0,-2.0,-16.0,41.0,0.0
69.0,9.0,28.0,20.0,47.0,199.0,-25.0,10.0,6.0,59.0,0.0
7.0,27.0,49.0,35.0,24.0,62.0,-52.0,-1.0,-6.0,41.0,0.0
-71.0,49.0,66.0,26.0,4.0,-116.0,-105.0,6.0,10.0,56.0,0.0
-159.0,32.0,66.0,21.0,-2.0,-269.0,-158.0,28.0,14.0,38.0,0.0
-149.0,34.0,93.0,24.0,4.0,-359.0,-185.0,12.0,-21.0,-38.0,0.0
-89.0,-21.0,71.0,17.0,-7.0,-354.0,-173.0,16.0,-29.0,-59.0,0.0
-86.0,-118.0,24.0,5.0,-5.0,-332.0,-181.0,44.0,-17.0,-40.0,0.0
-147.0,-188.0,-2.0,3.0,3.0,-221.0,-183.0,51.0,12.0,-35.0,0.0
-125.0,-152.0,-15.0,-14.0,-9.0,-14.0,-113.0,38.0,16.0,-32.0,0.0
-142.0,-149.0,-31.0,-23.0,-21.0,126.0,-71.0,38.0,12.0,-19.0,0.0
-183.0,-175.0,-41.0,-30.0,-17.0,146.0,-81.0,31.0,13.0,-6.0,0.0
-118.0,-97.0,-14.0,-29.0,-20.0,145.0,-64.0,10.0,24.0,9.0,0.0
-35.0,-3.0,34.0,-18.0,-23.0,198.0,-41.0,0.0,18.0,19.0,0.0
-6.0,33.0,40.0,-11.0,-16.0,329.0,-12.0,9.0,17.0,23.0,0.0
2.0,34.0,33.0,7.0,-3.0,390.0,9.0,15.0,35.0,31.0,0.0
22.0,21.0,35.0,25.0,7.0,357.0,-5.0,21.0,44.0,27.0,0.0
56.0,23.0,-12.0,37.0,0.0,245.0,-26.0,13.0,37.0,0.0,0.0
56.0,20.0,-100.0,30.0,7.0,129.0,-44.0,8.0,27.0,-20.0,0.0
18.0,14.0,-31.0,23.0,3.0,-29.0,-82.0,-1.0,9.0,-55.0,0.0
-8.0,-6.0,45.0,30.0,1.0,-180.0,-105.0,7.0,13.0,-53.0,0.0
-40.0,-9.0,48.0,51.0,-6.0,-299.0,-119.0,20.0,30.0,-31.0,0.0
-90.0,-17.0,46.0,52.0,-34.0,-359.0,-162.0,26.0,30.0,-36.0,0.0
-119.0,-24.0,51.0,35.0,-57.0,-362.0,-174.0,7.0,12.0,-36.0,0.0
-123.0,-22.0,53.0,25.0,-53.0,-311.0,-147.0,12.0,15.0,-8.0,0.0
-105.0,-21.0,62.0,33.0,-31.0,-152.0,-111.0,25.0,14.0,0.0,0.0
-59.0,-14.0,45.0,27.0,-31.0,2.0,-59.0,42.0,13.0,18.0,0.0
-22.0,-3.0,26.0,24.0,-16.0,102.0,-5.0,37.0,19.0,28.0,0.0
-40.0,-18.0,19.0,33.0,72.0,131.0,4.0,21.0,-10.0,5.0,0.0
-49.0,-37.0,12.0,21.0,83.0,148.0,-9.0,-5.0,-34.0,-33.0,0.0
-16.0,-46.0,9.0,1.0,19.0,219.0,20.0,0.0,-19.0,-29.0,0.0
-1.0,-56.0,-2.0,-5.0,-11.0,327.0,60.0,-6.0,-40.0,-41.0,0.0
14.0,-37.0,-3.0,-9.0,-24.0,394.0,77.0,-11.0,-64.0,-67.0,0.0
47.0,-5.0,18.0,-12.0,-33.0,331.0,96.0,1.0,-65.0,-50.0,0.0
67.0,14.0,31.0,-4.0,-21.0,208.0,85.0,6.0,-63.0,-32.0,0.0
69.0,20.0,11.0,14.0,48.0,99.0,87.0,7.0,-63.0,-38.0,0.0
74.0,16.0,3.0,15.0,93.0,-47.0,90.0,0.0,-75.0,-48.0,0.0
88.0,15.0,-5.0,4.0,55.0,-189.0,99.0,2.0,-55.0,-28.0,0.0
110.0,6.0,-20.0,-14.0,27.0,-299.0,104.0,9.0,-29.0,-5.0,0.0
105.0,-2.0,-29.0,-21.0,23.0,-339.0,107.0,19.0,7.0,5.0,0.0
79.0,11.0,-19.0,-18.0,26.0,-323.0,106.0,37.0,45.0,28.0,0.0
31.0,23.0,-19.0,-35.0,21.0,-229.0,125.0,48.0,56.0,25.0,0.0
10.0,27.0,-9.0,-47.0,18.0,-24.0,153.0,31.0,24.0,-14.0,0.0
23.0,41.0,5.0,-35.0,14.0,137.0,177.0,20.0,-6.0,-19.0,0.0
16.0,14.0,9.0,-15.0,16.0,202.0,218.0,14.0,4.0,-4.0,0.0
-8.0,-14.0,6.0,2.0,30.0,197.0,201.0,10.0,7.0,-5.0,0.0
-2.0,-12.0,9.0,6.0,51.0,204.0,183.0,1.0,5.0,-6.0,0.0
26.0,-5.0,4.0,3.0,50.0,294.0,211.0,-4.0,-4.0,-3.0,0.0
34.0,0.0,-2.0,-12.0,38.0,363.0,222.0,-1.0,-16.0,-14.0,0.0
36.0,8.0,-6.0,-3.0,29.0,339.0,211.0,-2.0,-18.0,-14.0,0.0
37.0,0.0,-1.0,-7.0,31.0,241.0,178.0,-2.0,-22.0,1.0,0.0
33.0,-8.0,-9.0,-8.0,34.0,148.0,160.0,12.0,-7.0,21.0,0.0
33.0,4.0,-1.0,0.0,45.0,11.0,124.0,3.0,-30.0,6.0,0.0
40.0,26.0,12.0,9.0,52.0,-166.0,70.0,-6.0,-63.0,-10.0,0.0
50.0,53.0,-4.0,10.0,54.0,-285.0,71.0,-8.0,-67.0,-5.0,0.0
64.0,68.0,-24.0,8.0,56.0,-355.0,59.0,-10.0,-45.0,10.0,0.0
72.0,61.0,-67.0,3.0,62.0,-359.0,57.0,-19.0,-24.0,12.0,0.0
46.0,52.0,-134.0,12.0,68.0,-316.0,59.0,-32.0,-20.0,12.0,0.0
35.0,33.0,-145.0,7.0,67.0,-178.0,68.0,-6.0,13.0,41.0,0.0
33.0,-3.0,-92.0,2.0,77.0,-3.0,106.0,8.0,50.0,53.0,0.0
7.0,2.0,12.0,2.0,78.0,117.0,123.0,8.0,52.0,55.0,0.0
-39.0,1.0,24.0,1.0,78.0,140.0,122.0,0.0,56.0,50.0,0.0
-57.0,-16.0,29.0,8.0,80.0,134.0,102.0,5.0,64.0,36.0,0.0
-1.0,-7.0,34.0,9.0,71.0,180.0,87.0,10.0,51.0,57.0,0.0
109.0,28.0,30.0,0.0,51.0,277.0,101.0,18.0,29.0,54.0,0.0
141.0,42.0,32.0,17.0,41.0,334.0,107.0,16.0,5.0,37.0,0.0
122.0,38.0,52.0,-1.0,47.0,286.0,75.0,7.0,1.0,26.0,0.0
118.0,64.0,52.0,-21.0,28.0,182.0,56.0,-12.0,-11.0,19.0,0.0
77.0,90.0,45.0,-20.0,11.0,66.0,31.0,-29.0,-44.0,5.0,0.0
-23.0,66.0,32.0,-34.0,32.0,-110.0,-5.0,-10.0,-44.0,-19.0,0.0
-59.0,38.0,22.0,-38.0,45.0,-276.0,-42.0,5.0,-37.0,-31.0,0.0
-35.0,-2.0,-47.0,-43.0,33.0,-387.0,-53.0,11.0,-8.0,4.0,0.0
2.0,-24.0,-48.0,-40.0,35.0,-427.0,-44.0,19.0,-13.0,23.0,0.0
22.0,-25.0,13.0,-22.0,18.0,-394.0,-44.0,8.0,-16.0,18.0,0.0
26.0,-13.0,-36.0,1.0,16.0,-289.0,-58.0,-5.0,-19.0,13.0,0.0
11.0,11.0,-29.0,16.0,34.0,-107.0,-42.0,-19.0,-42.0,-13.0,0.0
-19.0,24.0,65.0,55.0,59.0,46.0,-15.0,-26.0,-32.0,-22.0,0.0
4.0,12.0,73.0,53.0,63.0,111.0,7.0,-6.0,-1.0,-5.0,0.0
42.0,9.0,56.0,39.0,39.0,124.0,15.0,-1.0,25.0,14.0,0.0
79.0,0.0,32.0,25.0,22.0,150.0,16.0,-10.0,23.0,18.0,0.0
71.0,-20.0,11.0,13.0,11.0,196.0,12.0,6.0,27.0,16.0,0.0
47.0,-20.0,13.0,17.0,25.0,269.0,-7.0,27.0,23.0,21.0,0.0
54.0,-10.0,20.0,17.0,27.0,287.0,-34.0,17.0,17.0,29.0,0.0
50.0,-15.0,20.0,15.0,24.0,198.0,-42.0,0.0,10.0,40.0,0.0
61.0,1.0,29.0,17.0,19.0,94.0,-41.0,-4.0,-8.0,7.0,0.0
75.0,38.0,37.0,10.0,14.0,-13.0,-50.0,36.0,12.0,3.0,0.0
78.0,52.0,38.0,0.0,17.0,-175.0,-66.0,119.0,65.0,39.0,0.0
47.0,-4.0,13.0,-25.0,21.0,-318.0,-87.0,57.0,34.0,42.0,0.0
5.0,-29.0,11.0,-20.0,18.0,-411.0,-115.0,3.0,18.0,36.0,0.0
-15.0,-19.0,27.0,-13.0,10.0,-446.0,-128.0,-10.0,11.0,27.0,0.0
-9.0,-17.0,41.0,2.0,17.0,-423.0,-118.0,-23.0,-28.0,4.0,0.0
-2.0,-37.0,30.0,11.0,14.0,-298.0,-101.0,-19.0,-37.0,-3.0,0.0
29.0,-32.0,12.0,-3.0,3.0,-84.0,-53.0,-12.0,-30.0,7.0,0.0
41.0,-4.0,-3.0,-20.0,-4.0,61.0,-21.0,0.0,2.0,37.0,0.0
27.0,22.0,-1.0,-26.0,-15.0,94.0,-27.0,0.0,5.0,52.0,0.0
55.0,76.0,32.0,-10.0,-9.0,110.0,-23.0,-29.0,-43.0,3.0,0.0
57.0,82.0,40.0,-2.0,-9.0,142.0,-14.0,-36.0,-46.0,-13.0,0.0
77.0,62.0,-45.0,-23.0,-12.0,239.0,-3.0,-33.0,-46.0,6.0,0.0
92.0,69.0,-62.0,-46.0,-28.0,309.0,3.0,-31.0,-44.0,33.0,0.0
54.0,40.0,-1.0,-29.0,-34.0,286.0,-2.0,-19.0,-4.0,41.0,0.0
-15.0,19.0,14.0,3.0,-19.0,180.0,-44.0,3.0,16.0,14.0,0.0
-45.0,-1.0,31.0,13.0,-15.0,72.0,-74.0,22.0,26.0,-5.0,0.0
-55.0,-43.0,0.0,18.0,-11.0,-70.0,-87.0,30.0,59.0,-8.0,0.0
-78.0,-40.0,16.0,39.0,8.0,-222.0,-106.0,35.0,45.0,-44.0,0.0
-37.0,24.0,65.0,62.0,9.0,-315.0,-107.0,19.0,10.0,-69.0,0.0
12.0,69.0,86.0,61.0,1.0,-384.0,-106.0,14.0,25.0,-40.0,0.0
37.0,86.0,84.0,60.0,-1.0,-395.0,-99.0,0.0,34.0,-21.0,0.0
30.0,88.0,92.0,63.0,0.0,-347.0,-75.0,-23.0,-3.0,-22.0,0.0
26.0,70.0,48.0,42.0,-6.0,-174.0,-67.0,-7.0,6.0,21.0,0.0
23.0,32.0,-21.0,20.0,-7.0,28.0,-41.0,12.0,29.0,33.0,0.0
-1.0,13.0,-6.0,13.0,-9.0,136.0,-24.0,4.0,4.0,-13.0,0.0
-16.0,-16.0,-36.0,13.0,11.0,156.0,-16.0,-5.0,-35.0,-38.0,0.0
-38.0,-83.0,-121.0,7.0,12.0,179.0,-6.0,-11.0,-45.0,-30.0,0.0
-87.0,-114.0,-18.0,20.0,21.0,239.0,-30.0,5.0,-32.0,4.0,0.0
-97.0,-121.0,26.0,37.0,31.0,321.0,-29.0,24.0,-3.0,30.0,0.0
-49.0,-93.0,18.0,24.0,18.0,367.0,6.0,38.0,0.0,33.0,0.0
-11.0,-72.0,4.0,23.0,0.0,286.0,31.0,30.0,-7.0,29.0,0.0
30.0,-66.0,-27.0,15.0,-11.0,179.0,42.0,14.0,0.0,30.0,0.0
84.0,-15.0,-5.0,9.0,-22.0,96.0,42.0,0.0,-31.0,5.0,0.0
83.0,27.0,7.0,6.0,-25.0,-39.0,23.0,-14.0,-61.0,-39.0,0.0
50.0,23.0,18.0,-2.0,-24.0,-170.0,-3.0,-15.0,-59.0,-55.0,0.0
42.0,32.0,36.0,11.0,-30.0,-267.0,-21.0,-5.0,-20.0,-27.0,0.0
36.0,19.0,43.0,26.0,-22.0,-328.0,-25.0,7.0,4.0,-3.0,0.0
11.0,-4.0,27.0,15.0,-20.0,-315.0,-25.0,16.0,12.0,0.0,0.0
15.0,-11.0,-8.0,-7.0,-46.0,-221.0,-15.0,9.0,-3.0,-10.0,0.0
27.0,22.0,-67.0,-2.0,-38.0,-48.0,20.0,6.0,-8.0,-20.0,0.0
4.0,53.0,-34.0,14.0,34.0,104.0,44.0,10.0,12.0,-7.0,0.0
6.0,82.0,14.0,19.0,62.0,159.0,64.0,4.0,24.0,-3.0,0.0
41.0,96.0,13.0,13.0,15.0,160.0,76.0,7.0,61.0,15.0,0.0
60.0,72.0,-9.0,18.0,6.0,193.0,97.0,11.0,66.0,8.0,0.0
59.0,47.0,21.0,27.0,26.0,285.0,102.0,17.0,54.0,-5.0,0.0
41.0,18.0,54.0,27.0,20.0,374.0,122.0,16.0,43.0,-9.0,0.0
-11.0,-6.0,37.0,13.0,3.0,385.0,132.0,22.0,32.0,-11.0,0.0
-97.0,-65.0,15.0,20.0,44.0,290.0,69.0,18.0,24.0,-11.0,0.0
-83.0,-77.0,12.0,24.0,118.0,177.0,29.0,-8.0,20.0,-23.0,0.0
-13.0,-64.0,-3.0,4.0,108.0,40.0,21.0,-8.0,21.0,-22.0,0.0
23.0,-45.0,-51.0,-15.0,55.0,-106.0,26.0,25.0,32.0,-5.0,0.0
49.0,-24.0,-49.0,-36.0,23.0,-238.0,25.0,32.0,41.0,9.0,0.0
45.0,-28.0,-19.0,-44.0,7.0,-343.0,40.0,24.0,47.0,29.0,0.0
23.0,-29.0,-24.0,-55.0,-9.0,-383.0,56.0,26.0,48.0,63.0,0.0
-3.0,0.0,-17.0,-57.0,-5.0,-330.0,51.0,22.0,33.0,52.0,0.0
-46.0,11.0,8.0,-29.0,15.0,-202.0,64.0,1.0,0.0,6.0,0.0
-46.0,2.0,34.0,-20.0,30.0,-9.0,124.0,0.0,-26.0,-21.0,0.0
-39.0,-18.0,35.0,3.0,48.0,110.0,143.0,3.0,-33.0,-18.0,0.0
-33.0,-29.0,33.0,36.0,71.0,140.0,142.0,-6.0,-38.0,-29.0,0.0
3.0,17.0,28.0,25.0,46.0,152.0,143.0,-18.0,-48.0,-9.0,0.0
13.0,44.0,15.0,0.0,18.0,208.0,143.0,-17.0,-33.0,8.0,0.0
26.0,38.0,10.0,-14.0,5.0,292.0,132.0,-12.0,-41.0,6.0,0.0
49.0,56.0,3.0,-15.0,0.0,356.0,123.0,-5.0,-9.0,13.0,0.0
57.0,46.0,2.0,-4.0,-8.0,313.0,126.0,3.0,4.0,7.0,0.0
48.0,31.0,6.0,6.0,-5.0,199.0,106.0,12.0,17.0,12.0,0.0
30.0,-5.0,-4.0,1.0,14.0,88.0,63.0,16.0,53.0,45.0,0.0
-10.0,-60.0,-12.0,2.0,19.0,-77.0,18.0,39.0,93.0,69.0,0.0
-31.0,-76.0,9.0,4.0,37.0,-226.0,-2.0,44.0,78.0,39.0,0.0
46.0,-44.0,4.0,-7.0,36.0,-309.0,-17.0,28.0,32.0,22.0,0.0
86.0,-19.0,-21.0,-22.0,29.0,-370.0,8.0,16.0,19.0,21.0,0.0
63.0,-23.0,-24.0,-19.0,28.0,-381.0,0.0,17.0,21.0,28.0,0.0
-9.0,-31.0,-16.0,-10.0,43.0,-306.0,-23.0,28.0,18.0,26.0,0.0
-66.0,-19.0,-17.0,-11.0,34.0,-130.0,-8.0,36.0,21.0,45.0,0.0
-87.0,-9.0,-6.0,0.0,10.0,31.0,-23.0,41.0,30.0,60.0,0.0
-61.0,32.0,37.0,2.0,6.0,97.0,-23.0,15.0,5.0,28.0,0.0
-1.0,68.0,56.0,16.0,14.0,98.0,-14.0,-6.0,-15.0,-9.0,0.0
99.0,101.0,42.0,7.0,2.0,121.0,25.0,-8.0,-38.0,-7.0,0.0
162.0,97.0,17.0,-27.0,-19.0,207.0,68.0,-10.0,-44.0,-5.0,0.0
142.0,45.0,-31.0,-47.0,-30.0,291.0,59.0,-18.0,-57.0,-35.0,0.0
63.0,-7.0,-117.0,-46.0,-8.0,329.0,48.0,-9.0,-46.0,-44.0,0.0
-16.0,-22.0,-75.0,-27.0,19.0,257.0,8.0,-1.0,-51.0,-70.0,0.0
-67.0,-20.0,-42.0,-12.0,20.0,131.0,-42.0,0.0,-54.0,-76.0,0.0
-15.0,-29.0,-8.0,-15.0,8.0,13.0,-47.0,-4.0,-39.0,-39.0,0.0
60.0,-16.0,-13.0,-23.0,6.0,-131.0,-59.0,-2.0,-35.0,-5.0,0.0
118.0,38.0,-11.0,-21.0,10.0,-239.0,-42.0,-6.0,-15.0,3.0,0.0
123.0,80.0,-2.0,-15.0,10.0,-307.0,-25.0,-10.0,-18.0,-3.0,0.0
110.0,83.0,13.0,-5.0,13.0,-350.0,-6.0,6.0,6.0,6.0,0.0
94.0,67.0,-7.0,0.0,13.0,-344.0,-35.0,11.0,31.0,27.0,0.0
34.0,46.0,-45.0,-2.0,3.0,-224.0,-39.0,11.0,63.0,23.0,0.0
-36.0,-7.0,-5.0,-7.0,-1.0,-54.0,-34.0,4.0,50.0,-9.0,0.0
-59.0,-44.0,-11.0,-27.0,-20.0,76.0,-14.0,-1.0,32.0,-3.0,0.0
-25.0,-59.0,-31.0,-43.0,-21.0,129.0,-18.0,1.0,12.0,-2.0,0.0
42.0,-17.0,-33.0,-33.0,-5.0,150.0,2.0,0.0,1.0,-4.0,0.0
96.0,14.0,-55.0,-17.0,-4.0,178.0,17.0,-5.0,4.0,5.0,0.0
75.0,6.0,-48.0,-12.0,-3.0,254.0,9.0,0.0,-16.0,17.0,0.0
32.0,-7.0,-32.0,-17.0,16.0,334.0,21.0,18.0,4.0,35.0,0.0
19.0,5.0,-18.0,-5.0,15.0,320.0,8.0,13.0,0.0,15.0,0.0
5.0,20.0,14.0,2.0,6.0,199.0,-13.0,4.0,-26.0,-5.0,0.0
-18.0,17.0,28.0,13.0,8.0,76.0,-43.0,-7.0,-28.0,10.0,0.0
-23.0,-12.0,21.0,0.0,14.0,-77.0,-73.0,0.0,2.0,23.0,0.0
-23.0,-29.0,-44.0,-8.0,22.0,-230.0,-111.0,20.0,29.0,31.0,0.0
-35.0,-11.0,-103.0,-18.0,19.0,-318.0,-137.0,19.0,6.0,12.0,0.0
-17.0,18.0,-22.0,-21.0,2.0,-371.0,-131.0,0.0,-24.0,7.0,0.0
37.0,34.0,30.0,-18.0,-13.0,-365.0,-103.0,-13.0,-19.0,16.0,0.0
91.0,55.0,58.0,-4.0,-22.0,-275.0,-73.0,-35.0,-9.0,33.0,0.0
118.0,60.0,63.0,5.0,-19.0,-87.0,-33.0,-44.0,-17.0,26.0,0.0
130.0,74.0,-4.0,12.0,-33.0,127.0,-4.0,-31.0,1.0,34.0,0.0
102.0,71.0,-91.0,4.0,-30.0,216.0,0.0,-25.0,26.0,31.0,0.0
3.0,19.0,-14.0,27.0,5.0,187.0,-1.0,5.0,64.0,6.0,0.0
-83.0,7.0,54.0,57.0,32.0,180.0,-38.0,36.0,87.0,-31.0,0.0
-56.0,31.0,76.0,42.0,20.0,234.0,-44.0,38.0,69.0,-18.0,0.0
-42.0,30.0,59.0,27.0,5.0,313.0,-28.0,23.0,39.0,-19.0,0.0
-49.0,1.0,29.0,25.0,10.0,373.0,-42.0,18.0,24.0,-33.0,0.0
-35.0,2.0,24.0,26.0,15.0,321.0,-33.0,2.0,-2.0,-32.0,0.0
-59.0,-31.0,47.0,38.0,14.0,212.0,-43.0,-10.0,-22.0,-29.0,0.0
-54.0,-76.0,40.0,29.0,29.0,85.0,-59.0,5.0,-11.0,-13.0,0.0
-18.0,-44.0,39.0,26.0,28.0,-68.0,-70.0,5.0,-13.0,11.0,0.0
-12.0,-11.0,52.0,33.0,27.0,-213.0,-90.0,-8.0,-42.0,6.0,0.0
-19.0,-10.0,64.0,29.0,37.0,-321.0,-98.0,-19.0,-63.0,-36.0,0.0
-12.0,2.0,70.0,33.0,25.0,-374.0,-80.0,-44.0,-69.0,-48.0,0.0
11.0,32.0,53.0,27.0,19.0,-367.0,-79.0,-58.0,-64.0,-41.0,0.0
69.0,42.0,8.0,13.0,11.0,-247.0,-52.0,-53.0,-77.0,-32.0,0.0
113.0,52.0,-42.0,1.0,-10.0,-54.0,-2.0,-47.0,-68.0,-9.0,0.0
143.0,62.0,-5.0,-5.0,-16.0,99.0,32.0,-36.0,-38.0,4.0,0.0
131.0,29.0,-2.0,0.0,-4.0,142.0,34.0,-16.0,0.0,16.0,0.0
75.0,-33.0,-25.0,2.0,6.0,128.0,43.0,25.0,31.0,41.0,0.0
12.0,-54.0,-88.0,5.0,7.0,133.0,34.0,34.0,14.0,38.0,0.0
-41.0,-52.0,-25.0,-7.0,-12.0,198.0,45.0,27.0,3.0,38.0,0.0
-6.0,-54.0,6.0,-26.0,-40.0,264.0,56.0,32.0,21.0,52.0,0.0
27.0,-43.0,-11.0,-43.0,-63.0,267.0,44.0,34.0,23.0,38.0,0.0
11.0,-30.0,-95.0,-33.0,-18.0,167.0,26.0,26.0,21.0,0.0,0.0
-40.0,-48.0,-102.0,2.0,76.0,64.0,2.0,22.0,33.0,-17.0,0.0
-44.0,-41.0,-110.0,11.0,62.0,-55.0,-12.0,21.0,41.0,-20.0,0.0
-47.0,-39.0,-100.0,9.0,19.0,-200.0,-21.0,18.0,48.0,-21.0,0.0
-54.0,-56.0,-108.0,25.0,31.0,-309.0,-27.0,5.0,46.0,-15.0,0.0
-32.0,-61.0,-30.0,33.0,46.0,-374.0,-33.0,-5.0,24.0,-18.0,0.0
1.0,-41.0,27.0,6.0,34.0,-387.0,-4.0,4.0,23.0,2.0,0.0
45.0,-17.0,26.0,-14.0,18.0,-341.0,13.0,3.0,19.0,14.0,0.0
60.0,0.0,8.0,-10.0,28.0,-202.0,62.0,0.0,14.0,23.0,0.0
39.0,-17.0,3.0,-18.0,40.0,-43.0,92.0,10.0,33.0,35.0,0.0
20.0,-24.0,19.0,-23.0,28.0,62.0,96.0,5.0,23.0,34.0,0.0
4.0,9.0,76.0,-6.0,15.0,114.0,89.0,-25.0,-5.0,-2.0,0.0
-9.0,28.0,91.0,13.0,15.0,123.0,98.0,-27.0,-19.0,-8.0,0.0
-7.0,10.0,78.0,7.0,-1.0,164.0,110.0,-10.0,0.0,14.0,0.0
3.0,5.0,74.0,2.0,-10.0,266.0,125.0,3.0,6.0,16.0,0.0
-11.0,17.0,91.0,7.0,-8.0,328.0,142.0,6.0,-14.0,-7.0,0.0
-10.0,31.0,111.0,15.0,-2.0,292.0,133.0,-1.0,-29.0,-26.0,0.0
2.0,39.0,91.0,24.0,1.0,182.0,83.0,9.0,-36.0,-19.0,0.0
-10.0,20.0,70.0,26.0,0.0,71.0,44.0,9.0,-36.0,-19.0,0.0
8.0,-2.0,63.0,15.0,13.0,-69.0,44.0,-2.0,-42.0,-24.0,0.0
9.0,-10.0,48.0,15.0,12.0,-214.0,47.0,-1.0,-37.0,-20.0,0.0
12.0,-15.0,22.0,2.0,-2.0,-313.0,38.0,8.0,-30.0,-14.0,0.0
29.0,-15.0,23.0,1.0,-20.0,-377.0,16.0,5.0,-33.0,-7.0,0.0
39.0,1.0,17.0,5.0,-47.0,-399.0,18.0,5.0,-31.0,-3.0,0.0
41.0,16.0,25.0,20.0,-51.0,-328.0,49.0,9.0,-41.0,6.0,0.0
42.0,4.0,27.0,12.0,-68.0,-142.0,66.0,13.0,-9.0,18.0,0.0
68.0,17.0,17.0,-6.0,-88.0,43.0,113.0,17.0,25.0,41.0,0.0
93.0,31.0,9.0,-6.0,-63.0,156.0,146.0,16.0,30.0,32.0,0.0
95.0,16.0,-26.0,1.0,2.0,180.0,146.0,-6.0,-8.0,17.0,0.0
82.0,8.0,-63.0,0.0,26.0,181.0,157.0,-30.0,-10.0,4.0,0.0
22.0,-24.0,-60.0,-18.0,-7.0,243.0,131.0,3.0,35.0,25.0,0.0
-46.0,-31.0,-81.0,-27.0,-14.0,311.0,79.0,26.0,65.0,62.0,0.0
-67.0,13.0,-136.0,-15.0,-9.0,332.0,53.0,12.0,27.0,31.0,0.0
-86.0,29.0,-62.0,-1.0,-4.0,251.0,27.0,22.0,6.0,-6.0,0.0
-70.0,12.0,21.0,2.0,-4.0,147.0,8.0,14.0,13.0,-6.0,0.0
-53.0,-3.0,34.0,8.0,-13.0,24.0,-8.0,6.0,0.0,10.0,0.0
-44.0,-21.0,14.0,1.0,-14.0,-143.0,-17.0,9.0,-6.0,23.0,0.0
-9.0,-41.0,8.0,-1.0,3.0,-262.0,-58.0,10.0,-11.0,14.0,0.0
37.0,-13.0,-44.0,2.0,4.0,-345.0,-49.0,5.0,-27.0,0.0,0.0
74.0,19.0,-91.0,0.0,2.0,-376.0,-33.0,-3.0,-49.0,-7.0,0.0
68.0,18.0,-6.0,-2.0,7.0,-379.0,-71.0,-6.0,-50.0,-28.0,0.0
58.0,16.0,29.0,-8.0,15.0,-267.0,-59.0,-11.0,-50.0,-29.0,0.0
73.0,21.0,34.0,-18.0,6.0,-52.0,-24.0,-3.0,-48.0,-7.0,0.0
48.0,-1.0,24.0,-10.0,-14.0,105.0,13.0,-2.0,-48.0,-4.0,0.0
-23.0,-49.0,0.0,-10.0,-23.0,162.0,21.0,0.0,-49.0,-29.0,0.0
-78.0,-43.0,-47.0,-6.0,-15.0,162.0,31.0,9.0,-41.0,-45.0,0.0
-62.0,-16.0,-106.0,7.0,-11.0,178.0,35.0,1.0,-27.0,-47.0,0.0
-2.0,-3.0,-26.0,-6.0,-12.0,254.0,63.0,-9.0,-13.0,-37.0,0.0
70.0,13.0,6.0,-21.0,-13.0,333.0,112.0,-10.0,-4.0,-6.0,0.0
113.0,47.0,1.0,-21.0,0.0,330.0,141.0,3.0,12.0,33.0,0.0
94.0,19.0,-2.0,-19.0,7.0,225.0,105.0,9.0,14.0,62.0,0.0
25.0,-18.0,-9.0,-23.0,4.0,97.0,45.0,10.0,16.0,58.0,0.0
-55.0,-24.0,-4.0,-12.0,10.0,-43.0,-11.0,9.0,26.0,26.0,0.0
-93.0,-14.0,24.0,11.0,22.0,-209.0,-69.0,-4.0,14.0,-35.0,0.0
-85.0,-17.0,48.0,22.0,27.0,-344.0,-105.0,-15.0,-21.0,-55.0,0.0
-68.0,-12.0,35.0,22.0,17.0,-424.0,-128.0,-8.0,-17.0,-49.0,0.0
-59.0,9.0,-21.0,23.0,5.0,-440.0,-135.0,-3.0,-29.0,-30.0,0.0
-49.0,22.0,-54.0,17.0,2.0,-395.0,-132.0,-5.0,-11.0,-16.0,0.0
-49.0,27.0,11.0,14.0,3.0,-233.0,-115.0,-3.0,-6.0,0.0,0.0
-59.0,26.0,1.0,1.0,2.0,-43.0,-81.0,1.0,-9.0,19.0,0.0
-58.0,3.0,-11.0,-12.0,3.0,76.0,-54.0,7.0,4.0,22.0,0.0
-41.0,15.0,0.0,-8.0,-7.0,107.0,-24.0,3.0,-21.0,23.0,0.0
0.0,20.0,10.0,-13.0,-9.0,118.0,-13.0,-6.0,-31.0,17.0,0.0
30.0,23.0,0.0,-23.0,-15.0,172.0,1.0,-14.0,-30.0,11.0,0.0
57.0,48.0,-3.0,-23.0,-39.0,263.0,22.0,-8.0,-18.0,8.0,0.0
44.0,41.0,-21.0,-17.0,-60.0,309.0,22.0,-3.0,4.0,14.0,0.0
46.0,23.0,-82.0,-2.0,-20.0,261.0,-4.0,3.0,31.0,31.0,0.0
19.0,-8.0,-45.0,34.0,81.0,139.0,-28.0,3.0,48.0,32.0,0.0
7.0,18.0,28.0,46.0,95.0,7.0,-69.0,-1.0,50.0,9.0,0.0
46.0,56.0,78.0,42.0,50.0,-133.0,-55.0,-8.0,24.0,-2.0,0.0
81.0,74.0,93.0,30.0,38.0,-244.0,-56.0,-24.0,-2.0,-10.0,0.0
86.0,71.0,72.0,22.0,43.0,-350.0,-103.0,-32.0,-24.0,-42.0,0.0
96.0,99.0,54.0,13.0,39.0,-406.0,-82.0,-21.0,-36.0,-63.0,0.0
95.0,103.0,51.0,21.0,40.0,-402.0,-85.0,-18.0,-35.0,-62.0,0.0
108.0,70.0,9.0,35.0,47.0,-313.0,-87.0,-16.0,-50.0,-66.0,0.0
107.0,33.0,-113.0,26.0,46.0,-121.0,-35.0,-9.0,-26.0,-14.0,0.0
88.0,7.0,-103.0,-3.0,31.0,34.0,-13.0,13.0,31.0,63.0,0.0
79.0,14.0,-13.0,-24.0,9.0,109.0,5.0,-7.0,29.0,48.0,0.0
18.0,-1.0,-5.0,-31.0,-3.0,128.0,-7.0,-25.0,-13.0,18.0,0.0
-74.0,-59.0,-10.0,-35.0,-9.0,134.0,-28.0,-15.0,0.0,25.0,0.0
-57.0,-50.0,27.0,-29.0,-6.0,211.0,-30.0,-10.0,5.0,17.0,0.0
-6.0,-25.0,-19.0,-29.0,3.0,298.0,0.0,-8.0,-11.0,-7.0,0.0
-9.0,-14.0,-20.0,-8.0,0.0,317.0,-3.0,-3.0,-8.0,-17.0,0.0
-10.0,-33.0,27.0,7.0,25.0,224.0,-10.0,-7.0,-11.0,-31.0,0.0
-25.0,-83.0,28.0,47.0,69.0,101.0,-25.0,0.0,12.0,-23.0,0.0
-13.0,-85.0,38.0,65.0,77.0,-34.0,-66.0,2.0,25.0,-22.0,0.0
4.0,-24.0,51.0,40.0,51.0,-176.0,-105.0,-21.0,-1.0,-41.0,0.0
-18.0,6.0,63.0,34.0,17.0,-286.0,-116.0,-48.0,8.0,-39.0,0.0
-15.0,2.0,81.0,46.0,0.0,-378.0,-108.0,-44.0,41.0,-10.0,0.0
-8.0,-22.0,92.0,43.0,-4.0,-415.0,-103.0,-27.0,62.0,0.0,0.0
-38.0,-36.0,73.0,36.0,-17.0,-374.0,-118.0,-9.0,72.0,6.0,0.0
-51.0,-32.0,80.0,32.0,-24.0,-221.0,-101.0,3.0,71.0,4.0,0.0
-66.0,-31.0,70.0,21.0,-23.0,-28.0,-60.0,3.0,46.0,-1.0,0.0
-59.0,-22.0,50.0,18.0,-28.0,104.0,-38.0,-5.0,34.0,-3.0,0.0
-24.0,-31.0,23.0,18.0,-21.0,155.0,0.0,10.0,43.0,21.0,0.0
-7.0,-49.0,-10.0,11.0,-12.0,178.0,-4.0,32.0,42.0,38.0,0.0
-36.0,-75.0,-38.0,7.0,-9.0,215.0,-17.0,31.0,30.0,27.0,0.0
-68.0,-78.0,-42.0,-10.0,-3.0,282.0,-11.0,21.0,22.0,8.0,0.0
-77.0,-73.0,-43.0,-19.0,-12.0,328.0,-1.0,20.0,4.0,-5.0,0.0
-76.0,-58.0,-30.0,-11.0,-17.0,301.0,-18.0,21.0,-11.0,13.0,0.0
-65.0,-38.0,-10.0,0.0,-29.0,193.0,-33.0,19.0,-20.0,0.0,0.0
-65.0,-33.0,-16.0,12.0,-25.0,97.0,-47.0,15.0,-33.0,-29.0,0.0
-58.0,-42.0,-22.0,16.0,-13.0,-54.0,-51.0,10.0,-35.0,-22.0,0.0
-31.0,-21.0,-16.0,13.0,-13.0,-202.0,-26.0,4.0,-33.0,-2.0,0.0
19.0,29.0,5.0,6.0,-7.0,-314.0,-23.0,0.0,-49.0,6.0,0.0
44.0,63.0,28.0,1.0,-8.0,-380.0,-5.0,3.0,-49.0,10.0,0.0
67.0,81.0,41.0,3.0,-21.0,-387.0,0.0,8.0,-21.0,38.0,0.0
69.0,91.0,49.0,21.0,-26.0,-317.0,5.0,-2.0,4.0,44.0,0.0
36.0,77.0,57.0,30.0,-19.0,-129.0,-4.0,3.0,-2.0,38.0,0.0
14.0,46.0,49.0,24.0,-19.0,49.0,13.0,12.0,16.0,26.0,0.0
2.0,16.0,47.0,26.0,-13.0,141.0,44.0,0.0,23.0,-8.0,0.0
-50.0,-56.0,32.0,32.0,-15.0,172.0,50.0,17.0,35.0,-18.0,0.0
-67.0,-94.0,27.0,30.0,-11.0,185.0,43.0,37.0,51.0,-12.0,0.0
-12.0,-73.0,-11.0,14.0,-35.0,273.0,91.0,32.0,61.0,11.0,0.0
28.0,-43.0,-112.0,-2.0,-47.0,379.0,140.0,31.0,46.0,24.0,0.0
19.0,-14.0,-147.0,6.0,-10.0,399.0,145.0,31.0,32.0,20.0,0.0
14.0,20.0,-135.0,15.0,64.0,316.0,110.0,4.0,18.0,0.0,0.0
17.0,9.0,-53.0,0.0,77.0,183.0,81.0,-16.0,6.0,-17.0,0.0
33.0,25.0,28.0,-22.0,33.0,51.0,69.0,-12.0,16.0,-8.0,0.0
44.0,42.0,36.0,-25.0,24.0,-104.0,62.0,-8.0,19.0,10.0,0.0
65.0,39.0,28.0,-24.0,17.0,-234.0,44.0,13.0,10.0,25.0,0.0
63.0,37.0,36.0,-25.0,14.0,-333.0,26.0,17.0,0.0,34.0,0.0
55.0,21.0,34.0,-12.0,33.0,-376.0,51.0,4.0,-7.0,14.0,0.0
41.0,35.0,-5.0,0.0,44.0,-359.0,82.0,-1.0,-6.0,4.0,0.0
38.0,27.0,13.0,5.0,44.0,-256.0,90.0,-3.0,-10.0,10.0,0.0
44.0,-18.0,12.0,-9.0,40.0,-67.0,105.0,5.0,-19.0,18.0,0.0
26.0,-64.0,-11.0,-21.0,50.0,92.0,137.0,16.0,-23.0,29.0,0.0
28.0,-35.0,-30.0,-19.0,40.0,159.0,128.0,23.0,-16.0,38.0,0.0
42.0,-14.0,-32.0,-30.0,23.0,165.0,102.0,18.0,-13.0,44.0,0.0
42.0,-20.0,-13.0,-44.0,16.0,176.0,106.0,26.0,-9.0,54.0,0.0
39.0,-7.0,-20.0,-41.0,2.0,255.0,110.0,34.0,-3.0,58.0,0.0
21.0,0.0,-21.0,-44.0,-7.0,326.0,121.0,37.0,-1.0,45.0,0.0
-24.0,-6.0,-22.0,-39.0,1.0,299.0,108.0,45.0,5.0,13.0,0.0
-27.0,0.0,-19.0,-41.0,-2.0,181.0,88.0,49.0,26.0,14.0,0.0
49.0,42.0,-41.0,-33.0,-21.0,95.0,97.0,36.0,53.0,31.0,0.0
129.0,61.0,-117.0,0.0,-21.0,-13.0,108.0,22.0,54.0,36.0,0.0
153.0,64.0,-67.0,33.0,52.0,-176.0,125.0,7.0,46.0,15.0,0.0
138.0,44.0,18.0,42.0,90.0,-294.0,105.0,0.0,45.0,9.0,0.0
93.0,39.0,12.0,34.0,50.0,-346.0,75.0,6.0,37.0,23.0,0.0
31.0,22.0,-17.0,51.0,14.0,-340.0,37.0,0.0,19.0,5.0,0.0
-45.0,10.0,17.0,66.0,6.0,-292.0,-7.0,-9.0,-9.0,-40.0,0.0
-108.0,-12.0,41.0,49.0,22.0,-149.0,-15.0,-14.0,-17.0,-56.0,0.0
-117.0,-27.0,12.0,41.0,31.0,12.0,11.0,-5.0,-10.0,-39.0,0.0
-110.0,-20.0,-7.0,29.0,21.0,107.0,24.0,6.0,-11.0,-24.0,0.0
-59.0,0.0,-1.0,26.0,1.0,151.0,21.0,0.0,-22.0,-14.0,0.0
-19.0,17.0,18.0,27.0,-3.0,156.0,16.0,3.0,-19.0,3.0,0.0
18.0,32.0,20.0,13.0,5.0,203.0,11.0,4.0,-26.0,9.0,0.0
41.0,43.0,16.0,14.0,7.0,291.0,32.0,8.0,-38.0,4.0,0.0
32.0,39.0,18.0,19.0,23.0,327.0,51.0,5.0,-19.0,-4.0,0.0
28.0,22.0,22.0,24.0,26.0,280.0,24.0,-4.0,-17.0,-20.0,0.0
6.0,21.0,13.0,20.0,16.0,187.0,-44.0,-1.0,-32.0,-19.0,0.0
-50.0,5.0,-1.0,37.0,8.0,68.0,-95.0,3.0,-39.0,-24.0,0.0
-50.0,14.0,-30.0,23.0,-2.0,-96.0,-122.0,7.0,-43.0,-37.0,0.0
-5.0,10.0,-36.0,-1.0,-8.0,-245.0,-151.0,0.0,-15.0,-21.0,0.0
5.0,15.0,-40.0,0.0,3.0,-340.0,-161.0,8.0,16.0,6.0,0.0
20.0,17.0,-37.0,4.0,11.0,-394.0,-140.0,11.0,28.0,14.0,0.0
32.0,25.0,-55.0,-9.0,0.0,-386.0,-101.0,22.0,38.0,28.0,0.0
42.0,20.0,-126.0,-28.0,-10.0,-294.0,-85.0,33.0,48.0,26.0,0.0
34.0,14.0,-138.0,-34.0,-7.0,-107.0,-58.0,23.0,56.0,31.0,0.0
18.0,20.0,-85.0,-38.0,-10.0,56.0,-57.0,21.0,61.0,51.0,0.0
10.0,21.0,-65.0,-28.0,-11.0,119.0,-53.0,23.0,54.0,62.0,0.0
18.0,20.0,-59.0,-21.0,-2.0,136.0,-78.0,17.0,45.0,61.0,0.0
30.0,33.0,-35.0,-1.0,7.0,156.0,-72.0,10.0,49.0,60.0,0.0
30.0,36.0,-15.0,50.0,31.0,217.0,-62.0,1.0,25.0,33.0,0.0
23.0,22.0,-21.0,88.0,58.0,294.0,-49.0,-10.0,3.0,16.0,0.0
42.0,13.0,-36.0,50.0,38.0,313.0,-61.0,-9.0,-18.0,9.0,0.0
69.0,19.0,-31.0,10.0,19.0,233.0,-65.0,-18.0,-43.0,-12.0,0.0
98.0,58.0,-6.0,19.0,12.0,133.0,-60.0,-26.0,-39.0,-5.0,0.0
79.0,44.0,-4.0,17.0,9.0,-2.0,-81.0,-22.0,-37.0,22.0,0.0
40.0,30.0,5.0,11.0,13.0,-149.0,-109.0,-21.0,-39.0,1.0,0.0
46.0,15.0,7.0,8.0,15.0,-282.0,-128.0,-22.0,-41.0,-7.0,0.0
90.0,27.0,18.0,18.0,11.0,-358.0,-100.0,-9.0,-44.0,-3.0,0.0
120.0,40.0,31.0,34.0,7.0,-378.0,-60.0,-14.0,-36.0,-19.0,0.0
152.0,74.0,27.0,21.0,6.0,-357.0,-49.0,-29.0,-52.0,-35.0,0.0
190.0,107.0,13.0,0.0,-5.0,-206.0,-30.0,-30.0,-33.0,2.0,0.0
116.0,103.0,4.0,-8.0,-13.0,-12.0,0.0,-17.0,20.0,62.0,0.0
54.0,87.0,-10.0,-3.0,-2.0,121.0,15.0,-12.0,35.0,73.0,0.0
17.0,75.0,-2.0,16.0,13.0,171.0,2.0,-10.0,33.0,49.0,0.0
5.0,36.0,0.0,50.0,37.0,182.0,-13.0,1.0,60.0,49.0,0.0
45.0,50.0,7.0,51.0,36.0,230.0,15.0,-8.0,35.0,-2.0,0.0
94.0,99.0,12.0,38.0,8.0,318.0,37.0,-32.0,0.0,-25.0,0.0
125.0,102.0,0.0,22.0,-10.0,371.0,72.0,-15.0,13.0,12.0,0.0
27.0,41.0,-19.0,14.0,-1.0,303.0,47.0,26.0,62.0,37.0,0.0
-132.0,-39.0,-40.0,15.0,-3.0,160.0,-44.0,67.0,92.0,46.0,0.0
-214.0,-66.0,-32.0,29.0,-1.0,36.0,-116.0,62.0,78.0,4.0,0.0
-223.0,-74.0,-14.0,41.0,-3.0,-112.0,-161.0,41.0,31.0,-44.0,0.0
-220.0,-93.0,-23.0,34.0,-8.0,-253.0,-165.0,32.0,3.0,-40.0,0.0
-170.0,-95.0,-23.0,27.0,-9.0,-337.0,-147.0,26.0,10.0,-5.0,0.0
-115.0,-65.0,-33.0,18.0,-25.0,-384.0,-134.0,38.0,28.0,6.0,0.0
-72.0,-23.0,-50.0,12.0,-21.0,-388.0,-136.0,126.0,70.0,14.0,0.0
-24.0,14.0,-155.0,8.0,-11.0,-308.0,-107.0,49.0,24.0,10.0,0.0
26.0,38.0,-141.0,17.0,-4.0,-115.0,-77.0,2.0,-34.0,10.0,0.0
38.0,54.0,-34.0,14.0,-11.0,72.0,-55.0,-1.0,-42.0,13.0,0.0
18.0,58.0,-35.0,4.0,-22.0,176.0,-22.0,0.0,-25.0,21.0,0.0
-26.0,21.0,-24.0,4.0,-21.0,184.0,0.0,1.0,-8.0,25.0,0.0
-41.0,-63.0,-6.0,11.0,7.0,181.0,13.0,15.0,5.0,39.0,0.0
-32.0,-77.0,-5.0,25.0,47.0,232.0,58.0,24.0,11.0,35.0,0.0
-24.0,-47.0,0.0,47.0,54.0,303.0,89.0,14.0,14.0,29.0,0.0
-27.0,-25.0,-6.0,48.0,51.0,341.0,90.0,16.0,14.0,20.0,0.0
-3.0,28.0,-11.0,45.0,41.0,283.0,75.0,21.0,21.0,24.0,0.0
27.0,59.0,-15.0,29.0,21.0,182.0,57.0,25.0,32.0,36.0,0.0
113.0,96.0,6.0,34.0,17.0,66.0,68.0,19.0,41.0,12.0,0.0
146.0,125.0,13.0,37.0,14.0,-74.0,49.0,5.0,43.0,-2.0,0.0
161.0,122.0,38.0,35.0,11.0,-192.0,36.0,7.0,35.0,-19.0,0.0
153.0,100.0,34.0,32.0,13.0,-279.0,27.0,0.0,18.0,-19.0,0.0
66.0,39.0,27.0,17.0,33.0,-319.0,-2.0,12.0,19.0,9.0,0.0
-26.0,-34.0,44.0,23.0,67.0,-322.0,-34.0,60.0,54.0,64.0,0.0
-9.0,-16.0,51.0,79.0,111.0,-218.0,8.0,102.0,85.0,103.0,0.0
103.0,41.0,78.0,100.0,129.0,-13.0,90.0,125.0,130.0,130.0,0.0
169.0,67.0,102.0,109.0,125.0,150.0,138.0,132.0,132.0,124.0,0.0
163.0,92.0,127.0,110.0,130.0,214.0,162.0,149.0,130.0,133.0,0.0
153.0,117.0,135.0,109.0,128.0,249.0,169.0,147.0,121.0,143.0,0.0
149.0,116.0,106.0,120.0,116.0,277.0,156.0,146.0,129.0,158.0,0.0
111.0,86.0,128.0,125.0,120.0,358.0,153.0,150.0,133.0,165.0,0.0
36.0,45.0,145.0,135.0,149.0,418.0,159.0,163.0,151.0,163.0,0.0
0.0,15.0,87.0,151.0,176.0,398.0,148.0,181.0,156.0,178.0,0.0
39.0,62.0,86.0,166.0,171.0,307.0,144.0,176.0,143.0,178.0,0.0
75.0,107.0,146.0,156.0,147.0,212.0,173.0,169.0,144.0,189.0,0.0
102.0,131.0,165.0,131.0,112.0,85.0,168.0,183.0,170.0,214.0,0.0
131.0,143.0,168.0,146.0,108.0,-70.0,152.0,176.0,176.0,212.0,0.0
161.0,158.0,225.0,169.0,157.0,-191.0,171.0,153.0,173.0,196.0,0.0
180.0,162.0,242.0,173.0,214.0,-247.0,172.0,147.0,174.0,185.0,0.0
191.0,165.0,242.0,175.0,214.0,-256.0,176.0,158.0,181.0,189.0,0.0
165.0,171.0,235.0,172.0,251.0,-224.0,175.0,146.0,174.0,170.0,0.0
154.0,177.0,235.0,166.0,252.0,-102.0,165.0,144.0,151.0,146.0,0.0
181.0,196.0,239.0,155.0,207.0,85.0,190.0,142.0,174.0,165.0,0.0
195.0,195.0,239.0,155.0,190.0,212.0,218.0,147.0,178.0,206.0,0.0
190.0,173.0,239.0,150.0,181.0,239.0,229.0,152.0,158.0,175.0,0.0
193.0,174.0,230.0,149.0,174.0,251.0,229.0,156.0,164.0,174.0,0.0
187.0,189.0,228.0,143.0,165.0,308.0,217.0,157.0,154.0,194.0,0.0
160.0,166.0,211.0,143.0,159.0,412.0,228.0,160.0,158.0,195.0,0.0
147.0,146.0,209.0,145.0,174.0,475.0,230.0,172.0,159.0,180.0,0.0
173.0,163.0,196.0,128.0,182.0,444.0,241.0,177.0,157.0,177.0,0.0
204.0,191.0,86.0,118.0,169.0,347.0,236.0,181.0,156.0,192.0,0.0
217.0,195.0,53.0,114.0,159.0,235.0,208.0,186.0,164.0,213.0,0.0
214.0,182.0,160.0,111.0,148.0,68.0,175.0,192.0,161.0,220.0,0.0
197.0,172.0,216.0,117.0,158.0,-111.0,160.0,195.0,166.0,219.0,0.0
182.0,201.0,248.0,131.0,168.0,-223.0,161.0,191.0,133.0,195.0,0.0
168.0,217.0,268.0,162.0,173.0,-281.0,155.0,173.0,109.0,168.0,0.0
189.0,233.0,328.0,245.0,226.0,-237.0,143.0,199.0,136.0,198.0,0.0
237.0,280.0,405.0,360.0,311.0,-116.0,151.0,239.0,174.0,232.0,0.0
266.0,349.0,473.0,398.0,338.0,102.0,205.0,284.0,221.0,274.0,0.0
294.0,409.0,521.0,402.0,339.0,292.0,268.0,316.0,261.0,325.0,0.0
329.0,431.0,536.0,412.0,357.0,396.0,309.0,343.0,281.0,349.0,0.0
380.0,449.0,546.0,435.0,379.0,438.0,326.0,364.0,316.0,363.0,0.0
409.0,454.0,548.0,459.0,399.0,454.0,327.0,402.0,356.0,372.0,0.0
395.0,449.0,534.0,472.0,423.0,513.0,336.0,417.0,384.0,378.0,0.0
398.0,454.0,521.0,458.0,446.0,610.0,347.0,419.0,402.0,395.0,0.0
429.0,462.0,507.0,432.0,454.0,667.0,337.0,438.0,417.0,414.0,0.0
444.0,449.0,493.0,435.0,450.0,588.0,308.0,457.0,434.0,443.0,0.0
406.0,436.0,486.0,445.0,445.0,463.0,261.0,444.0,433.0,430.0,0.0
390.0,436.0,466.0,430.0,444.0,321.0,223.0,432.0,421.0,416.0,0.0
408.0,447.0,460.0,419.0,435.0,165.0,195.0,413.0,402.0,414.0,0.0
404.0,474.0,463.0,416.0,420.0,37.0,174.0,400.0,387.0,423.0,0.0
394.0,479.0,472.0,400.0,405.0,-59.0,146.0,399.0,382.0,433.0,0.0
381.0,468.0,459.0,393.0,395.0,-103.0,128.0,395.0,383.0,426.0,0.0
367.0,449.0,407.0,384.0,379.0,-113.0,131.0,386.0,384.0,422.0,0.0
347.0,424.0,296.0,367.0,363.0,0.0,142.0,382.0,363.0,413.0,0.0
338.0,400.0,301.0,338.0,341.0,190.0,158.0,366.0,312.0,378.0,0.0
351.0,376.0,370.0,309.0,320.0,309.0,187.0,338.0,281.0,350.0,0.0
364.0,341.0,355.0,279.0,297.0,372.0,205.0,306.0,261.0,317.0,0.0
353.0,328.0,332.0,268.0,283.0,382.0,203.0,276.0,240.0,287.0,0.0
338.0,310.0,292.0,263.0,277.0,394.0,195.0,272.0,229.0,280.0,0.0
297.0,304.0,195.0,254.0,271.0,471.0,198.0,275.0,218.0,256.0,0.0
296.0,311.0,216.0,225.0,255.0,539.0,208.0,261.0,184.0,255.0,0.0
335.0,308.0,277.0,204.0,236.0,514.0,209.0,237.0,162.0,240.0,0.0
344.0,288.0,260.0,188.0,215.0,393.0,185.0,225.0,164.0,239.0,0.0
306.0,251.0,240.0,189.0,213.0,279.0,150.0,211.0,165.0,240.0,0.0
274.0,248.0,248.0,194.0,207.0,142.0,95.0,192.0,163.0,221.0,0.0
240.0,233.0,250.0,194.0,184.0,-22.0,48.0,184.0,173.0,219.0,0.0
223.0,243.0,249.0,186.0,155.0,-144.0,32.0,161.0,166.0,202.0,0.0
209.0,254.0,183.0,172.0,128.0,-220.0,31.0,133.0,134.0,165.0,0.0
197.0,234.0,162.0,163.0,115.0,-244.0,37.0,127.0,112.0,143.0,0.0
182.0,183.0,166.0,146.0,101.0,-199.0,38.0,129.0,121.0,149.0,0.0
145.0,126.0,146.0,111.0,96.0,-46.0,45.0,126.0,119.0,152.0,0.0
83.0,88.0,158.0,100.0,98.0,126.0,42.0,116.0,108.0,120.0,0.0
1.0,51.0,135.0,92.0,83.0,199.0,34.0,118.0,121.0,121.0,0.0
-57.0,48.0,124.0,97.0,70.0,210.0,38.0,96.0,92.0,62.0,0.0
-85.0,67.0,154.0,113.0,73.0,206.0,6.0,55.0,22.0,-16.0,0.0
-89.0,61.0,135.0,106.0,56.0,247.0,-16.0,49.0,-8.0,-22.0,0.0
-51.0,55.0,103.0,82.0,41.0,340.0,0.0,57.0,7.0,15.0,0.0
-4.0,73.0,104.0,43.0,22.0,393.0,-7.0,51.0,11.0,23.0,0.0
20.0,101.0,82.0,26.0,1.0,346.0,-22.0,42.0,-4.0,16.0,0.0
19.0,106.0,61.0,14.0,-3.0,209.0,-56.0,26.0,-26.0,-8.0,0.0
12.0,86.0,48.0,1.0,-10.0,77.0,-90.0,3.0,-61.0,-22.0,0.0
-12.0,19.0,-8.0,-16.0,-35.0,-84.0,-124.0,-15.0,-72.0,-7.0,0.0
-77.0,-54.0,-57.0,-16.0,-38.0,-229.0,-166.0,-15.0,-77.0,-9.0,0.0
-140.0,-114.0,-2.0,-15.0,-23.0,-333.0,-203.0,-13.0,-86.0,-30.0,0.0
-135.0,-128.0,13.0,-17.0,-27.0,-398.0,-219.0,-30.0,-115.0,-71.0,0.0
-102.0,-101.0,0.0,-44.0,-30.0,-389.0,-204.0,-51.0,-134.0,-77.0,0.0
-80.0,-91.0,-15.0,-70.0,-46.0,-303.0,-176.0,-66.0,-140.0,-64.0,0.0
-88.0,-91.0,-37.0,-70.0,-54.0,-128.0,-137.0,-62.0,-131.0,-70.0,0.0
-89.0,-82.0,-40.0,-72.0,-50.0,24.0,-100.0,-65.0,-114.0,-69.0,0.0
-68.0,-83.0,-25.0,-78.0,-60.0,93.0,-72.0,-66.0,-109.0,-64.0,0.0
-47.0,-89.0,-20.0,-74.0,-65.0,118.0,-46.0,-68.0,-112.0,-82.0,0.0
-29.0,-108.0,-36.0,-81.0,-76.0,145.0,-33.0,-78.0,-122.0,-101.0,0.0
-17.0,-87.0,-59.0,-98.0,-98.0,234.0,-32.0,-85.0,-133.0,-98.0,0.0
-21.0,-61.0,-181.0,-104.0,-117.0,302.0,-18.0,-88.0,-115.0,-75.0,0.0
-55.0,-50.0,-238.0,-115.0,-140.0,295.0,-12.0,-94.0,-79.0,-52.0,0.0
-131.0,-19.0,-136.0,-118.0,-156.0,179.0,-31.0,-97.0,-76.0,-66.0,0.0
-178.0,-23.0,-74.0,-112.0,-147.0,61.0,-62.0,-107.0,-92.0,-119.0,0.0
-147.0,-65.0,-101.0,-94.0,-95.0,-79.0,-78.0,-131.0,-109.0,-144.0,0.0
-77.0,-107.0,-53.0,-88.0,-34.0,-247.0,-76.0,-141.0,-114.0,-133.0,0.0
-45.0,-118.0,-73.0,-125.0,-82.0,-353.0,-75.0,-132.0,-111.0,-110.0,0.0
-67.0,-121.0,-104.0,-159.0,-134.0,-415.0,-80.0,-126.0,-86.0,-105.0,0.0
-99.0,-114.0,-106.0,-169.0,-144.0,-453.0,-77.0,-131.0,-96.0,-117.0,0.0
-144.0,-99.0,-88.0,-157.0,-130.0,-424.0,-97.0,-123.0,-123.0,-169.0,0.0
-193.0,-94.0,-100.0,-141.0,-108.0,-299.0,-107.0,-126.0,-135.0,-208.0,0.0
-210.0,-124.0,-71.0,-141.0,-116.0,-131.0,-100.0,-142.0,-135.0,-199.0,0.0
-237.0,-176.0,-62.0,-129.0,-133.0,-21.0,-92.0,-128.0,-119.0,-166.0,0.0
-274.0,-240.0,-100.0,-136.0,-129.0,-3.0,-75.0,-107.0,-96.0,-135.0,0.0
-272.0,-265.0,-156.0,-130.0,-122.0,20.0,-69.0,-104.0,-115.0,-139.0,0.0
-234.0,-218.0,-167.0,-110.0,-124.0,73.0,-43.0,-135.0,-168.0,-163.0,0.0
-198.0,-171.0,-122.0,-116.0,-154.0,181.0,9.0,-166.0,-198.0,-175.0,0.0
-177.0,-140.0,-90.0,-118.0,-186.0,268.0,26.0,-168.0,-202.0,-172.0,0.0
-171.0,-117.0,-31.0,-125.0,-202.0,236.0,-14.0,-162.0,-198.0,-149.0,0.0
-191.0,-113.0,-18.0,-114.0,-161.0,142.0,-56.0,-172.0,-192.0,-143.0,0.0
-233.0,-131.0,-23.0,-68.0,-68.0,42.0,-78.0,-200.0,-228.0,-186.0,0.0
-236.0,-151.0,-47.0,-90.0,-60.0,-128.0,-73.0,-216.0,-255.0,-217.0,0.0
-193.0,-166.0,-102.0,-129.0,-113.0,-292.0,-59.0,-191.0,-233.0,-189.0,0.0
-145.0,-192.0,-162.0,-140.0,-132.0,-398.0,-55.0,-175.0,-197.0,-168.0,0.0
-112.0,-195.0,-162.0,-151.0,-142.0,-451.0,-53.0,-172.0,-180.0,-164.0,0.0
-118.0,-186.0,-128.0,-155.0,-147.0,-450.0,-70.0,-175.0,-172.0,-186.0,0.0
-161.0,-200.0,-136.0,-159.0,-149.0,-374.0,-78.0,-179.0,-163.0,-200.0,0.0
-168.0,-208.0,-141.0,-160.0,-147.0,-208.0,-51.0,-166.0,-151.0,-194.0,0.0
-166.0,-193.0,-139.0,-165.0,-145.0,-27.0,3.0,-154.0,-150.0,-173.0,0.0
-164.0,-181.0,-127.0,-164.0,-148.0,59.0,44.0,-157.0,-144.0,-152.0,0.0
-145.0,-154.0,-126.0,-170.0,-153.0,76.0,65.0,-157.0,-137.0,-144.0,0.0
-125.0,-147.0,-132.0,-158.0,-149.0,94.0,92.0,-160.0,-118.0,-150.0,0.0
-113.0,-138.0,-120.0,-149.0,-153.0,164.0,103.0,-174.0,-115.0,-154.0,0.0
-110.0,-138.0,-100.0,-153.0,-148.0,263.0,105.0,-182.0,-125.0,-154.0,0.0
-124.0,-158.0,-100.0,-153.0,-148.0,300.0,103.0,-182.0,-124.0,-141.0,0.0
-133.0,-168.0,-180.0,-153.0,-148.0,209.0,79.0,-171.0,-142.0,-133.0,0.0
-120.0,-166.0,-176.0,-157.0,-154.0,98.0,38.0,-172.0,-145.0,-141.0,0.0
-97.0,-149.0,-165.0,-153.0,-161.0,-13.0,6.0,-175.0,-161.0,-134.0,0.0
-94.0,-136.0,-190.0,-136.0,-163.0,-177.0,-10.0,-179.0,-180.0,-151.0,0.0
-94.0,-128.0,-81.0,-141.0,-167.0,-301.0,-38.0,-188.0,-190.0,-161.0,0.0
-118.0,-133.0,-42.0,-130.0,-177.0,-387.0,-58.0,-192.0,-173.0,-170.0,0.0
-141.0,-133.0,-85.0,-129.0,-178.0,-434.0,-58.0,-186.0,-174.0,-185.0,0.0
-118.0,-104.0,-203.0,-150.0,-181.0,-420.0,-48.0,-192.0,-192.0,-188.0,0.0
-95.0,-105.0,-267.0,-164.0,-195.0,-309.0,-41.0,-194.0,-202.0,-169.0,0.0
-88.0,-133.0,-200.0,-174.0,-207.0,-128.0,-7.0,-193.0,-173.0,-138.0,0.0
-108.0,-157.0,-122.0,-185.0,-205.0,26.0,6.0,-184.0,-150.0,-121.0,0.0
-123.0,-166.0,-96.0,-172.0,-206.0,92.0,-1.0,-177.0,-169.0,-138.0,0.0
-160.0,-184.0,-126.0,-154.0,-178.0,108.0,-14.0,-159.0,-165.0,-165.0,0.0
-199.0,-191.0,-212.0,-147.0,-160.0,127.0,-17.0,-141.0,-133.0,-181.0,0.0
-214.0,-174.0,-167.0,-140.0,-161.0,195.0,5.0,-136.0,-122.0,-189.0,0.0
-140.0,-156.0,-83.0,-144.0,-165.0,281.0,18.0,-143.0,-113.0,-176.0,0.0
-70.0,-130.0,-70.0,-141.0,-178.0,270.0,3.0,-142.0,-95.0,-162.0,0.0
-48.0,-143.0,-60.0,-147.0,-190.0,159.0,-25.0,-140.0,-86.0,-145.0,0.0
-64.0,-180.0,-66.0,-146.0,-174.0,33.0,-52.0,-125.0,-52.0,-103.0,0.0
-127.0,-210.0,-73.0,-131.0,-161.0,-136.0,-107.0,-106.0,-22.0,-61.0,0.0
-172.0,-178.0,-55.0,-136.0,-157.0,-301.0,-160.0,-121.0,-59.0,-110.0,0.0
-217.0,-163.0,-45.0,-147.0,-166.0,-414.0,-203.0,-134.0,-93.0,-165.0,0.0
-234.0,-144.0,-59.0,-148.0,-160.0,-500.0,-212.0,-138.0,-125.0,-177.0,0.0
-220.0,-128.0,-155.0,-152.0,-146.0,-532.0,-198.0,-130.0,-129.0,-164.0,0.0
-189.0,-151.0,-120.0,-157.0,-134.0,-488.0,-161.0,-122.0,-110.0,-143.0,0.0
