channel0,channel1,channel2,channel3,channel4,channel5,channel6,channel7,channel8,channel9,true_locs
15.0,-31.0,-19.0,31.0,-2.0,14.0,9.0,29.0,-21.0,-27.0,0.0
8.0,-23.0,3.0,47.0,17.0,25.0,13.0,22.0,-13.0,-35.0,0.0
11.0,-9.0,24.0,41.0,31.0,23.0,2.0,14.0,-5.0,22.0,0.0
25.0,16.0,42.0,39.0,30.0,24.0,-3.0,13.0,17.0,67.0,0.0
37.0,45.0,22.0,6.0,14.0,13.0,2.0,24.0,22.0,50.0,0.0
48.0,42.0,-2.0,-28.0,0.0,9.0,-13.0,28.0,18.0,39.0,0.0
36.0,29.0,10.0,-30.0,-7.0,18.0,-9.0,25.0,12.0,20.0,0.0
16.0,12.0,11.0,-21.0,-10.0,15.0,2.0,16.0,0.0,-14.0,0.0
9.0,-7.0,8.0,-15.0,-3.0,16.0,5.0,9.0,-9.0,-32.0,0.0
8.0,-9.0,6.0,0.0,1.0,19.0,12.0,-3.0,-21.0,-45.0,0.0
-10.0,-13.0,0.0,13.0,-4.0,-4.0,12.0,-22.0,0.0,-2.0,0.0
-39.0,-32.0,-19.0,11.0,-6.0,-9.0,7.0,-21.0,30.0,65.0,0.0
-41.0,-27.0,-28.0,18.0,9.0,-1.0,3.0,2.0,19.0,42.0,0.0
4.0,15.0,-25.0,16.0,16.0,9.0,16.0,11.0,-12.0,-3.0,0.0
25.0,20.0,-23.0,0.0,3.0,-13.0,14.0,0.0,3.0,-2.0,0.0
4.0,-3.0,-13.0,0.0,1.0,-30.0,9.0,5.0,41.0,-16.0,0.0
-17.0,3.0,13.0,6.0,13.0,-11.0,-5.0,13.0,34.0,-38.0,0.0
-18.0,-14.0,12.0,2.0,-3.0,1.0,13.0,17.0,20.0,-69.0,0.0
-6.0,-42.0,-10.0,-16.0,-13.0,-2.0,27.0,14.0,24.0,0.0,0.0
19.0,-33.0,-19.0,-19.0,-19.0,-7.0,5.0,11.0,34.0,123.0,0.0
37.0,5.0,-1.0,-4.0,-1.0,8.0,0.0,17.0,36.0,62.0,0.0
48.0,15.0,-30.0,-5.0,9.0,24.0,14.0,40.0,44.0,17.0,0.0
35.0,2.0,-76.0,-8.0,-1.0,3.0,12.0,34.0,30.0,-4.0,0.0
21.0,-3.0,-97.0,-1.0,2.0,1.0,-9.0,15.0,-9.0,-19.0,0.0
0.0,-12.0,-94.0,6.0,25.0,2.0,-20.0,13.0,-15.0,-26.0,0.0
-12.0,-15.0,-86.0,2.0,33.0,8.0,-14.0,8.0,0.0,-23.0,0.0
3.0,-4.0,-46.0,-2.0,22.0,3.0,-32.0,2.0,10.0,11.0,0.0
19.0,-5.0,41.0,-29.0,8.0,4.0,-24.0,0.0,29.0,36.0,0.0
39.0,7.0,183.0,-33.0,2.0,19.0,-3.0,4.0,29.0,23.0,0.0
33.0,32.0,218.0,-1.0,0.0,14.0,-8.0,11.0,5.0,-10.0,0.0
-3.0,4.0,28.0,21.0,-15.0,-10.0,-23.0,-5.0,-18.0,-36.0,0.0
-33.0,-28.0,-71.0,19.0,-14.0,-14.0,-36.0,-21.0,-25.0,-56.0,0.0
-33.0,-19.0,-34.0,9.0,4.0,-2.0,-28.0,-11.0,-28.0,-49.0,0.0
-25.0,-26.0,-6.0,13.0,8.0,8.0,-15.0,0.0,-27.0,-45.0,0.0
-18.0,-27.0,0.0,16.0,5.0,8.0,-31.0,10.0,-29.0,-53.0,0.0
-11.0,-19.0,-15.0,8.0,0.0,-7.0,-30.0,7.0,-41.0,-59.0,0.0
8.0,8.0,-12.0,2.0,5.0,-6.0,-31.0,2.0,-34.0,-47.0,0.0
18.0,24.0,11.0,5.0,2.0,-3.0,-19.0,-2.0,-28.0,-51.0,0.0
17.0,31.0,32.0,20.0,8.0,12.0,-16.0,10.0,-52.0,-66.0,0.0
2.0,3.0,27.0,18.0,0.0,2.0,-10.0,18.0,-24.0,-34.0,0.0
-22.0,-19.0,-1.0,0.0,-8.0,-21.0,-39.0,18.0,24.0,28.0,0.0
-15.0,-10.0,16.0,20.0,0.0,-5.0,-44.0,10.0,17.0,3.0,0.0
0.0,12.0,46.0,28.0,10.0,11.0,-52.0,-2.0,-5.0,-32.0,0.0
6.0,18.0,59.0,29.0,9.0,13.0,-51.0,6.0,-17.0,-37.0,0.0
1.0,11.0,47.0,20.0,7.0,3.0,-46.0,2.0,-28.0,-34.0,0.0
0.0,-1.0,28.0,2.0,-6.0,-14.0,-33.0,-7.0,-19.0,-11.0,0.0
-2.0,4.0,15.0,-15.0,-17.0,-11.0,-21.0,-3.0,-15.0,11.0,0.0
-1.0,11.0,14.0,-15.0,-12.0,0.0,-13.0,4.0,-2.0,7.0,0.0
2.0,4.0,15.0,-4.0,-15.0,-4.0,-18.0,4.0,3.0,4.0,0.0
10.0,6.0,10.0,-3.0,-16.0,-11.0,-20.0,-3.0,7.0,11.0,0.0
9.0,15.0,-2.0,-12.0,-17.0,-13.0,-5.0,-9.0,12.0,9.0,0.0
17.0,21.0,-14.0,-10.0,-12.0,-3.0,20.0,-2.0,23.0,18.0,0.0
8.0,0.0,-17.0,-20.0,-9.0,-5.0,15.0,15.0,11.0,37.0,0.0
2.0,-10.0,-12.0,-33.0,-5.0,-7.0,1.0,17.0,5.0,42.0,0.0
4.0,-2.0,1.0,-32.0,0.0,-12.0,-15.0,19.0,-2.0,33.0,0.0
12.0,3.0,16.0,-18.0,-3.0,-6.0,-13.0,22.0,-3.0,23.0,0.0
18.0,13.0,14.0,0.0,0.0,-2.0,-15.0,20.0,-1.0,40.0,0.0
4.0,8.0,17.0,2.0,5.0,4.0,-7.0,24.0,0.0,32.0,0.0
-15.0,5.0,12.0,-2.0,0.0,2.0,-23.0,26.0,0.0,25.0,0.0
-23.0,10.0,11.0,2.0,-2.0,-5.0,-27.0,10.0,15.0,24.0,0.0
-29.0,5.0,12.0,12.0,8.0,1.0,-1.0,8.0,15.0,5.0,0.0
-28.0,4.0,11.0,17.0,5.0,22.0,10.0,9.0,4.0,-8.0,0.0
-22.0,4.0,0.0,9.0,11.0,24.0,3.0,17.0,3.0,-16.0,0.0
-10.0,-10.0,-7.0,6.0,21.0,25.0,26.0,28.0,15.0,-15.0,0.0
-6.0,-8.0,-18.0,-1.0,16.0,9.0,29.0,20.0,7.0,-8.0,0.0
-11.0,14.0,-7.0,-14.0,12.0,0.0,14.0,8.0,-7.0,-4.0,0.0
-13.0,22.0,21.0,-10.0,18.0,-6.0,14.0,-2.0,-20.0,-5.0,0.0
-14.0,6.0,28.0,6.0,13.0,-22.0,2.0,-24.0,-7.0,-6.0,0.0
-18.0,6.0,32.0,24.0,15.0,-14.0,3.0,-20.0,-10.0,-19.0,0.0
-9.0,8.0,35.0,35.0,16.0,-15.0,-2.0,-23.0,-21.0,-29.0,0.0
5.0,2.0,34.0,31.0,14.0,-15.0,-8.0,-30.0,-18.0,-28.0,0.0
5.0,7.0,29.0,29.0,7.0,-16.0,-16.0,-33.0,-19.0,-23.0,0.0
-11.0,-3.0,-3.0,24.0,-12.0,-32.0,-33.0,-26.0,-18.0,33.0,0.0
-29.0,-17.0,-28.0,18.0,-14.0,-35.0,-32.0,-20.0,-1.0,43.0,0.0
-30.0,-9.0,14.0,3.0,-2.0,-38.0,-16.0,-27.0,-12.0,0.0,0.0
-12.0,23.0,53.0,-5.0,0.0,-37.0,-29.0,-29.0,-26.0,-4.0,0.0
3.0,44.0,61.0,-17.0,-3.0,-37.0,-33.0,-32.0,-19.0,0.0,0.0
4.0,40.0,60.0,-27.0,-11.0,-32.0,-6.0,-22.0,-10.0,3.0,0.0
14.0,39.0,59.0,-41.0,-11.0,-20.0,9.0,-7.0,2.0,11.0,0.0
25.0,21.0,26.0,-41.0,0.0,1.0,15.0,7.0,-5.0,10.0,0.0
4.0,-9.0,-45.0,-25.0,8.0,7.0,20.0,16.0,-13.0,9.0,0.0
-17.0,-44.0,-101.0,-57.0,-14.0,-14.0,1.0,10.0,0.0,65.0,0.0
-15.0,-44.0,-109.0,-94.0,-25.0,-21.0,-3.0,-4.0,0.0,63.0,0.0
-6.0,-29.0,-67.0,-64.0,-17.0,-5.0,-2.0,3.0,3.0,28.0,0.0
2.0,-5.0,-19.0,-32.0,-3.0,5.0,11.0,7.0,2.0,-3.0,0.0
1.0,17.0,15.0,-19.0,9.0,5.0,15.0,9.0,-3.0,-39.0,0.0
-11.0,18.0,15.0,-13.0,10.0,18.0,30.0,5.0,-12.0,-61.0,0.0
-10.0,12.0,13.0,-13.0,20.0,35.0,39.0,2.0,-7.0,-61.0,0.0
-9.0,17.0,13.0,-3.0,33.0,41.0,30.0,11.0,-21.0,-89.0,0.0
-11.0,8.0,8.0,-8.0,23.0,20.0,18.0,23.0,-21.0,-56.0,0.0
16.0,-8.0,-2.0,-29.0,-2.0,-5.0,-16.0,-3.0,0.0,115.0,0.0
52.0,0.0,11.0,-28.0,-12.0,-16.0,-33.0,-14.0,22.0,148.0,0.0
31.0,5.0,21.0,-20.0,-1.0,-16.0,-22.0,-7.0,25.0,66.0,0.0
12.0,4.0,20.0,-27.0,2.0,-19.0,-15.0,-20.0,11.0,21.0,0.0
1.0,2.0,26.0,-20.0,16.0,-12.0,-16.0,-31.0,7.0,-3.0,0.0
-2.0,9.0,32.0,-2.0,17.0,-10.0,-11.0,-30.0,0.0,-19.0,0.0
0.0,19.0,30.0,27.0,20.0,-5.0,-5.0,-29.0,-16.0,-26.0,0.0
-12.0,3.0,27.0,44.0,41.0,-3.0,5.0,-27.0,2.0,24.0,0.0
-22.0,-19.0,-6.0,42.0,38.0,-10.0,-11.0,-35.0,5.0,56.0,0.0
-39.0,-43.0,-26.0,31.0,13.0,-15.0,-22.0,-45.0,-14.0,26.0,0.0
-44.0,-47.0,2.0,25.0,3.0,-12.0,-18.0,-41.0,-23.0,14.0,1.0
-45.0,-39.0,45.0,23.0,17.0,-10.0,-4.0,-36.0,-41.0,-9.0,1.0
-35.0,-13.0,69.0,26.0,28.0,6.0,-3.0,-31.0,-24.0,-14.0,1.0
-8.0,29.0,81.0,29.0,13.0,9.0,-7.0,-21.0,18.0,-2.0,1.0
41.0,70.0,79.0,37.0,10.0,0.0,-18.0,-18.0,21.0,-19.0,1.0
42.0,51.0,40.0,24.0,29.0,-3.0,-1.0,-12.0,-11.0,-40.0,1.0
31.0,28.0,-31.0,-18.0,39.0,8.0,14.0,6.0,-4.0,-11.0,1.0
26.0,18.0,-47.0,-26.0,31.0,6.0,24.0,15.0,27.0,16.0,1.0
37.0,21.0,-22.0,-15.0,30.0,17.0,19.0,5.0,37.0,2.0,1.0
40.0,23.0,11.0,-13.0,19.0,14.0,11.0,-2.0,24.0,-13.0,1.0
9.0,17.0,21.0,-18.0,0.0,9.0,0.0,-10.0,26.0,-5.0,1.0
-3.0,7.0,15.0,-23.0,-20.0,-3.0,-14.0,-15.0,27.0,-3.0,1.0
-9.0,-8.0,8.0,-10.0,-6.0,-2.0,-12.0,-7.0,17.0,-12.0,1.0
-2.0,-18.0,4.0,1.0,0.0,-16.0,-12.0,-18.0,8.0,-29.0,1.0
12.0,-14.0,-1.0,-1.0,-12.0,-23.0,-25.0,-18.0,7.0,-30.0,1.0
31.0,-13.0,-22.0,-13.0,-32.0,-26.0,-18.0,-3.0,24.0,-7.0,1.0
11.0,-21.0,-36.0,-24.0,-38.0,-18.0,-4.0,4.0,39.0,5.0,1.0
-5.0,-22.0,-33.0,2.0,-17.0,-6.0,13.0,11.0,30.0,-2.0,1.0
-4.0,-15.0,-17.0,19.0,-5.0,-10.0,8.0,11.0,17.0,0.0,0.0
2.0,0.0,-2.0,29.0,-2.0,-11.0,11.0,11.0,14.0,10.0,0.0
1.0,-4.0,-12.0,27.0,0.0,-10.0,2.0,22.0,17.0,19.0,0.0
-3.0,-19.0,-2.0,38.0,1.0,-15.0,-5.0,13.0,14.0,7.0,0.0
-3.0,-18.0,8.0,48.0,6.0,-22.0,-20.0,2.0,13.0,-4.0,0.0
-13.0,-17.0,-8.0,55.0,15.0,-19.0,-13.0,15.0,11.0,6.0,0.0
-13.0,-13.0,-37.0,34.0,9.0,-16.0,-11.0,20.0,0.0,-16.0,0.0
0.0,8.0,-51.0,15.0,20.0,-9.0,6.0,16.0,-26.0,-68.0,0.0
25.0,21.0,-47.0,-10.0,8.0,-3.0,0.0,17.0,-27.0,-62.0,0.0
21.0,6.0,-56.0,-37.0,-10.0,-4.0,5.0,29.0,20.0,5.0,0.0
5.0,3.0,-54.0,-56.0,-23.0,5.0,-3.0,37.0,24.0,-29.0,0.0
4.0,16.0,-14.0,-56.0,-19.0,-7.0,0.0,30.0,6.0,-55.0,0.0
10.0,14.0,20.0,-54.0,-11.0,-20.0,-22.0,17.0,14.0,69.0,0.0
14.0,3.0,50.0,-38.0,-7.0,-6.0,-20.0,14.0,7.0,122.0,0.0
0.0,0.0,6.0,-19.0,-4.0,4.0,-11.0,-2.0,1.0,78.0,0.0
-17.0,-13.0,-28.0,2.0,-8.0,-3.0,-8.0,-16.0,17.0,64.0,0.0
-21.0,-12.0,-4.0,28.0,8.0,-6.0,-9.0,-20.0,7.0,29.0,0.0
-22.0,-5.0,5.0,50.0,13.0,-7.0,-12.0,-27.0,-2.0,6.0,0.0
-25.0,-22.0,7.0,62.0,7.0,-21.0,-36.0,-31.0,-18.0,5.0,0.0
-35.0,-31.0,-9.0,53.0,-5.0,-31.0,-42.0,-21.0,-29.0,-8.0,0.0
-33.0,-37.0,-16.0,27.0,-2.0,-35.0,-46.0,-22.0,-32.0,-12.0,0.0
-29.0,-32.0,-3.0,10.0,-4.0,-39.0,-57.0,-37.0,-28.0,-8.0,0.0
-17.0,-14.0,12.0,3.0,-15.0,-20.0,-47.0,-24.0,-13.0,-2.0,0.0
-13.0,3.0,7.0,-8.0,-22.0,1.0,-21.0,0.0,2.0,-3.0,0.0
-13.0,-2.0,-6.0,-19.0,-6.0,17.0,-3.0,28.0,7.0,-8.0,0.0
-6.0,-2.0,-16.0,-17.0,6.0,26.0,32.0,42.0,14.0,-15.0,0.0
-2.0,4.0,-24.0,-13.0,7.0,36.0,41.0,32.0,25.0,-13.0,0.0
2.0,-7.0,-56.0,-20.0,-2.0,17.0,19.0,12.0,40.0,1.0,0.0
21.0,-5.0,-56.0,-5.0,-14.0,-6.0,-4.0,-6.0,36.0,28.0,0.0
24.0,8.0,-4.0,28.0,-14.0,-4.0,-13.0,-27.0,28.0,32.0,0.0
10.0,22.0,12.0,44.0,-6.0,3.0,-7.0,-34.0,9.0,0.0,0.0
-5.0,4.0,11.0,37.0,-14.0,-2.0,0.0,-25.0,-4.0,-9.0,0.0
-37.0,-16.0,-14.0,15.0,-45.0,-27.0,-22.0,-27.0,-22.0,-2.0,0.0
-57.0,-39.0,-26.0,15.0,-43.0,-32.0,-32.0,-38.0,-28.0,-22.0,0.0
-76.0,-73.0,-42.0,27.0,-45.0,-43.0,-45.0,-57.0,-43.0,-24.0,0.0
-83.0,-78.0,-51.0,33.0,-49.0,-58.0,-43.0,-71.0,-39.0,-28.0,0.0
-69.0,-74.0,-27.0,30.0,-34.0,-56.0,-41.0,-66.0,-37.0,-31.0,0.0
-11.0,-32.0,28.0,12.0,-16.0,-38.0,-37.0,-64.0,-33.0,-28.0,0.0
52.0,27.0,88.0,-6.0,-10.0,-31.0,-22.0,-51.0,-30.0,-24.0,0.0
53.0,49.0,63.0,-35.0,-6.0,-11.0,4.0,-18.0,-16.0,-5.0,0.0
48.0,47.0,15.0,-57.0,-19.0,-8.0,1.0,-6.0,10.0,30.0,0.0
46.0,40.0,-1.0,-56.0,-24.0,-9.0,4.0,-2.0,31.0,105.0,0.0
52.0,44.0,-34.0,-63.0,-1.0,6.0,27.0,32.0,44.0,98.0,0.0
50.0,33.0,-55.0,-56.0,9.0,19.0,41.0,39.0,43.0,74.0,0.0
35.0,16.0,-60.0,-45.0,12.0,24.0,37.0,24.0,43.0,54.0,0.0
25.0,5.0,-57.0,-47.0,4.0,19.0,35.0,13.0,38.0,33.0,0.0
20.0,-2.0,-65.0,-66.0,-2.0,13.0,23.0,4.0,26.0,8.0,0.0
15.0,0.0,-41.0,-75.0,-13.0,5.0,18.0,-10.0,24.0,7.0,0.0
4.0,1.0,-4.0,-51.0,-21.0,-10.0,1.0,-12.0,2.0,3.0,0.0
1.0,3.0,-18.0,-50.0,-16.0,-14.0,-5.0,1.0,3.0,8.0,0.0
-2.0,1.0,-27.0,-65.0,-15.0,-4.0,8.0,8.0,4.0,7.0,0.0
-13.0,-2.0,-32.0,-68.0,-17.0,0.0,16.0,2.0,3.0,-2.0,0.0
-9.0,-9.0,-31.0,-41.0,-7.0,6.0,20.0,4.0,-2.0,-8.0,0.0
-17.0,-18.0,-31.0,-3.0,10.0,21.0,25.0,6.0,-2.0,-24.0,0.0
-14.0,-11.0,13.0,11.0,16.0,27.0,32.0,7.0,-1.0,-33.0,0.0
18.0,19.0,129.0,5.0,16.0,17.0,42.0,4.0,-2.0,-31.0,0.0
31.0,28.0,181.0,16.0,12.0,22.0,29.0,4.0,-13.0,-37.0,0.0
13.0,-1.0,74.0,38.0,5.0,22.0,27.0,12.0,-46.0,-76.0,0.0
-3.0,-22.0,-14.0,49.0,-6.0,17.0,17.0,2.0,-64.0,-87.0,0.0
-7.0,-34.0,-33.0,17.0,-12.0,2.0,0.0,-6.0,-23.0,-7.0,0.0
-11.0,-50.0,-36.0,-13.0,-10.0,6.0,-8.0,0.0,-1.0,8.0,0.0
-9.0,-43.0,-32.0,-6.0,-10.0,4.0,-3.0,3.0,-19.0,-25.0,0.0
-6.0,-38.0,-27.0,1.0,1.0,6.0,-5.0,-1.0,-38.0,-50.0,0.0
-6.0,-29.0,-27.0,-3.0,11.0,10.0,-3.0,-7.0,-48.0,-42.0,0.0
0.0,-39.0,-24.0,-8.0,14.0,4.0,-14.0,-26.0,-42.0,-3.0,0.0
0.0,-41.0,-21.0,-19.0,8.0,-1.0,-16.0,-28.0,-27.0,52.0,0.0
1.0,-32.0,1.0,-31.0,9.0,7.0,-8.0,-8.0,16.0,80.0,0.0
-9.0,-29.0,-6.0,-51.0,0.0,10.0,1.0,8.0,31.0,43.0,0.0
-13.0,-22.0,-17.0,-81.0,-13.0,-9.0,-3.0,7.0,19.0,49.0,0.0
3.0,5.0,2.0,-70.0,-17.0,-5.0,-8.0,0.0,-15.0,26.0,0.0
22.0,24.0,25.0,-56.0,-11.0,10.0,-1.0,-10.0,-20.0,14.0,0.0
13.0,12.0,29.0,-30.0,1.0,11.0,-1.0,-9.0,14.0,24.0,0.0
5.0,11.0,43.0,-5.0,26.0,20.0,5.0,6.0,24.0,33.0,0.0
22.0,33.0,78.0,22.0,32.0,24.0,-3.0,4.0,-4.0,4.0,0.0
14.0,35.0,88.0,50.0,20.0,12.0,-10.0,-2.0,-18.0,1.0,0.0
4.0,20.0,91.0,59.0,15.0,2.0,-8.0,0.0,-20.0,-1.0,0.0
-1.0,5.0,98.0,55.0,12.0,-1.0,-3.0,0.0,-21.0,-5.0,0.0
6.0,7.0,95.0,49.0,10.0,-3.0,3.0,-2.0,-31.0,-12.0,0.0
5.0,22.0,5.0,19.0,-11.0,-30.0,-22.0,-20.0,-33.0,-23.0,0.0
-3.0,26.0,-78.0,6.0,-16.0,-42.0,-28.0,-26.0,-61.0,-41.0,0.0
-10.0,24.0,-62.0,15.0,-1.0,-15.0,-11.0,3.0,-52.0,-47.0,0.0
-19.0,8.0,-55.0,4.0,1.0,2.0,0.0,15.0,-37.0,-26.0,0.0
-22.0,-14.0,-65.0,-2.0,12.0,14.0,24.0,24.0,-16.0,-9.0,0.0
-30.0,-21.0,-70.0,-11.0,28.0,23.0,36.0,35.0,3.0,-7.0,0.0
-36.0,-22.0,-59.0,-24.0,20.0,14.0,44.0,38.0,-1.0,-8.0,0.0
-15.0,0.0,-48.0,-34.0,2.0,0.0,38.0,30.0,4.0,5.0,0.0
-3.0,3.0,-62.0,-46.0,-8.0,-8.0,22.0,17.0,6.0,25.0,0.0
-12.0,-13.0,-70.0,-41.0,-8.0,-15.0,25.0,10.0,-1.0,38.0,0.0
-28.0,-15.0,-41.0,-13.0,-7.0,-12.0,12.0,0.0,-10.0,18.0,0.0
-41.0,-27.0,-23.0,13.0,5.0,-19.0,13.0,-16.0,-22.0,1.0,0.0
-37.0,-30.0,-17.0,24.0,30.0,-17.0,9.0,-9.0,-27.0,-4.0,0.0
-6.0,-2.0,19.0,42.0,35.0,-12.0,10.0,-6.0,-28.0,-10.0,0.0
-6.0,0.0,42.0,57.0,26.0,-1.0,9.0,8.0,-13.0,-11.0,0.0
-25.0,-19.0,14.0,50.0,27.0,9.0,27.0,24.0,14.0,3.0,0.0
26.0,15.0,5.0,27.0,10.0,16.0,35.0,26.0,4.0,0.0,0.0
75.0,78.0,28.0,14.0,10.0,10.0,28.0,28.0,-20.0,-32.0,0.0
45.0,72.0,32.0,5.0,19.0,27.0,49.0,32.0,-14.0,-54.0,0.0
23.0,39.0,3.0,-5.0,12.0,16.0,48.0,31.0,-25.0,-68.0,0.0
11.0,24.0,-14.0,0.0,10.0,11.0,28.0,16.0,-47.0,-111.0,0.0
6.0,22.0,-5.0,4.0,9.0,-7.0,12.0,4.0,-56.0,-118.0,0.0
-7.0,-11.0,0.0,-7.0,-19.0,-44.0,-11.0,-31.0,-27.0,50.0,0.0
-15.0,-27.0,5.0,-16.0,-44.0,-55.0,-29.0,-32.0,-4.0,205.0,0.0
-11.0,-16.0,28.0,4.0,-30.0,-31.0,-7.0,-24.0,-14.0,124.0,0.0
-1.0,5.0,49.0,31.0,-10.0,5.0,6.0,-10.0,-32.0,21.0,0.0
2.0,3.0,45.0,-15.0,-14.0,14.0,3.0,6.0,8.0,35.0,0.0
8.0,-6.0,8.0,-69.0,-29.0,7.0,-1.0,24.0,63.0,98.0,0.0
28.0,23.0,0.0,-42.0,-18.0,12.0,13.0,21.0,53.0,94.0,0.0
43.0,40.0,-29.0,-2.0,1.0,31.0,11.0,30.0,43.0,95.0,0.0
32.0,34.0,-48.0,3.0,-3.0,19.0,1.0,30.0,52.0,143.0,0.0
21.0,28.0,-39.0,-7.0,-30.0,7.0,-24.0,12.0,31.0,122.0,0.0
8.0,5.0,-41.0,-8.0,-17.0,-3.0,-22.0,-5.0,-9.0,49.0,0.0
-10.0,-8.0,-46.0,6.0,-15.0,-7.0,-15.0,-6.0,-8.0,21.0,0.0
-21.0,-5.0,-17.0,23.0,-14.0,-4.0,0.0,-1.0,-6.0,10.0,0.0
-25.0,-9.0,9.0,11.0,-9.0,0.0,3.0,1.0,12.0,9.0,0.0
-27.0,-22.0,6.0,-13.0,-4.0,14.0,8.0,13.0,23.0,4.0,0.0
-33.0,-40.0,-4.0,-3.0,-9.0,20.0,7.0,2.0,0.0,-5.0,0.0
-45.0,-65.0,-19.0,-8.0,3.0,16.0,0.0,-10.0,-19.0,-18.0,0.0
-44.0,-46.0,-5.0,-19.0,15.0,20.0,13.0,4.0,-2.0,-21.0,0.0
-10.0,-9.0,37.0,-33.0,16.0,26.0,18.0,25.0,25.0,-7.0,0.0
9.0,19.0,52.0,-15.0,6.0,20.0,24.0,26.0,35.0,3.0,0.0
27.0,24.0,29.0,-19.0,-13.0,10.0,8.0,8.0,30.0,10.0,0.0
40.0,24.0,-3.0,-28.0,-19.0,13.0,7.0,-9.0,13.0,17.0,0.0
42.0,42.0,-34.0,-35.0,-22.0,11.0,3.0,-4.0,3.0,19.0,0.0
43.0,62.0,-67.0,-50.0,-18.0,14.0,-10.0,6.0,14.0,21.0,0.0
35.0,46.0,-99.0,-55.0,-2.0,26.0,8.0,4.0,24.0,27.0,0.0
31.0,27.0,-98.0,-36.0,0.0,20.0,2.0,1.0,32.0,23.0,0.0
19.0,21.0,-47.0,-33.0,-2.0,18.0,13.0,9.0,42.0,14.0,0.0
5.0,27.0,62.0,-54.0,-9.0,23.0,22.0,9.0,50.0,-2.0,0.0
0.0,25.0,183.0,-29.0,2.0,39.0,27.0,13.0,44.0,-22.0,0.0
-7.0,9.0,153.0,1.0,8.0,36.0,35.0,13.0,28.0,-43.0,0.0
-20.0,5.0,19.0,11.0,-9.0,12.0,18.0,-1.0,6.0,-60.0,0.0
9.0,19.0,22.0,13.0,-12.0,-15.0,-3.0,-17.0,-20.0,-65.0,0.0
23.0,5.0,48.0,13.0,-6.0,-21.0,0.0,-12.0,-24.0,-65.0,0.0
0.0,-23.0,36.0,-1.0,-4.0,-13.0,-4.0,2.0,1.0,-40.0,0.0
-4.0,-20.0,5.0,-2.0,6.0,-1.0,2.0,10.0,7.0,-45.0,0.0
-11.0,-16.0,-23.0,-6.0,17.0,15.0,1.0,27.0,-16.0,-64.0,0.0
-41.0,-38.0,-72.0,-43.0,6.0,0.0,-14.0,11.0,-12.0,-30.0,0.0
-41.0,-34.0,-94.0,-79.0,-11.0,-18.0,2.0,15.0,16.0,28.0,0.0
-17.0,-5.0,-58.0,-66.0,-5.0,-14.0,2.0,17.0,14.0,14.0,0.0
-1.0,11.0,-20.0,-46.0,2.0,-1.0,9.0,19.0,4.0,-10.0,0.0
2.0,19.0,34.0,-20.0,13.0,4.0,11.0,23.0,-2.0,-31.0,0.0
-2.0,13.0,77.0,0.0,23.0,6.0,0.0,28.0,-6.0,-54.0,0.0
-7.0,1.0,54.0,11.0,28.0,16.0,17.0,31.0,-6.0,-80.0,0.0
-39.0,-34.0,-60.0,-16.0,-14.0,-12.0,-1.0,11.0,-5.0,-60.0,0.0
-58.0,-62.0,-100.0,-36.0,-40.0,-22.0,-11.0,1.0,20.0,-10.0,0.0
-46.0,-44.0,-63.0,-25.0,-17.0,-25.0,-7.0,15.0,16.0,-37.0,0.0
-45.0,-38.0,-49.0,-29.0,-3.0,-15.0,-1.0,18.0,-3.0,-71.0,0.0
-34.0,-22.0,-26.0,-23.0,10.0,-8.0,8.0,11.0,-10.0,-46.0,0.0
-21.0,-13.0,-6.0,-8.0,7.0,0.0,-4.0,15.0,38.0,42.0,0.0
-22.0,-17.0,8.0,14.0,5.0,6.0,10.0,16.0,59.0,52.0,0.0
-38.0,-24.0,9.0,31.0,-3.0,7.0,0.0,7.0,17.0,9.0,0.0
-22.0,-19.0,6.0,33.0,2.0,13.0,8.0,13.0,2.0,-8.0,0.0
-14.0,-18.0,9.0,35.0,4.0,16.0,20.0,23.0,6.0,-10.0,0.0
-8.0,-28.0,7.0,35.0,-17.0,-4.0,-10.0,17.0,21.0,6.0,0.0
-9.0,-14.0,0.0,47.0,-16.0,-17.0,-15.0,8.0,10.0,3.0,0.0
-23.0,-28.0,0.0,65.0,-4.0,-26.0,-28.0,-13.0,-9.0,-2.0,0.0
-22.0,-30.0,7.0,81.0,5.0,-18.0,-29.0,-29.0,-16.0,-15.0,0.0
-25.0,-21.0,34.0,79.0,5.0,-12.0,-30.0,-25.0,-17.0,-15.0,0.0
-25.0,-24.0,58.0,47.0,-9.0,-7.0,-14.0,-16.0,-19.0,-22.0,0.0
-15.0,-7.0,68.0,34.0,-8.0,-9.0,-25.0,-14.0,-32.0,-38.0,0.0
-4.0,6.0,62.0,35.0,0.0,-17.0,-11.0,-7.0,-25.0,-34.0,0.0
-9.0,10.0,50.0,26.0,-2.0,-15.0,-10.0,4.0,-8.0,-15.0,0.0
-7.0,9.0,4.0,11.0,2.0,-4.0,6.0,8.0,15.0,7.0,0.0
-10.0,0.0,-16.0,11.0,5.0,5.0,-3.0,4.0,18.0,5.0,0.0
-15.0,-10.0,0.0,34.0,18.0,-1.0,6.0,-3.0,6.0,2.0,0.0
-24.0,-6.0,-15.0,37.0,24.0,-10.0,0.0,-3.0,4.0,3.0,0.0
-15.0,-6.0,-30.0,26.0,6.0,-3.0,-3.0,-1.0,4.0,8.0,0.0
-5.0,2.0,-38.0,8.0,-9.0,-12.0,-5.0,-11.0,-6.0,0.0,0.0
-6.0,-2.0,-25.0,0.0,-16.0,-22.0,-6.0,-26.0,-8.0,9.0,0.0
-4.0,-9.0,-29.0,-5.0,-15.0,-28.0,4.0,-23.0,-2.0,21.0,0.0
-11.0,-4.0,-27.0,-13.0,-26.0,-23.0,-2.0,-12.0,-16.0,17.0,0.0
-20.0,4.0,-29.0,-12.0,-36.0,-29.0,0.0,-4.0,-12.0,11.0,0.0
22.0,28.0,-2.0,-12.0,-30.0,-27.0,-13.0,-9.0,-13.0,15.0,0.0
69.0,53.0,44.0,12.0,-12.0,-28.0,-14.0,-20.0,-29.0,-10.0,0.0
37.0,37.0,69.0,40.0,3.0,-14.0,-17.0,-12.0,-15.0,-34.0,0.0
9.0,32.0,72.0,48.0,12.0,3.0,-7.0,0.0,4.0,-36.0,0.0
8.0,47.0,69.0,30.0,9.0,12.0,-4.0,0.0,20.0,-23.0,0.0
21.0,50.0,55.0,0.0,3.0,17.0,29.0,13.0,22.0,-14.0,0.0
30.0,40.0,6.0,-31.0,-13.0,18.0,41.0,23.0,22.0,5.0,0.0
7.0,24.0,-19.0,-30.0,-20.0,9.0,19.0,13.0,12.0,4.0,0.0
-16.0,6.0,-9.0,-24.0,-19.0,-9.0,14.0,5.0,1.0,2.0,0.0
-17.0,-19.0,-13.0,-22.0,-29.0,-4.0,0.0,1.0,-5.0,-5.0,0.0
-12.0,-18.0,-4.0,-6.0,-22.0,-4.0,0.0,0.0,-38.0,-31.0,0.0
-21.0,-14.0,4.0,25.0,-9.0,-10.0,2.0,0.0,-25.0,-49.0,0.0
-24.0,-6.0,-1.0,40.0,-8.0,-20.0,-4.0,9.0,19.0,-23.0,0.0
-22.0,0.0,-16.0,33.0,0.0,-11.0,15.0,27.0,35.0,13.0,0.0
-14.0,-7.0,-38.0,3.0,-3.0,-2.0,7.0,23.0,13.0,18.0,0.0
-8.0,-9.0,-36.0,-18.0,-20.0,-6.0,7.0,10.0,12.0,20.0,0.0
3.0,12.0,-20.0,-22.0,-27.0,-4.0,1.0,1.0,8.0,12.0,0.0
11.0,31.0,3.0,-7.0,-11.0,-7.0,-1.0,-7.0,-4.0,6.0,0.0
7.0,25.0,16.0,18.0,-2.0,-14.0,0.0,-7.0,-4.0,0.0,0.0
17.0,28.0,23.0,21.0,5.0,-12.0,-20.0,-22.0,-4.0,4.0,0.0
30.0,37.0,32.0,24.0,8.0,0.0,-13.0,-24.0,9.0,3.0,0.0
39.0,39.0,37.0,25.0,12.0,6.0,-8.0,-8.0,7.0,2.0,0.0
24.0,34.0,63.0,39.0,30.0,9.0,11.0,-3.0,-13.0,-25.0,0.0
18.0,37.0,97.0,63.0,36.0,16.0,8.0,2.0,-11.0,-30.0,0.0
31.0,40.0,110.0,54.0,27.0,26.0,10.0,13.0,12.0,-13.0,0.0
24.0,26.0,85.0,31.0,28.0,12.0,18.0,14.0,13.0,-14.0,0.0
2.0,1.0,-3.0,16.0,8.0,-2.0,-1.0,-14.0,0.0,-37.0,0.0
-19.0,-27.0,-102.0,6.0,-19.0,-9.0,-15.0,-33.0,-5.0,7.0,0.0
-13.0,-17.0,-105.0,-23.0,-26.0,-6.0,-16.0,-20.0,-3.0,53.0,0.0
10.0,22.0,-77.0,-36.0,-6.0,10.0,4.0,-11.0,-6.0,10.0,0.0
26.0,47.0,-55.0,-6.0,3.0,27.0,-2.0,-13.0,-26.0,-25.0,0.0
38.0,31.0,-25.0,9.0,20.0,25.0,-2.0,-10.0,-17.0,-11.0,0.0
34.0,5.0,46.0,1.0,14.0,30.0,-7.0,9.0,14.0,38.0,0.0
22.0,-17.0,134.0,-6.0,12.0,29.0,-15.0,9.0,22.0,21.0,0.0
-5.0,-30.0,108.0,-11.0,-3.0,17.0,-17.0,-2.0,18.0,1.0,0.0
-13.0,-27.0,-6.0,7.0,-25.0,-5.0,-41.0,-25.0,-2.0,-17.0,0.0
-4.0,-8.0,-36.0,12.0,-17.0,-3.0,-37.0,-29.0,-18.0,-31.0,0.0
-6.0,3.0,0.0,4.0,-2.0,11.0,-14.0,-34.0,-14.0,-35.0,0.0
0.0,5.0,38.0,22.0,-1.0,7.0,-10.0,-27.0,-8.0,-29.0,0.0
10.0,13.0,35.0,24.0,4.0,-1.0,-6.0,-25.0,-22.0,-35.0,0.0
4.0,8.0,3.0,10.0,7.0,-5.0,-19.0,-32.0,-30.0,-48.0,0.0
-7.0,-15.0,-23.0,-21.0,-10.0,-9.0,-37.0,-34.0,-5.0,-3.0,0.0
-11.0,-22.0,-20.0,-25.0,-14.0,-2.0,-27.0,-19.0,0.0,-9.0,0.0
-9.0,-10.0,-13.0,-5.0,-6.0,7.0,-17.0,-14.0,-13.0,-79.0,0.0
-17.0,-19.0,-23.0,-4.0,-19.0,-1.0,-25.0,-32.0,-18.0,-9.0,0.0
-17.0,-33.0,-23.0,1.0,-17.0,-5.0,-35.0,-38.0,-4.0,96.0,0.0
1.0,-7.0,13.0,19.0,-12.0,9.0,-32.0,-38.0,-8.0,15.0,0.0
25.0,9.0,48.0,24.0,-4.0,2.0,-15.0,-29.0,-17.0,-33.0,0.0
18.0,17.0,86.0,26.0,11.0,7.0,-10.0,-24.0,-19.0,-68.0,0.0
5.0,15.0,89.0,32.0,26.0,22.0,2.0,-19.0,-20.0,-84.0,0.0
-6.0,-11.0,33.0,14.0,12.0,19.0,0.0,-21.0,30.0,-15.0,0.0
0.0,-22.0,-14.0,-12.0,7.0,20.0,7.0,-16.0,69.0,47.0,0.0
10.0,-16.0,-56.0,-43.0,11.0,39.0,21.0,-13.0,60.0,26.0,0.0
22.0,-30.0,-104.0,-60.0,12.0,45.0,33.0,9.0,36.0,6.0,0.0
23.0,-26.0,-105.0,-72.0,2.0,48.0,36.0,15.0,26.0,4.0,0.0
31.0,-20.0,-77.0,-85.0,-9.0,30.0,12.0,-3.0,15.0,7.0,0.0
48.0,-20.0,-46.0,-75.0,-10.0,11.0,10.0,-7.0,12.0,12.0,0.0
52.0,-20.0,-27.0,-63.0,-4.0,9.0,5.0,-12.0,20.0,13.0,0.0
40.0,-3.0,-23.0,-54.0,-9.0,16.0,4.0,-3.0,12.0,14.0,0.0
31.0,0.0,-19.0,-42.0,-2.0,16.0,9.0,9.0,14.0,8.0,0.0
25.0,2.0,-17.0,-33.0,-4.0,17.0,12.0,7.0,9.0,-8.0,0.0
10.0,13.0,-15.0,-28.0,-2.0,1.0,11.0,-2.0,-11.0,-14.0,0.0
0.0,14.0,-3.0,-11.0,-10.0,-8.0,4.0,-16.0,-26.0,-17.0,0.0
-3.0,5.0,12.0,-4.0,-5.0,-5.0,1.0,-17.0,-12.0,-18.0,0.0
-5.0,3.0,12.0,2.0,-1.0,7.0,-8.0,-17.0,-8.0,-18.0,0.0
-10.0,2.0,21.0,17.0,-9.0,0.0,-9.0,-13.0,-20.0,-23.0,0.0
-3.0,4.0,27.0,28.0,2.0,2.0,-4.0,-9.0,-13.0,-20.0,0.0
3.0,7.0,35.0,25.0,8.0,16.0,4.0,3.0,0.0,-10.0,0.0
0.0,14.0,37.0,17.0,0.0,10.0,1.0,20.0,-9.0,-5.0,0.0
5.0,24.0,60.0,10.0,-2.0,-4.0,5.0,17.0,-12.0,-25.0,0.0
0.0,24.0,72.0,11.0,0.0,-11.0,0.0,4.0,-8.0,-38.0,0.0
7.0,31.0,72.0,8.0,-15.0,-21.0,1.0,-14.0,-15.0,-33.0,0.0
3.0,28.0,80.0,8.0,-22.0,-29.0,-2.0,-19.0,-19.0,-17.0,0.0
-16.0,14.0,82.0,6.0,-22.0,-25.0,10.0,-7.0,-1.0,-3.0,0.0
-24.0,0.0,73.0,11.0,-23.0,-20.0,9.0,-5.0,-1.0,-9.0,0.0
-20.0,-7.0,52.0,8.0,-25.0,-9.0,28.0,5.0,0.0,-7.0,0.0
-19.0,-16.0,9.0,-17.0,-14.0,7.0,35.0,23.0,3.0,0.0,0.0
19.0,-8.0,-53.0,-48.0,3.0,22.0,39.0,34.0,3.0,1.0,0.0
68.0,8.0,-81.0,-49.0,5.0,24.0,53.0,31.0,13.0,17.0,0.0
42.0,-10.0,-68.0,-1.0,2.0,13.0,66.0,29.0,33.0,9.0,0.0
11.0,-23.0,-38.0,45.0,10.0,20.0,57.0,20.0,13.0,-20.0,0.0
1.0,-23.0,-13.0,77.0,22.0,24.0,36.0,6.0,-34.0,-35.0,0.0
14.0,4.0,8.0,75.0,33.0,29.0,35.0,-4.0,-41.0,-59.0,0.0
2.0,-2.0,-11.0,41.0,7.0,7.0,23.0,-5.0,-10.0,-72.0,0.0
-13.0,-8.0,-3.0,20.0,-16.0,-16.0,-4.0,-15.0,3.0,-45.0,0.0
-14.0,0.0,25.0,35.0,-3.0,-4.0,-3.0,-8.0,4.0,1.0,0.0
-10.0,4.0,27.0,40.0,1.0,10.0,2.0,-1.0,-5.0,-44.0,0.0
4.0,6.0,40.0,38.0,0.0,9.0,-8.0,-14.0,-17.0,-45.0,0.0
11.0,-4.0,19.0,11.0,-5.0,0.0,-18.0,-27.0,14.0,94.0,0.0
-5.0,-17.0,-36.0,-7.0,-17.0,-8.0,-36.0,-39.0,30.0,130.0,0.0
-11.0,-24.0,-70.0,-30.0,-9.0,-4.0,-10.0,-14.0,28.0,99.0,0.0
-3.0,-10.0,-51.0,-44.0,-5.0,2.0,4.0,6.0,28.0,73.0,0.0
3.0,23.0,-8.0,-39.0,6.0,11.0,20.0,0.0,27.0,54.0,0.0
6.0,50.0,6.0,-25.0,21.0,20.0,38.0,-2.0,27.0,55.0,0.0
10.0,46.0,20.0,-7.0,23.0,18.0,23.0,-11.0,31.0,44.0,0.0
9.0,22.0,2.0,-1.0,21.0,11.0,15.0,-12.0,37.0,34.0,0.0
-3.0,15.0,-23.0,-16.0,19.0,18.0,10.0,-3.0,38.0,39.0,0.0
1.0,12.0,-32.0,-36.0,9.0,21.0,0.0,6.0,41.0,38.0,0.0
15.0,11.0,-35.0,-38.0,4.0,18.0,-7.0,9.0,54.0,46.0,0.0
12.0,6.0,-28.0,-28.0,19.0,19.0,-1.0,0.0,50.0,35.0,0.0
1.0,-3.0,-5.0,-21.0,14.0,13.0,-21.0,-7.0,38.0,20.0,0.0
-15.0,-8.0,-26.0,5.0,4.0,9.0,-34.0,-11.0,14.0,3.0,0.0
-35.0,-10.0,-50.0,43.0,2.0,-4.0,-36.0,-27.0,0.0,-20.0,0.0
-36.0,-1.0,-12.0,56.0,8.0,-4.0,-23.0,-28.0,-2.0,-29.0,0.0
-25.0,-5.0,13.0,51.0,15.0,-7.0,-15.0,-20.0,1.0,-27.0,0.0
-18.0,-2.0,9.0,38.0,7.0,1.0,-7.0,-19.0,0.0,-18.0,0.0
-24.0,-16.0,-2.0,24.0,8.0,2.0,-14.0,-20.0,-8.0,-23.0,0.0
-27.0,-41.0,-24.0,9.0,5.0,9.0,-8.0,-14.0,-7.0,-22.0,0.0
-15.0,-40.0,-13.0,2.0,3.0,-9.0,-14.0,-11.0,-7.0,-10.0,0.0
-2.0,-24.0,12.0,-8.0,11.0,-11.0,0.0,-1.0,7.0,-5.0,0.0
-2.0,-8.0,0.0,-25.0,22.0,-13.0,9.0,12.0,16.0,-8.0,0.0
-4.0,-4.0,-17.0,-8.0,26.0,-11.0,11.0,30.0,9.0,-21.0,0.0
1.0,1.0,-24.0,-7.0,23.0,-5.0,18.0,13.0,-8.0,-40.0,0.0
13.0,17.0,-37.0,-16.0,20.0,-2.0,-12.0,-1.0,-23.0,-43.0,0.0
10.0,16.0,-42.0,-13.0,6.0,-12.0,-29.0,-9.0,-19.0,-43.0,0.0
-10.0,0.0,-18.0,-2.0,-4.0,-5.0,-37.0,-17.0,-42.0,-67.0,0.0
-22.0,-19.0,15.0,7.0,0.0,-2.0,-29.0,-11.0,-36.0,-41.0,0.0
-19.0,-19.0,39.0,21.0,-2.0,-7.0,-20.0,-5.0,40.0,67.0,0.0
-6.0,0.0,66.0,52.0,0.0,13.0,13.0,14.0,40.0,52.0,0.0
-1.0,0.0,86.0,55.0,12.0,21.0,3.0,9.0,-6.0,2.0,0.0
-4.0,-14.0,86.0,38.0,10.0,26.0,-4.0,5.0,3.0,18.0,0.0
-9.0,-13.0,51.0,10.0,9.0,31.0,3.0,20.0,23.0,16.0,0.0
-6.0,4.0,38.0,9.0,10.0,20.0,1.0,16.0,3.0,0.0,0.0
-7.0,8.0,28.0,-3.0,0.0,10.0,5.0,3.0,-4.0,3.0,0.0
-11.0,-11.0,-2.0,-22.0,-4.0,11.0,-2.0,9.0,-4.0,3.0,0.0
-25.0,-28.0,-31.0,-31.0,0.0,27.0,25.0,-2.0,0.0,-19.0,0.0
-26.0,-32.0,-59.0,-57.0,5.0,32.0,12.0,4.0,-7.0,-42.0,0.0
-21.0,-12.0,-76.0,-60.0,13.0,16.0,7.0,8.0,-11.0,-57.0,0.0
-10.0,6.0,-67.0,-45.0,21.0,12.0,22.0,20.0,-21.0,-63.0,0.0
3.0,8.0,-65.0,-39.0,17.0,13.0,17.0,16.0,-33.0,-52.0,0.0
7.0,3.0,-76.0,-40.0,-10.0,5.0,3.0,-6.0,5.0,46.0,0.0
-1.0,-6.0,-48.0,-46.0,-28.0,-14.0,-7.0,0.0,48.0,121.0,0.0
5.0,12.0,47.0,-42.0,-17.0,-13.0,0.0,4.0,45.0,101.0,0.0
3.0,8.0,122.0,-9.0,-2.0,-1.0,13.0,-5.0,12.0,55.0,0.0
-37.0,-27.0,21.0,15.0,-8.0,-2.0,-8.0,-12.0,-7.0,12.0,0.0
-48.0,-38.0,-89.0,9.0,-26.0,-24.0,-39.0,-28.0,-21.0,-12.0,0.0
-9.0,-15.0,-57.0,17.0,-37.0,-30.0,-33.0,-36.0,-12.0,-7.0,0.0
23.0,0.0,-40.0,19.0,-21.0,-12.0,-18.0,-27.0,0.0,14.0,0.0
25.0,-1.0,-33.0,20.0,-8.0,-9.0,-22.0,-23.0,-6.0,21.0,0.0
24.0,10.0,-12.0,27.0,0.0,-9.0,-21.0,-26.0,-16.0,12.0,0.0
25.0,13.0,1.0,19.0,7.0,-2.0,-11.0,-27.0,-8.0,17.0,0.0
10.0,-1.0,6.0,0.0,11.0,-11.0,5.0,-29.0,0.0,9.0,0.0
11.0,-9.0,5.0,-25.0,3.0,-9.0,3.0,-19.0,-6.0,0.0,0.0
14.0,1.0,12.0,-29.0,12.0,-4.0,14.0,-5.0,-22.0,-4.0,0.0
-2.0,5.0,-3.0,-24.0,-3.0,-2.0,0.0,-2.0,-2.0,20.0,0.0
-5.0,9.0,-3.0,-28.0,-7.0,-3.0,17.0,6.0,21.0,41.0,0.0
-9.0,13.0,-3.0,-14.0,4.0,7.0,27.0,23.0,22.0,11.0,0.0
-18.0,10.0,3.0,-13.0,10.0,11.0,23.0,24.0,12.0,-12.0,0.0
-21.0,7.0,3.0,-5.0,27.0,26.0,33.0,14.0,16.0,-8.0,0.0
-23.0,-28.0,-14.0,-13.0,18.0,5.0,30.0,5.0,17.0,39.0,0.0
-35.0,-53.0,-42.0,5.0,17.0,1.0,13.0,7.0,-1.0,29.0,0.0
10.0,-23.0,-33.0,25.0,22.0,11.0,16.0,-2.0,-25.0,-12.0,0.0
37.0,9.0,18.0,35.0,24.0,12.0,0.0,-5.0,-31.0,-19.0,0.0
0.0,-5.0,47.0,43.0,22.0,12.0,-7.0,1.0,-19.0,0.0,0.0
-4.0,-24.0,45.0,26.0,29.0,2.0,1.0,-2.0,-8.0,15.0,0.0
4.0,-6.0,52.0,24.0,21.0,-4.0,0.0,10.0,-8.0,18.0,0.0
22.0,35.0,48.0,11.0,0.0,-7.0,1.0,5.0,-5.0,24.0,0.0
24.0,42.0,21.0,3.0,-4.0,0.0,-5.0,2.0,-10.0,13.0,0.0
4.0,19.0,-37.0,-22.0,15.0,11.0,18.0,5.0,-1.0,3.0,0.0
0.0,-9.0,-79.0,-31.0,18.0,16.0,37.0,7.0,5.0,17.0,0.0
3.0,-33.0,-77.0,-36.0,22.0,10.0,26.0,20.0,11.0,25.0,0.0
0.0,-38.0,-62.0,-31.0,25.0,9.0,21.0,25.0,10.0,6.0,0.0
-10.0,-36.0,-34.0,-15.0,29.0,4.0,28.0,24.0,-1.0,-19.0,0.0
-7.0,-16.0,-17.0,3.0,44.0,3.0,23.0,22.0,-27.0,-54.0,0.0
-5.0,-3.0,-6.0,9.0,47.0,10.0,0.0,16.0,-53.0,-85.0,0.0
-1.0,-8.0,-9.0,1.0,32.0,-6.0,-2.0,7.0,-15.0,0.0,0.0
11.0,-4.0,-4.0,-1.0,32.0,-10.0,0.0,4.0,7.0,112.0,0.0
14.0,11.0,6.0,3.0,29.0,-11.0,-16.0,-10.0,3.0,50.0,0.0
-3.0,-1.0,-23.0,-7.0,11.0,-23.0,-29.0,-17.0,15.0,28.0,0.0
-16.0,-13.0,-10.0,-1.0,6.0,-27.0,-22.0,-22.0,14.0,28.0,0.0
-5.0,-12.0,21.0,26.0,21.0,-13.0,-5.0,-28.0,1.0,12.0,0.0
-1.0,-5.0,49.0,26.0,18.0,-13.0,-16.0,-26.0,-10.0,0.0,0.0
-3.0,-3.0,64.0,25.0,2.0,-20.0,-22.0,-22.0,-11.0,-13.0,0.0
1.0,-2.0,74.0,33.0,-5.0,-17.0,-24.0,-16.0,-20.0,-16.0,0.0
9.0,-9.0,78.0,21.0,-5.0,-10.0,-3.0,-4.0,-27.0,-26.0,0.0
12.0,6.0,72.0,-4.0,-4.0,-2.0,4.0,12.0,-9.0,-19.0,0.0
18.0,4.0,29.0,-21.0,-11.0,-14.0,1.0,12.0,15.0,48.0,0.0
10.0,-5.0,-11.0,-25.0,-19.0,-31.0,-18.0,1.0,23.0,70.0,0.0
-6.0,-5.0,-6.0,-15.0,-31.0,-41.0,-27.0,-2.0,16.0,15.0,0.0
-8.0,4.0,37.0,14.0,-17.0,-34.0,-24.0,-5.0,10.0,-4.0,0.0
-5.0,4.0,77.0,35.0,7.0,-31.0,-11.0,1.0,10.0,0.0,0.0
-13.0,-5.0,61.0,46.0,24.0,-22.0,-1.0,4.0,5.0,-7.0,0.0
-19.0,-6.0,23.0,28.0,20.0,-16.0,1.0,3.0,9.0,-15.0,0.0
5.0,-6.0,-40.0,-16.0,4.0,-24.0,12.0,5.0,22.0,-7.0,0.0
23.0,8.0,-56.0,-34.0,-6.0,-16.0,1.0,16.0,31.0,18.0,0.0
31.0,9.0,-61.0,-16.0,-12.0,0.0,1.0,20.0,26.0,29.0,0.0
18.0,-2.0,-86.0,-18.0,-13.0,0.0,-1.0,20.0,15.0,21.0,0.0
11.0,-14.0,-88.0,-25.0,-18.0,-7.0,-10.0,13.0,17.0,5.0,0.0
3.0,-25.0,-63.0,-38.0,-14.0,-24.0,1.0,15.0,10.0,4.0,0.0
0.0,-20.0,-46.0,-45.0,-15.0,-31.0,-7.0,13.0,0.0,3.0,0.0
-3.0,-17.0,-41.0,-35.0,-18.0,-33.0,7.0,6.0,10.0,-11.0,0.0
-7.0,-4.0,-39.0,-12.0,-16.0,-24.0,-6.0,-11.0,8.0,-19.0,0.0
2.0,10.0,-23.0,3.0,-9.0,-18.0,-3.0,-18.0,2.0,-23.0,0.0
0.0,3.0,-1.0,7.0,-5.0,-15.0,-2.0,-9.0,7.0,-31.0,0.0
0.0,-14.0,10.0,8.0,-7.0,-6.0,-3.0,0.0,-1.0,-26.0,0.0
-15.0,-15.0,-4.0,10.0,-5.0,-2.0,6.0,7.0,-5.0,-19.0,0.0
-19.0,-18.0,-17.0,12.0,0.0,8.0,4.0,5.0,-6.0,-18.0,0.0
-18.0,-17.0,3.0,13.0,-5.0,23.0,18.0,8.0,-6.0,-23.0,0.0
-11.0,-4.0,11.0,9.0,0.0,37.0,15.0,8.0,-8.0,-33.0,0.0
-2.0,-5.0,-13.0,-10.0,16.0,36.0,3.0,12.0,-10.0,-42.0,0.0
1.0,-4.0,-21.0,-4.0,21.0,27.0,-8.0,-1.0,-14.0,-52.0,0.0
-3.0,4.0,5.0,12.0,21.0,17.0,-19.0,-20.0,-31.0,-47.0,0.0
-14.0,-3.0,-6.0,28.0,15.0,8.0,-20.0,-29.0,-16.0,-27.0,0.0
-20.0,-1.0,-4.0,48.0,11.0,9.0,-26.0,-31.0,-22.0,-37.0,0.0
-4.0,13.0,8.0,44.0,5.0,11.0,-22.0,-34.0,-13.0,-19.0,0.0
0.0,16.0,-11.0,41.0,1.0,19.0,-7.0,-31.0,18.0,-16.0,0.0
-21.0,6.0,-34.0,18.0,8.0,26.0,-5.0,-15.0,16.0,-34.0,0.0
-7.0,15.0,-22.0,-32.0,-1.0,10.0,-6.0,-15.0,-14.0,-55.0,0.0
22.0,38.0,4.0,-57.0,0.0,24.0,2.0,-11.0,-32.0,-63.0,0.0
2.0,25.0,16.0,-53.0,0.0,28.0,-16.0,2.0,-13.0,-21.0,0.0
-17.0,3.0,9.0,-40.0,-12.0,10.0,-16.0,2.0,42.0,69.0,0.0
-2.0,1.0,21.0,-27.0,0.0,15.0,-8.0,9.0,37.0,61.0,0.0
10.0,26.0,18.0,-36.0,14.0,30.0,-5.0,17.0,5.0,42.0,0.0
23.0,41.0,-16.0,-52.0,5.0,29.0,-11.0,25.0,6.0,41.0,0.0
25.0,36.0,-29.0,-35.0,-2.0,15.0,-14.0,23.0,12.0,33.0,0.0
15.0,26.0,-8.0,-1.0,-3.0,11.0,-22.0,17.0,9.0,26.0,0.0
6.0,27.0,2.0,1.0,-5.0,6.0,-24.0,19.0,12.0,21.0,0.0
-3.0,27.0,-4.0,12.0,5.0,15.0,-27.0,23.0,15.0,-6.0,0.0
-6.0,4.0,-26.0,20.0,15.0,18.0,-17.0,18.0,5.0,-41.0,0.0
1.0,4.0,-29.0,17.0,23.0,15.0,7.0,10.0,4.0,-53.0,0.0
3.0,5.0,-29.0,-4.0,14.0,21.0,10.0,18.0,6.0,-62.0,0.0
-5.0,8.0,-18.0,-10.0,17.0,20.0,26.0,17.0,5.0,-108.0,0.0
-26.0,-10.0,-13.0,-3.0,14.0,25.0,41.0,6.0,-6.0,-99.0,0.0
-35.0,-35.0,-39.0,-22.0,5.0,10.0,14.0,-2.0,-15.0,22.0,0.0
-40.0,-26.0,-12.0,-6.0,21.0,14.0,21.0,14.0,-23.0,-26.0,0.0
-61.0,-34.0,-4.0,8.0,0.0,0.0,8.0,16.0,-4.0,12.0,0.0
-30.0,-21.0,-3.0,28.0,-20.0,-16.0,-6.0,9.0,38.0,127.0,0.0
18.0,25.0,28.0,114.0,-1.0,-5.0,-1.0,1.0,6.0,52.0,0.0
1.0,38.0,48.0,219.0,17.0,2.0,-1.0,-23.0,-13.0,-6.0,0.0
-18.0,23.0,46.0,244.0,27.0,14.0,8.0,-19.0,-14.0,-8.0,0.0
-12.0,1.0,36.0,188.0,29.0,7.0,-11.0,-19.0,-30.0,-7.0,0.0
7.0,11.0,46.0,118.0,26.0,19.0,-19.0,-17.0,-31.0,5.0,0.0
14.0,20.0,53.0,38.0,25.0,26.0,-33.0,-4.0,-28.0,2.0,0.0
22.0,23.0,30.0,-56.0,22.0,27.0,-22.0,5.0,-8.0,9.0,0.0
34.0,25.0,0.0,-106.0,11.0,27.0,-6.0,19.0,3.0,15.0,0.0
49.0,35.0,-23.0,-184.0,-10.0,34.0,16.0,46.0,12.0,25.0,0.0
39.0,39.0,-9.0,-188.0,-43.0,22.0,9.0,46.0,-4.0,17.0,0.0
10.0,48.0,34.0,-46.0,-45.0,-1.0,-2.0,6.0,-22.0,-24.0,0.0
13.0,31.0,20.0,25.0,-20.0,-3.0,-13.0,-6.0,-27.0,-36.0,0.0
11.0,-6.0,-28.0,0.0,-2.0,-5.0,-9.0,-1.0,-23.0,-12.0,0.0
4.0,-9.0,-42.0,-21.0,3.0,0.0,-3.0,3.0,-10.0,26.0,0.0
5.0,0.0,-32.0,-13.0,11.0,6.0,19.0,8.0,11.0,40.0,0.0
-3.0,-7.0,-18.0,18.0,25.0,17.0,8.0,18.0,10.0,35.0,0.0
-6.0,4.0,-12.0,12.0,30.0,9.0,20.0,29.0,17.0,30.0,0.0
0.0,44.0,-18.0,-35.0,15.0,4.0,24.0,34.0,19.0,27.0,0.0
17.0,52.0,-3.0,-61.0,0.0,0.0,24.0,35.0,21.0,17.0,0.0
9.0,29.0,16.0,-47.0,8.0,7.0,38.0,51.0,37.0,4.0,0.0
-19.0,-26.0,1.0,-28.0,17.0,23.0,34.0,62.0,30.0,-7.0,0.0
-13.0,-56.0,-18.0,-40.0,19.0,23.0,23.0,58.0,8.0,-15.0,0.0
3.0,-26.0,-88.0,-75.0,-3.0,-1.0,20.0,48.0,0.0,-25.0,0.0
9.0,10.0,-111.0,-88.0,-35.0,-19.0,5.0,28.0,-9.0,-29.0,0.0
-3.0,2.0,-89.0,-65.0,-42.0,-19.0,0.0,19.0,2.0,4.0,0.0
-12.0,3.0,-76.0,-36.0,-27.0,-11.0,-6.0,26.0,16.0,24.0,0.0
3.0,26.0,-45.0,-6.0,-17.0,-12.0,-15.0,20.0,-10.0,-9.0,0.0
9.0,25.0,-27.0,15.0,-9.0,-2.0,-2.0,6.0,-13.0,-14.0,0.0
-4.0,13.0,-14.0,29.0,-8.0,-4.0,-5.0,3.0,-9.0,-15.0,0.0
-5.0,7.0,0.0,35.0,-17.0,-14.0,-2.0,-7.0,-13.0,-21.0,0.0
10.0,18.0,36.0,67.0,-17.0,-16.0,-3.0,0.0,-16.0,-11.0,0.0
8.0,27.0,62.0,74.0,-22.0,-14.0,1.0,3.0,-20.0,0.0,0.0
3.0,28.0,60.0,60.0,-36.0,-26.0,1.0,-1.0,-18.0,-11.0,0.0
0.0,23.0,52.0,53.0,-46.0,-15.0,4.0,4.0,-19.0,-28.0,0.0
-4.0,8.0,53.0,65.0,-37.0,-14.0,0.0,-13.0,-42.0,-44.0,0.0
-11.0,-3.0,76.0,95.0,-30.0,-29.0,-23.0,-28.0,-47.0,-48.0,0.0
-12.0,8.0,75.0,86.0,-33.0,-25.0,-19.0,-11.0,-4.0,-32.0,0.0
-1.0,26.0,71.0,27.0,-38.0,-16.0,-5.0,13.0,19.0,-50.0,0.0
3.0,9.0,1.0,-28.0,-26.0,-13.0,23.0,35.0,18.0,-52.0,0.0
7.0,-7.0,-85.0,-55.0,-1.0,11.0,39.0,57.0,21.0,-48.0,0.0
-5.0,-21.0,-164.0,-75.0,16.0,33.0,39.0,63.0,20.0,-71.0,0.0
6.0,-15.0,-153.0,-73.0,5.0,33.0,38.0,49.0,35.0,-34.0,0.0
32.0,4.0,-126.0,-64.0,-10.0,29.0,21.0,36.0,73.0,145.0,0.0
20.0,21.0,-77.0,-33.0,-4.0,14.0,-7.0,22.0,53.0,135.0,0.0
-1.0,18.0,-29.0,-3.0,0.0,-1.0,-13.0,11.0,19.0,38.0,0.0
-6.0,12.0,-9.0,11.0,0.0,0.0,-15.0,-5.0,2.0,13.0,0.0
0.0,4.0,12.0,14.0,-2.0,-2.0,-3.0,-4.0,0.0,14.0,0.0
2.0,0.0,17.0,14.0,-4.0,-9.0,-5.0,-1.0,-7.0,15.0,0.0
-10.0,10.0,33.0,21.0,-7.0,-8.0,2.0,2.0,-4.0,2.0,0.0
-21.0,3.0,27.0,23.0,-10.0,5.0,4.0,6.0,-1.0,-12.0,0.0
-41.0,-28.0,-25.0,15.0,-22.0,-15.0,-15.0,0.0,0.0,-28.0,0.0
-47.0,-48.0,-44.0,32.0,-29.0,-32.0,-29.0,-15.0,-5.0,-47.0,0.0
-27.0,-31.0,-12.0,51.0,-26.0,-23.0,-27.0,-21.0,-15.0,-51.0,0.0
-11.0,-4.0,44.0,49.0,-17.0,-8.0,-16.0,-10.0,-9.0,-45.0,0.0
11.0,8.0,86.0,39.0,3.0,-9.0,-24.0,1.0,-1.0,-45.0,0.0
8.0,2.0,89.0,35.0,-6.0,-18.0,-25.0,1.0,6.0,12.0,0.0
4.0,-7.0,73.0,23.0,-18.0,-22.0,-26.0,-3.0,4.0,54.0,0.0
20.0,16.0,60.0,21.0,0.0,-10.0,-16.0,10.0,13.0,23.0,0.0
37.0,31.0,3.0,10.0,17.0,13.0,16.0,30.0,28.0,27.0,0.0
24.0,14.0,-43.0,11.0,23.0,20.0,25.0,28.0,28.0,14.0,0.0
-2.0,0.0,-56.0,3.0,29.0,8.0,3.0,21.0,3.0,-1.0,0.0
-18.0,-9.0,-55.0,-22.0,12.0,4.0,-3.0,6.0,-14.0,-23.0,0.0
-23.0,-14.0,-64.0,-26.0,-8.0,0.0,-11.0,-2.0,0.0,-22.0,0.0
-20.0,-21.0,-70.0,-23.0,-11.0,-5.0,-11.0,-6.0,5.0,-3.0,0.0
-37.0,-34.0,-94.0,-40.0,-19.0,-11.0,-10.0,-10.0,-10.0,-3.0,0.0
-39.0,-32.0,-90.0,-46.0,-35.0,-14.0,-8.0,-23.0,-13.0,-7.0,0.0
-36.0,-15.0,-18.0,-21.0,-27.0,-23.0,-16.0,-26.0,-8.0,-2.0,0.0
-43.0,-8.0,63.0,-1.0,-14.0,-27.0,-13.0,-9.0,-2.0,-8.0,0.0
0.0,33.0,178.0,11.0,-6.0,-25.0,-21.0,-9.0,-3.0,-4.0,0.0
42.0,59.0,259.0,41.0,3.0,-25.0,-21.0,-22.0,-12.0,-15.0,0.0
3.0,22.0,166.0,84.0,21.0,-5.0,-14.0,-20.0,-22.0,-32.0,0.0
-24.0,-23.0,-14.0,87.0,12.0,-4.0,-18.0,-25.0,-26.0,-34.0,0.0
-3.0,-15.0,-87.0,44.0,1.0,2.0,-8.0,-4.0,-2.0,-20.0,0.0
12.0,-2.0,-85.0,17.0,-3.0,5.0,-1.0,-1.0,15.0,1.0,0.0
16.0,0.0,-30.0,26.0,-1.0,-4.0,-3.0,-3.0,11.0,-2.0,0.0
19.0,13.0,11.0,38.0,8.0,9.0,9.0,9.0,6.0,-18.0,0.0
15.0,23.0,9.0,26.0,29.0,22.0,15.0,19.0,-13.0,-38.0,0.0
4.0,20.0,-1.0,-2.0,23.0,28.0,17.0,14.0,-26.0,-37.0,0.0
-7.0,-8.0,-27.0,-48.0,-8.0,-1.0,1.0,21.0,20.0,47.0,0.0
-12.0,-13.0,-28.0,-50.0,-21.0,-23.0,4.0,20.0,69.0,95.0,0.0
0.0,6.0,0.0,-18.0,-5.0,-19.0,4.0,9.0,45.0,55.0,0.0
14.0,10.0,17.0,-4.0,9.0,-22.0,4.0,-5.0,22.0,14.0,0.0
13.0,1.0,38.0,-7.0,12.0,-15.0,2.0,-8.0,24.0,-5.0,0.0
6.0,-16.0,55.0,-16.0,3.0,-12.0,18.0,1.0,15.0,-7.0,0.0
0.0,-36.0,53.0,-19.0,-12.0,0.0,28.0,1.0,11.0,-9.0,0.0
-15.0,-47.0,9.0,-5.0,-22.0,-4.0,10.0,-7.0,4.0,-19.0,0.0
-26.0,-61.0,-33.0,27.0,-37.0,-19.0,3.0,-17.0,6.0,-22.0,0.0
-8.0,-36.0,-18.0,24.0,-45.0,-23.0,-16.0,-16.0,10.0,-13.0,0.0
12.0,-5.0,2.0,7.0,-32.0,-26.0,-23.0,-16.0,-7.0,-9.0,0.0
5.0,-3.0,22.0,13.0,-33.0,-36.0,-39.0,-19.0,-32.0,-19.0,0.0
-6.0,-3.0,48.0,19.0,-35.0,-42.0,-49.0,-25.0,-41.0,-23.0,0.0
-19.0,-6.0,66.0,25.0,-27.0,-37.0,-37.0,-27.0,-44.0,-14.0,0.0
-27.0,-21.0,65.0,23.0,-12.0,-29.0,-29.0,-10.0,-32.0,-19.0,0.0
-22.0,-33.0,44.0,0.0,-10.0,-25.0,-20.0,7.0,-15.0,-14.0,0.0
7.0,-25.0,-6.0,-34.0,-13.0,-26.0,-12.0,8.0,-21.0,8.0,0.0
8.0,-19.0,-80.0,-80.0,-23.0,-25.0,2.0,23.0,-40.0,-1.0,0.0
14.0,-12.0,-64.0,-81.0,-15.0,-11.0,20.0,29.0,-52.0,-38.0,0.0
33.0,4.0,-15.0,-49.0,3.0,-2.0,9.0,20.0,-43.0,-47.0,0.0
29.0,4.0,2.0,-32.0,21.0,13.0,20.0,15.0,-4.0,-46.0,0.0
29.0,6.0,19.0,-18.0,30.0,20.0,31.0,1.0,-9.0,-74.0,0.0
19.0,-7.0,21.0,-20.0,-1.0,-14.0,-17.0,-17.0,0.0,-23.0,0.0
15.0,-23.0,3.0,-50.0,-38.0,-42.0,-40.0,-26.0,39.0,126.0,0.0
21.0,-23.0,-5.0,-55.0,-25.0,-31.0,-20.0,-26.0,47.0,133.0,0.0
10.0,-17.0,3.0,-38.0,-2.0,-16.0,1.0,-11.0,20.0,68.0,0.0
7.0,-10.0,2.0,-23.0,-6.0,-6.0,8.0,0.0,3.0,35.0,0.0
0.0,5.0,14.0,-13.0,-8.0,-2.0,-4.0,-4.0,-3.0,20.0,0.0
0.0,21.0,27.0,-5.0,10.0,-13.0,-1.0,-13.0,-10.0,17.0,0.0
23.0,68.0,41.0,-10.0,8.0,-22.0,-14.0,-40.0,-30.0,13.0,0.0
33.0,73.0,50.0,-1.0,0.0,-19.0,-18.0,-38.0,-32.0,1.0,0.0
13.0,53.0,44.0,5.0,4.0,-2.0,-16.0,-20.0,-27.0,-4.0,0.0
-2.0,29.0,27.0,-5.0,5.0,7.0,-13.0,-17.0,-19.0,-6.0,0.0
-7.0,6.0,18.0,0.0,22.0,19.0,-9.0,-12.0,-13.0,-1.0,0.0
-19.0,-13.0,11.0,7.0,21.0,24.0,4.0,-14.0,-4.0,13.0,0.0
-27.0,-22.0,-3.0,9.0,12.0,25.0,9.0,-20.0,-5.0,7.0,0.0
-22.0,-15.0,-9.0,4.0,-3.0,7.0,-3.0,-14.0,-5.0,-2.0,0.0
-14.0,-12.0,2.0,9.0,-6.0,0.0,-1.0,-18.0,-13.0,6.0,0.0
-18.0,-26.0,0.0,32.0,-2.0,-1.0,-9.0,-28.0,-37.0,-9.0,0.0
-13.0,-42.0,-8.0,36.0,-6.0,-3.0,0.0,-26.0,-20.0,-7.0,0.0
-2.0,-44.0,14.0,18.0,-6.0,-7.0,3.0,-15.0,12.0,7.0,0.0
13.0,-16.0,31.0,18.0,-8.0,-10.0,0.0,-9.0,18.0,2.0,0.0
11.0,9.0,27.0,33.0,-3.0,-2.0,-14.0,-7.0,5.0,1.0,0.0
3.0,-1.0,24.0,25.0,-6.0,-3.0,0.0,-10.0,3.0,18.0,0.0
-5.0,-20.0,13.0,15.0,-16.0,-4.0,-2.0,-9.0,10.0,27.0,0.0
-14.0,-21.0,-37.0,-2.0,-7.0,2.0,5.0,-1.0,17.0,37.0,0.0
-6.0,-13.0,-54.0,-1.0,2.0,9.0,23.0,4.0,21.0,38.0,0.0
8.0,15.0,-32.0,-3.0,2.0,10.0,27.0,-2.0,5.0,29.0,0.0
14.0,33.0,14.0,0.0,4.0,3.0,14.0,-7.0,-10.0,24.0,0.0
0.0,30.0,54.0,4.0,13.0,7.0,15.0,2.0,-6.0,15.0,0.0
-1.0,19.0,55.0,20.0,17.0,15.0,7.0,12.0,6.0,9.0,0.0
24.0,20.0,23.0,37.0,5.0,3.0,2.0,18.0,-12.0,10.0,0.0
20.0,16.0,-19.0,26.0,4.0,2.0,11.0,21.0,-9.0,23.0,0.0
0.0,-9.0,-44.0,-10.0,0.0,-2.0,31.0,33.0,7.0,22.0,0.0
-9.0,-21.0,-51.0,-33.0,-1.0,-17.0,36.0,26.0,3.0,16.0,0.0
-25.0,-24.0,-56.0,-1.0,-1.0,-25.0,13.0,10.0,-11.0,-9.0,0.0
-31.0,-33.0,-82.0,34.0,-9.0,-36.0,8.0,-17.0,-21.0,-26.0,0.0
-36.0,-32.0,-60.0,37.0,3.0,-30.0,7.0,-22.0,-25.0,-13.0,0.0
-32.0,-19.0,-29.0,30.0,6.0,-37.0,18.0,-12.0,-7.0,4.0,0.0
-21.0,-2.0,-3.0,21.0,-6.0,-37.0,11.0,-14.0,9.0,20.0,0.0
-12.0,-9.0,-17.0,22.0,-17.0,-38.0,14.0,-9.0,12.0,21.0,0.0
-21.0,-25.0,-35.0,12.0,-15.0,-42.0,10.0,-2.0,13.0,25.0,0.0
-38.0,-35.0,-19.0,20.0,-4.0,-34.0,-4.0,0.0,5.0,26.0,0.0
-31.0,-37.0,-9.0,31.0,5.0,-14.0,-15.0,-10.0,8.0,28.0,0.0
6.0,-29.0,-13.0,26.0,6.0,-20.0,-14.0,-21.0,0.0,21.0,0.0
54.0,0.0,-16.0,26.0,24.0,-31.0,-15.0,-25.0,-38.0,-12.0,0.0
47.0,1.0,-11.0,7.0,5.0,-44.0,-23.0,-23.0,-14.0,-11.0,0.0
22.0,-16.0,-24.0,-21.0,-3.0,-42.0,-26.0,-11.0,22.0,20.0,0.0
24.0,-28.0,-33.0,-44.0,11.0,-27.0,-17.0,-12.0,13.0,4.0,0.0
14.0,-29.0,-14.0,-23.0,19.0,-10.0,-14.0,-10.0,1.0,-16.0,0.0
1.0,-13.0,15.0,-4.0,12.0,-4.0,2.0,-4.0,7.0,-21.0,0.0
-4.0,-4.0,41.0,3.0,17.0,0.0,9.0,-1.0,18.0,-14.0,0.0
-11.0,-23.0,59.0,8.0,33.0,12.0,37.0,2.0,30.0,-9.0,0.0
0.0,-26.0,67.0,18.0,36.0,25.0,50.0,22.0,43.0,-9.0,0.0
20.0,-8.0,47.0,24.0,28.0,37.0,53.0,30.0,58.0,8.0,0.0
39.0,12.0,25.0,15.0,23.0,20.0,47.0,19.0,52.0,1.0,0.0
37.0,21.0,9.0,9.0,11.0,13.0,41.0,18.0,26.0,-11.0,0.0
31.0,3.0,-15.0,10.0,9.0,2.0,19.0,6.0,2.0,-18.0,0.0
29.0,-11.0,-46.0,-2.0,12.0,-3.0,13.0,-18.0,-16.0,-49.0,0.0
10.0,-15.0,-44.0,2.0,29.0,6.0,14.0,-25.0,-38.0,-78.0,0.0
8.0,-13.0,-15.0,2.0,34.0,1.0,5.0,-19.0,-29.0,-10.0,0.0
12.0,-16.0,-14.0,-7.0,9.0,-19.0,6.0,-31.0,3.0,57.0,0.0
10.0,-4.0,4.0,2.0,0.0,-16.0,-6.0,-41.0,-4.0,35.0,0.0
11.0,17.0,31.0,24.0,-1.0,-5.0,-7.0,-35.0,-21.0,0.0,0.0
13.0,35.0,34.0,13.0,2.0,-7.0,1.0,-30.0,-9.0,-16.0,0.0
-3.0,27.0,8.0,32.0,20.0,-9.0,-2.0,-33.0,-14.0,-45.0,0.0
-15.0,0.0,-4.0,47.0,36.0,5.0,2.0,-29.0,-35.0,-74.0,0.0
-17.0,-28.0,-33.0,-5.0,-2.0,-8.0,-15.0,-10.0,3.0,0.0,0.0
0.0,-29.0,-55.0,-56.0,-26.0,-14.0,-26.0,-1.0,56.0,77.0,0.0
28.0,3.0,-41.0,-66.0,-21.0,-2.0,-11.0,21.0,39.0,59.0,0.0
28.0,15.0,-40.0,-67.0,-20.0,4.0,23.0,33.0,21.0,38.0,0.0
24.0,20.0,-17.0,-47.0,-6.0,6.0,14.0,19.0,7.0,15.0,0.0
20.0,28.0,17.0,-16.0,10.0,17.0,21.0,22.0,0.0,1.0,0.0
15.0,24.0,22.0,-4.0,13.0,24.0,36.0,40.0,7.0,0.0,0.0
14.0,21.0,-24.0,-14.0,19.0,21.0,24.0,41.0,11.0,7.0,0.0
28.0,37.0,-79.0,-18.0,13.0,16.0,20.0,21.0,24.0,15.0,0.0
18.0,37.0,-75.0,-1.0,12.0,3.0,19.0,10.0,19.0,22.0,0.0
2.0,45.0,-40.0,19.0,12.0,-2.0,0.0,-7.0,3.0,-9.0,0.0
-14.0,39.0,-28.0,40.0,0.0,3.0,4.0,-23.0,-10.0,-31.0,0.0
-16.0,32.0,-1.0,49.0,4.0,11.0,12.0,-20.0,-9.0,-21.0,0.0
-4.0,24.0,85.0,51.0,25.0,30.0,21.0,2.0,-5.0,-11.0,0.0
5.0,0.0,210.0,36.0,25.0,37.0,40.0,30.0,16.0,10.0,0.0
0.0,-18.0,263.0,26.0,17.0,35.0,53.0,39.0,30.0,13.0,0.0
2.0,-24.0,84.0,8.0,-1.0,9.0,21.0,21.0,11.0,-10.0,0.0
-2.0,-24.0,-118.0,-14.0,-26.0,-22.0,-22.0,2.0,-24.0,-41.0,0.0
-8.0,-28.0,-146.0,-29.0,-21.0,-12.0,-3.0,2.0,-27.0,-21.0,0.0
-2.0,-36.0,-111.0,-7.0,-1.0,3.0,-9.0,-1.0,-14.0,-8.0,0.0
13.0,-17.0,-53.0,7.0,2.0,-4.0,-1.0,-2.0,-11.0,-2.0,0.0
28.0,1.0,-22.0,-9.0,-10.0,-12.0,15.0,1.0,-7.0,-8.0,0.0
23.0,0.0,-2.0,-14.0,-2.0,-5.0,7.0,2.0,-16.0,-20.0,0.0
-6.0,-24.0,0.0,-24.0,-7.0,-5.0,16.0,3.0,0.0,-8.0,0.0
-16.0,-39.0,-1.0,-36.0,-24.0,-14.0,9.0,16.0,12.0,10.0,0.0
2.0,-9.0,-8.0,-49.0,-27.0,-17.0,-16.0,2.0,-5.0,9.0,0.0
22.0,21.0,-10.0,-58.0,-25.0,-16.0,-22.0,-13.0,-8.0,9.0,0.0
13.0,14.0,0.0,-57.0,-22.0,-6.0,-25.0,-8.0,-8.0,5.0,0.0
-14.0,-1.0,0.0,-25.0,-3.0,11.0,10.0,-3.0,0.0,-12.0,0.0
-29.0,-18.0,10.0,16.0,-2.0,14.0,6.0,2.0,0.0,-35.0,0.0
-26.0,-26.0,13.0,36.0,-7.0,6.0,-12.0,-7.0,-5.0,-44.0,0.0
-34.0,-29.0,-1.0,41.0,-8.0,-7.0,-16.0,-10.0,-16.0,-60.0,0.0
-19.0,-9.0,-10.0,50.0,0.0,-7.0,-23.0,-8.0,-28.0,-88.0,0.0
-13.0,-8.0,-2.0,35.0,4.0,-7.0,-11.0,-8.0,-19.0,-62.0,0.0
-22.0,-28.0,4.0,-7.0,-3.0,-24.0,-21.0,-8.0,16.0,69.0,0.0
-12.0,-21.0,31.0,-6.0,-15.0,-18.0,-19.0,-7.0,32.0,105.0,0.0
0.0,3.0,43.0,7.0,-9.0,-15.0,-21.0,-5.0,22.0,42.0,0.0
21.0,17.0,23.0,-7.0,-8.0,-3.0,-9.0,3.0,21.0,34.0,0.0
39.0,39.0,-13.0,-34.0,-5.0,8.0,1.0,7.0,29.0,49.0,0.0
51.0,47.0,-30.0,-48.0,1.0,21.0,7.0,19.0,40.0,28.0,0.0
38.0,34.0,-15.0,-27.0,-1.0,24.0,20.0,27.0,45.0,-16.0,0.0
18.0,29.0,19.0,16.0,12.0,17.0,1.0,23.0,27.0,-50.0,0.0
0.0,23.0,42.0,48.0,24.0,28.0,-11.0,4.0,-3.0,-85.0,0.0
-2.0,24.0,59.0,60.0,37.0,38.0,-5.0,-3.0,-31.0,-130.0,0.0
-11.0,18.0,34.0,21.0,40.0,25.0,-12.0,-13.0,-38.0,-41.0,0.0
-17.0,-10.0,-10.0,-20.0,27.0,20.0,-12.0,-16.0,19.0,107.0,0.0
-15.0,-14.0,-8.0,-40.0,23.0,40.0,-1.0,-8.0,33.0,61.0,0.0
-1.0,-19.0,1.0,-61.0,24.0,42.0,20.0,1.0,8.0,-15.0,0.0
-5.0,-32.0,-5.0,-80.0,21.0,32.0,24.0,13.0,22.0,50.0,0.0
-8.0,-29.0,-23.0,-109.0,-9.0,26.0,13.0,17.0,47.0,91.0,0.0
-11.0,-33.0,-36.0,-110.0,-11.0,32.0,20.0,23.0,41.0,63.0,0.0
-41.0,-49.0,-27.0,-64.0,-9.0,9.0,6.0,8.0,12.0,45.0,0.0
-39.0,-47.0,-16.0,-29.0,-1.0,0.0,-5.0,0.0,-22.0,20.0,0.0
15.0,4.0,20.0,-6.0,4.0,-2.0,7.0,-25.0,-58.0,-24.0,0.0
47.0,42.0,39.0,-1.0,8.0,-3.0,1.0,-40.0,-71.0,-39.0,0.0
44.0,46.0,44.0,14.0,9.0,1.0,-4.0,-33.0,-40.0,-2.0,0.0
41.0,41.0,45.0,27.0,10.0,7.0,-6.0,-12.0,22.0,28.0,0.0
40.0,28.0,13.0,18.0,7.0,6.0,-16.0,-15.0,15.0,28.0,0.0
36.0,23.0,-10.0,4.0,0.0,1.0,-17.0,-15.0,20.0,47.0,0.0
34.0,19.0,-19.0,-6.0,-4.0,0.0,-19.0,-3.0,28.0,58.0,0.0
41.0,7.0,-17.0,-7.0,-5.0,1.0,-9.0,3.0,16.0,17.0,0.0
40.0,4.0,-17.0,-6.0,-6.0,3.0,-12.0,-2.0,-8.0,-15.0,0.0
18.0,-13.0,-17.0,-9.0,-2.0,7.0,-11.0,0.0,-9.0,-35.0,0.0
2.0,-23.0,-9.0,-20.0,-1.0,21.0,-14.0,2.0,-21.0,-59.0,0.0
-3.0,-34.0,-1.0,-21.0,10.0,20.0,-5.0,0.0,-16.0,-54.0,0.0
-11.0,-29.0,1.0,-11.0,17.0,7.0,-13.0,0.0,6.0,-4.0,0.0
0.0,-13.0,-8.0,-12.0,18.0,14.0,-8.0,-3.0,21.0,52.0,0.0
13.0,-4.0,-8.0,-8.0,14.0,17.0,-4.0,0.0,19.0,45.0,0.0
13.0,-4.0,0.0,5.0,18.0,24.0,2.0,3.0,8.0,-6.0,0.0
8.0,9.0,12.0,11.0,18.0,28.0,10.0,6.0,-6.0,-27.0,0.0
22.0,23.0,9.0,13.0,17.0,17.0,-4.0,-5.0,-12.0,-30.0,0.0
27.0,25.0,13.0,4.0,6.0,14.0,2.0,-17.0,-13.0,-37.0,0.0
24.0,23.0,14.0,6.0,8.0,16.0,-12.0,-9.0,-36.0,-46.0,0.0
12.0,23.0,16.0,11.0,3.0,12.0,0.0,-12.0,-44.0,-46.0,0.0
4.0,18.0,-9.0,1.0,-6.0,-10.0,-18.0,-17.0,4.0,41.0,0.0
3.0,7.0,-27.0,16.0,11.0,-6.0,-25.0,-9.0,34.0,68.0,0.0
-14.0,-8.0,-33.0,23.0,11.0,0.0,-15.0,1.0,10.0,28.0,0.0
-2.0,-12.0,-29.0,25.0,8.0,8.0,0.0,0.0,-8.0,-2.0,0.0
27.0,0.0,-26.0,11.0,0.0,5.0,9.0,0.0,-12.0,-23.0,0.0
40.0,21.0,11.0,-6.0,-3.0,0.0,18.0,7.0,-9.0,-23.0,0.0
45.0,29.0,65.0,1.0,-13.0,-3.0,30.0,6.0,-8.0,-20.0,0.0
34.0,22.0,78.0,5.0,-19.0,0.0,13.0,2.0,-29.0,-29.0,0.0
1.0,-2.0,69.0,-3.0,-35.0,-14.0,-2.0,-5.0,-26.0,-7.0,0.0
-14.0,-21.0,30.0,-3.0,-41.0,-28.0,-12.0,-20.0,-11.0,-2.0,0.0
0.0,-3.0,8.0,11.0,-22.0,-31.0,-15.0,-14.0,-18.0,-20.0,0.0
17.0,5.0,0.0,28.0,-5.0,-16.0,-3.0,5.0,-11.0,-16.0,0.0
6.0,5.0,-8.0,39.0,14.0,2.0,-5.0,12.0,-11.0,-21.0,0.0
19.0,12.0,-17.0,24.0,12.0,8.0,20.0,27.0,11.0,-22.0,0.0
45.0,29.0,-52.0,-26.0,-13.0,9.0,26.0,39.0,23.0,-9.0,0.0
57.0,28.0,-72.0,-37.0,-24.0,7.0,4.0,29.0,12.0,-4.0,0.0
44.0,28.0,-23.0,-2.0,-31.0,5.0,-4.0,10.0,-6.0,-18.0,0.0
22.0,39.0,40.0,22.0,-31.0,10.0,-23.0,2.0,-30.0,-52.0,0.0
10.0,34.0,48.0,29.0,-22.0,4.0,-29.0,-2.0,-43.0,-67.0,0.0
-4.0,5.0,14.0,28.0,-11.0,-5.0,-24.0,6.0,-38.0,-36.0,0.0
-16.0,-15.0,-16.0,32.0,2.0,3.0,-12.0,7.0,-16.0,-14.0,0.0
-23.0,-13.0,-29.0,17.0,1.0,12.0,-22.0,7.0,-10.0,-12.0,0.0
-25.0,0.0,-19.0,-21.0,2.0,12.0,-16.0,9.0,-22.0,-12.0,0.0
-18.0,-5.0,-17.0,-53.0,4.0,16.0,0.0,13.0,-19.0,-11.0,0.0
-16.0,-11.0,-32.0,-79.0,-3.0,10.0,14.0,20.0,6.0,-10.0,0.0
-17.0,-11.0,-17.0,-61.0,6.0,0.0,1.0,16.0,13.0,-16.0,0.0
-13.0,-9.0,0.0,-18.0,6.0,7.0,15.0,19.0,5.0,-1.0,0.0
-7.0,-14.0,-7.0,-2.0,7.0,25.0,31.0,27.0,4.0,6.0,0.0
6.0,-16.0,-45.0,-14.0,6.0,15.0,33.0,29.0,4.0,-6.0,0.0
12.0,-20.0,-68.0,-21.0,-11.0,5.0,32.0,16.0,-1.0,-14.0,0.0
9.0,-30.0,-52.0,-28.0,-26.0,-4.0,13.0,3.0,-7.0,-21.0,0.0
10.0,-16.0,-35.0,-13.0,-27.0,-4.0,-2.0,-5.0,-5.0,-23.0,0.0
21.0,-3.0,-7.0,5.0,-16.0,-8.0,-3.0,-17.0,-23.0,-22.0,0.0
36.0,5.0,5.0,6.0,-1.0,1.0,-4.0,-29.0,-21.0,-14.0,0.0
20.0,7.0,20.0,-5.0,0.0,13.0,9.0,-32.0,-7.0,-3.0,0.0
0.0,6.0,27.0,-3.0,1.0,11.0,0.0,-22.0,-6.0,-10.0,0.0
-15.0,1.0,21.0,2.0,10.0,10.0,-1.0,2.0,-6.0,-22.0,0.0
-20.0,6.0,25.0,13.0,18.0,14.0,0.0,15.0,-11.0,-14.0,0.0
-19.0,6.0,27.0,15.0,21.0,14.0,-6.0,14.0,-15.0,0.0,0.0
-2.0,-1.0,23.0,21.0,27.0,20.0,2.0,4.0,-1.0,9.0,0.0
14.0,9.0,40.0,43.0,20.0,16.0,-2.0,-7.0,0.0,-4.0,0.0
17.0,23.0,77.0,53.0,7.0,3.0,-2.0,-14.0,-16.0,-19.0,0.0
18.0,47.0,107.0,59.0,3.0,-5.0,5.0,-10.0,-27.0,-17.0,0.0
-7.0,21.0,100.0,63.0,3.0,-8.0,-3.0,-12.0,-36.0,-6.0,0.0
-47.0,-31.0,21.0,51.0,-7.0,-27.0,-13.0,-11.0,-12.0,25.0,0.0
-41.0,-45.0,-44.0,19.0,-8.0,-28.0,-22.0,-22.0,-13.0,3.0,0.0
-11.0,-21.0,-85.0,-32.0,-9.0,-27.0,-13.0,-21.0,-21.0,-7.0,0.0
1.0,-17.0,-105.0,-60.0,-16.0,-31.0,-9.0,-13.0,1.0,13.0,0.0
8.0,-15.0,-112.0,-56.0,-13.0,-26.0,-3.0,1.0,7.0,9.0,0.0
4.0,-20.0,-114.0,-41.0,3.0,-26.0,-8.0,6.0,12.0,-9.0,0.0
-7.0,-19.0,-99.0,-10.0,13.0,-23.0,-8.0,4.0,5.0,-7.0,0.0
-7.0,-8.0,-70.0,11.0,21.0,-15.0,-26.0,0.0,-1.0,5.0,0.0
-15.0,-10.0,-41.0,17.0,13.0,-15.0,-24.0,-17.0,-4.0,21.0,0.0
-15.0,-15.0,-37.0,20.0,12.0,-20.0,-40.0,-10.0,-8.0,24.0,0.0
-21.0,0.0,-32.0,18.0,10.0,-30.0,-37.0,-4.0,-8.0,16.0,0.0
-7.0,14.0,-39.0,7.0,3.0,-29.0,-20.0,-1.0,-26.0,-2.0,0.0
58.0,53.0,-41.0,2.0,-10.0,-27.0,-16.0,0.0,-23.0,-22.0,0.0
56.0,64.0,-34.0,2.0,-11.0,-16.0,6.0,13.0,-12.0,-32.0,0.0
38.0,55.0,-22.0,-1.0,-2.0,-12.0,12.0,23.0,-5.0,-46.0,0.0
29.0,44.0,58.0,-12.0,-6.0,-9.0,12.0,15.0,-7.0,-68.0,0.0
28.0,45.0,173.0,-14.0,-1.0,-18.0,9.0,13.0,-13.0,-52.0,0.0
18.0,15.0,149.0,-11.0,-12.0,-33.0,-4.0,5.0,-4.0,75.0,0.0
-27.0,-33.0,4.0,11.0,-28.0,-34.0,-17.0,3.0,-15.0,59.0,0.0
-44.0,-52.0,-27.0,13.0,-22.0,-36.0,-16.0,-2.0,-5.0,25.0,0.0
-36.0,-44.0,32.0,10.0,0.0,-16.0,-4.0,-11.0,-10.0,21.0,0.0
-23.0,-29.0,56.0,34.0,16.0,-9.0,-14.0,-28.0,-55.0,-31.0,0.0
-16.0,-27.0,-2.0,36.0,9.0,-20.0,-29.0,-16.0,-40.0,-56.0,0.0
-4.0,-4.0,-6.0,41.0,6.0,-16.0,-17.0,-7.0,10.0,-33.0,0.0
4.0,6.0,15.0,25.0,23.0,6.0,0.0,2.0,17.0,-28.0,0.0
7.0,5.0,16.0,14.0,25.0,19.0,10.0,3.0,-6.0,-37.0,0.0
10.0,24.0,9.0,17.0,24.0,13.0,2.0,2.0,-14.0,-43.0,0.0
4.0,23.0,1.0,31.0,14.0,11.0,1.0,11.0,-11.0,-57.0,0.0
3.0,18.0,15.0,27.0,1.0,-2.0,-4.0,16.0,-3.0,-58.0,0.0
6.0,25.0,25.0,15.0,-9.0,1.0,0.0,10.0,6.0,-55.0,0.0
3.0,8.0,10.0,3.0,-23.0,-2.0,-7.0,0.0,38.0,27.0,0.0
-6.0,-20.0,-19.0,-2.0,-27.0,-5.0,0.0,-1.0,45.0,57.0,0.0
-9.0,-14.0,-19.0,5.0,-18.0,2.0,4.0,-8.0,23.0,-21.0,0.0
-10.0,0.0,5.0,11.0,-12.0,4.0,-1.0,0.0,13.0,-61.0,0.0
-2.0,-6.0,54.0,24.0,-10.0,2.0,-8.0,-6.0,24.0,-22.0,0.0
13.0,0.0,86.0,41.0,13.0,0.0,-7.0,-12.0,14.0,-12.0,0.0
14.0,11.0,102.0,76.0,34.0,8.0,-8.0,-14.0,-30.0,-93.0,0.0
5.0,22.0,73.0,81.0,36.0,16.0,13.0,-15.0,-45.0,-137.0,0.0
-4.0,13.0,-9.0,21.0,2.0,4.0,8.0,-14.0,-3.0,-46.0,0.0
-4.0,0.0,-61.0,-10.0,-13.0,-10.0,-11.0,-13.0,36.0,55.0,0.0
-7.0,-8.0,-49.0,9.0,-3.0,-9.0,-32.0,-17.0,36.0,46.0,0.0
-13.0,-16.0,-23.0,27.0,10.0,-9.0,-40.0,-19.0,30.0,34.0,0.0
0.0,3.0,27.0,34.0,16.0,1.0,-20.0,-1.0,7.0,-16.0,0.0
3.0,27.0,57.0,27.0,15.0,10.0,-7.0,0.0,-8.0,-33.0,0.0
-1.0,23.0,56.0,-3.0,-23.0,-11.0,-18.0,-18.0,5.0,82.0,0.0
-7.0,6.0,41.0,-33.0,-42.0,-31.0,-25.0,-22.0,24.0,113.0,0.0
1.0,7.0,35.0,-29.0,-29.0,-10.0,-12.0,1.0,35.0,61.0,0.0
5.0,7.0,0.0,-28.0,-2.0,14.0,8.0,21.0,43.0,49.0,0.0
7.0,-17.0,-28.0,-32.0,12.0,19.0,21.0,24.0,34.0,33.0,0.0
0.0,-32.0,-46.0,-43.0,-12.0,18.0,16.0,23.0,22.0,26.0,0.0
-8.0,-33.0,-37.0,-52.0,-22.0,9.0,16.0,20.0,21.0,27.0,0.0
-14.0,-18.0,-14.0,-48.0,-19.0,1.0,6.0,23.0,20.0,16.0,0.0
-4.0,0.0,8.0,-35.0,-16.0,2.0,10.0,18.0,6.0,11.0,0.0
2.0,14.0,23.0,-16.0,0.0,5.0,6.0,21.0,4.0,13.0,0.0
2.0,8.0,30.0,-12.0,9.0,4.0,14.0,21.0,9.0,13.0,0.0
6.0,0.0,22.0,-21.0,4.0,0.0,12.0,27.0,4.0,11.0,0.0
4.0,-10.0,10.0,-39.0,0.0,4.0,18.0,21.0,9.0,10.0,0.0
0.0,-5.0,7.0,-35.0,3.0,5.0,13.0,18.0,8.0,11.0,0.0
2.0,-22.0,0.0,-26.0,15.0,16.0,13.0,10.0,11.0,23.0,0.0
-1.0,-33.0,-13.0,-16.0,29.0,22.0,8.0,-1.0,19.0,29.0,0.0
10.0,-20.0,-14.0,-17.0,13.0,16.0,-4.0,-8.0,5.0,24.0,0.0
5.0,-7.0,-5.0,3.0,-2.0,4.0,-1.0,-15.0,-5.0,9.0,0.0
-12.0,0.0,9.0,29.0,-14.0,0.0,-8.0,-14.0,-4.0,4.0,0.0
-5.0,17.0,17.0,38.0,-14.0,9.0,-5.0,-10.0,-2.0,22.0,0.0
0.0,5.0,13.0,30.0,-13.0,14.0,2.0,-10.0,4.0,29.0,0.0
-4.0,-4.0,4.0,18.0,-8.0,20.0,-3.0,-6.0,-11.0,14.0,0.0
8.0,-10.0,-16.0,1.0,-2.0,31.0,-14.0,-7.0,-17.0,8.0,0.0
24.0,-11.0,-10.0,-15.0,-5.0,19.0,-10.0,-9.0,-3.0,27.0,0.0
24.0,-7.0,14.0,1.0,-7.0,12.0,-5.0,-11.0,13.0,33.0,0.0
10.0,-9.0,24.0,42.0,3.0,21.0,-13.0,0.0,13.0,24.0,0.0
-8.0,-17.0,27.0,68.0,6.0,35.0,3.0,15.0,14.0,9.0,0.0
-21.0,-33.0,9.0,62.0,5.0,48.0,5.0,12.0,-8.0,-9.0,0.0
-28.0,-32.0,-4.0,63.0,13.0,45.0,6.0,6.0,-16.0,-25.0,0.0
-30.0,-45.0,-18.0,52.0,10.0,49.0,2.0,9.0,-6.0,-19.0,0.0
-36.0,-52.0,-30.0,42.0,1.0,58.0,-1.0,3.0,6.0,-6.0,0.0
-28.0,-44.0,-6.0,35.0,-3.0,46.0,-13.0,-16.0,4.0,-2.0,0.0
0.0,-6.0,21.0,23.0,-11.0,31.0,-24.0,-26.0,3.0,9.0,0.0
19.0,23.0,48.0,11.0,-12.0,30.0,-17.0,-27.0,-1.0,32.0,0.0
18.0,21.0,34.0,-3.0,-7.0,23.0,-7.0,-11.0,6.0,24.0,0.0
18.0,9.0,3.0,-15.0,-11.0,23.0,5.0,6.0,21.0,16.0,0.0
12.0,-15.0,-31.0,-38.0,-8.0,42.0,24.0,29.0,34.0,20.0,0.0
8.0,-20.0,-52.0,-47.0,-20.0,53.0,11.0,39.0,25.0,32.0,0.0
-9.0,-45.0,-74.0,-49.0,-35.0,29.0,0.0,16.0,6.0,17.0,0.0
-18.0,-37.0,-61.0,-44.0,-31.0,3.0,-14.0,-2.0,-2.0,17.0,0.0
-9.0,0.0,-3.0,-17.0,-19.0,-1.0,-17.0,-11.0,-8.0,4.0,0.0
-4.0,9.0,32.0,-4.0,-17.0,-2.0,-18.0,-7.0,-15.0,0.0,0.0
5.0,10.0,30.0,-4.0,-9.0,-7.0,-22.0,4.0,-12.0,0.0,0.0
47.0,48.0,39.0,4.0,1.0,10.0,-24.0,14.0,-7.0,0.0,0.0
45.0,57.0,47.0,33.0,-1.0,18.0,-5.0,24.0,2.0,-1.0,0.0
26.0,37.0,29.0,33.0,-3.0,18.0,-5.0,25.0,0.0,-7.0,0.0
14.0,26.0,15.0,7.0,-1.0,12.0,-2.0,20.0,-5.0,-24.0,0.0
1.0,13.0,2.0,1.0,11.0,3.0,5.0,25.0,-10.0,-36.0,0.0
0.0,13.0,7.0,14.0,9.0,0.0,1.0,22.0,-17.0,-39.0,0.0
-3.0,11.0,-4.0,10.0,6.0,-7.0,-16.0,7.0,-2.0,23.0,0.0
-2.0,11.0,-5.0,16.0,12.0,-8.0,-14.0,-6.0,4.0,36.0,0.0
-1.0,20.0,13.0,16.0,40.0,-5.0,-12.0,-4.0,-6.0,-2.0,0.0
6.0,25.0,29.0,13.0,36.0,-5.0,-9.0,10.0,-5.0,-15.0,0.0
12.0,36.0,44.0,-1.0,19.0,-10.0,-8.0,10.0,12.0,6.0,0.0
17.0,29.0,52.0,-19.0,14.0,0.0,-6.0,28.0,28.0,7.0,0.0
19.0,24.0,64.0,-21.0,15.0,12.0,4.0,36.0,11.0,-3.0,0.0
15.0,9.0,62.0,-13.0,14.0,2.0,4.0,21.0,-9.0,-18.0,0.0
-11.0,-14.0,-21.0,-7.0,1.0,-24.0,-10.0,-4.0,-15.0,-30.0,0.0
-43.0,-51.0,-95.0,9.0,-14.0,-38.0,-29.0,-16.0,-7.0,-21.0,0.0
-35.0,-50.0,-49.0,13.0,-12.0,-33.0,-24.0,-15.0,2.0,-16.0,0.0
-21.0,-24.0,3.0,5.0,-8.0,-23.0,-26.0,1.0,6.0,2.0,0.0
9.0,-8.0,-3.0,5.0,-8.0,-20.0,-24.0,16.0,2.0,13.0,0.0
38.0,6.0,-2.0,5.0,-8.0,-15.0,-17.0,15.0,0.0,18.0,0.0
23.0,9.0,3.0,6.0,1.0,-5.0,-5.0,16.0,-1.0,11.0,0.0
13.0,15.0,-24.0,-7.0,13.0,6.0,8.0,34.0,19.0,15.0,0.0
9.0,15.0,-36.0,-14.0,17.0,12.0,19.0,25.0,20.0,13.0,0.0
-5.0,27.0,-3.0,7.0,19.0,17.0,9.0,2.0,-4.0,-1.0,0.0
-15.0,20.0,29.0,20.0,23.0,9.0,4.0,7.0,-3.0,-7.0,0.0
-28.0,5.0,16.0,21.0,20.0,6.0,-1.0,12.0,2.0,-12.0,0.0
-32.0,0.0,-23.0,-12.0,16.0,0.0,-5.0,10.0,0.0,0.0,0.0
-32.0,3.0,-45.0,-29.0,11.0,3.0,-4.0,-5.0,-5.0,-9.0,0.0
-33.0,16.0,-41.0,-27.0,4.0,8.0,-2.0,4.0,-13.0,-2.0,0.0
-17.0,33.0,-32.0,-18.0,8.0,-1.0,8.0,2.0,-20.0,6.0,0.0
-13.0,32.0,-31.0,-18.0,4.0,3.0,13.0,3.0,-9.0,9.0,0.0
-18.0,22.0,-25.0,-33.0,8.0,12.0,16.0,5.0,-13.0,-5.0,0.0
-12.0,22.0,-1.0,-38.0,0.0,18.0,15.0,6.0,-20.0,-20.0,0.0
-5.0,31.0,26.0,-36.0,0.0,7.0,18.0,8.0,-25.0,-28.0,0.0
-1.0,50.0,42.0,-20.0,8.0,11.0,16.0,6.0,-35.0,-61.0,0.0
-14.0,50.0,47.0,-3.0,15.0,23.0,18.0,18.0,-51.0,-94.0,0.0
-30.0,38.0,30.0,-10.0,-5.0,0.0,1.0,9.0,-28.0,-49.0,0.0
-22.0,40.0,29.0,-4.0,-24.0,-25.0,-12.0,4.0,18.0,10.0,0.0
-16.0,49.0,45.0,17.0,-1.0,-13.0,-2.0,-3.0,3.0,-38.0,0.0
-21.0,36.0,34.0,22.0,6.0,-3.0,3.0,-7.0,-18.0,2.0,0.0
-27.0,10.0,-4.0,6.0,0.0,-13.0,5.0,1.0,6.0,113.0,0.0
-26.0,7.0,-15.0,2.0,5.0,-4.0,10.0,1.0,4.0,56.0,0.0
-13.0,11.0,-10.0,3.0,17.0,1.0,15.0,-6.0,2.0,20.0,0.0
-9.0,7.0,5.0,-1.0,7.0,0.0,13.0,-4.0,-1.0,7.0,0.0
0.0,0.0,16.0,1.0,-2.0,-17.0,9.0,-9.0,-23.0,-5.0,0.0
-1.0,7.0,18.0,7.0,-7.0,-18.0,-4.0,-29.0,-27.0,-21.0,0.0
-9.0,13.0,33.0,15.0,-8.0,-4.0,4.0,-31.0,-40.0,-21.0,0.0
-7.0,10.0,24.0,19.0,-3.0,9.0,15.0,-9.0,-47.0,-9.0,0.0
10.0,19.0,-8.0,-5.0,0.0,9.0,19.0,11.0,-21.0,4.0,0.0
30.0,31.0,-50.0,-29.0,-10.0,11.0,11.0,3.0,-15.0,18.0,0.0
33.0,26.0,-55.0,-24.0,-29.0,0.0,10.0,-6.0,-20.0,33.0,0.0
17.0,5.0,-56.0,-16.0,-25.0,-9.0,-15.0,-16.0,-11.0,29.0,0.0
-10.0,-12.0,-69.0,7.0,-6.0,-14.0,-10.0,-21.0,-36.0,0.0,0.0
-16.0,-14.0,-55.0,36.0,17.0,-9.0,11.0,-20.0,-82.0,-53.0,0.0
-11.0,-2.0,-41.0,34.0,23.0,-7.0,27.0,-8.0,-70.0,-58.0,0.0
8.0,-2.0,-45.0,12.0,10.0,4.0,26.0,19.0,-2.0,12.0,0.0
24.0,-6.0,-41.0,10.0,7.0,19.0,48.0,41.0,35.0,85.0,0.0
13.0,-12.0,-30.0,-9.0,8.0,21.0,38.0,32.0,8.0,48.0,0.0
0.0,-13.0,3.0,-1.0,7.0,6.0,16.0,9.0,-22.0,26.0,0.0
-6.0,-37.0,34.0,41.0,-3.0,-19.0,-1.0,-3.0,-27.0,36.0,0.0
1.0,-22.0,27.0,62.0,-13.0,-31.0,-19.0,-3.0,-33.0,49.0,0.0
8.0,-5.0,24.0,56.0,-15.0,-15.0,-14.0,-17.0,-49.0,31.0,0.0
8.0,-1.0,19.0,51.0,3.0,-3.0,-10.0,-27.0,-47.0,5.0,0.0
21.0,21.0,7.0,16.0,1.0,-9.0,-16.0,-30.0,-41.0,0.0,0.0
24.0,39.0,-11.0,-18.0,-4.0,-8.0,-7.0,-24.0,-24.0,14.0,0.0
22.0,57.0,0.0,-4.0,8.0,7.0,-2.0,-14.0,-38.0,-2.0,0.0
13.0,57.0,20.0,18.0,27.0,13.0,17.0,-1.0,-31.0,-4.0,0.0
0.0,33.0,30.0,31.0,14.0,-10.0,6.0,7.0,1.0,46.0,0.0
-10.0,23.0,37.0,30.0,4.0,-12.0,4.0,14.0,43.0,62.0,0.0
-16.0,4.0,29.0,13.0,9.0,-9.0,3.0,22.0,49.0,50.0,0.0
-18.0,-4.0,21.0,-16.0,6.0,-7.0,2.0,26.0,35.0,25.0,0.0
-23.0,-28.0,25.0,-30.0,4.0,-11.0,2.0,32.0,12.0,-8.0,0.0
-31.0,-40.0,-28.0,-14.0,0.0,-17.0,6.0,23.0,-13.0,-36.0,0.0
-33.0,-28.0,-65.0,-12.0,-8.0,-29.0,4.0,4.0,-23.0,-65.0,0.0
-28.0,-25.0,-47.0,-27.0,-11.0,-30.0,-12.0,4.0,-5.0,-68.0,0.0
-19.0,-37.0,-45.0,-52.0,-14.0,-23.0,-13.0,-3.0,2.0,-56.0,0.0
-20.0,-25.0,-47.0,-57.0,-5.0,-13.0,-8.0,-20.0,-18.0,-46.0,0.0
-28.0,-25.0,-49.0,-47.0,1.0,-18.0,-19.0,-25.0,7.0,28.0,0.0
-20.0,-24.0,-58.0,-53.0,-4.0,-45.0,-34.0,-29.0,31.0,119.0,0.0
-19.0,-13.0,-54.0,-42.0,6.0,-41.0,-29.0,-24.0,9.0,45.0,0.0
-35.0,-23.0,-68.0,-23.0,19.0,-15.0,-2.0,-21.0,13.0,-6.0,0.0
19.0,0.0,-44.0,-11.0,28.0,4.0,4.0,-19.0,8.0,-19.0,0.0
82.0,26.0,35.0,-17.0,28.0,-1.0,2.0,-2.0,10.0,-6.0,0.0
80.0,32.0,127.0,-56.0,7.0,3.0,15.0,30.0,36.0,27.0,0.0
50.0,-8.0,144.0,-54.0,-19.0,-8.0,-4.0,19.0,37.0,40.0,0.0
9.0,-49.0,50.0,-19.0,-35.0,-23.0,-30.0,-19.0,18.0,11.0,0.0
-11.0,-60.0,-14.0,5.0,-42.0,-30.0,-44.0,-34.0,-6.0,-10.0,0.0
-2.0,-33.0,31.0,-15.0,-31.0,-24.0,-35.0,-22.0,2.0,-3.0,0.0
11.0,-8.0,42.0,-25.0,-20.0,-13.0,-12.0,-9.0,27.0,15.0,0.0
22.0,0.0,29.0,-23.0,-23.0,0.0,3.0,-4.0,40.0,27.0,0.0
6.0,1.0,11.0,-15.0,-27.0,13.0,19.0,10.0,37.0,15.0,0.0
-5.0,-4.0,-6.0,-21.0,-12.0,34.0,10.0,26.0,28.0,6.0,0.0
-2.0,-1.0,-15.0,-18.0,-21.0,20.0,18.0,27.0,21.0,-7.0,0.0
1.0,-17.0,-5.0,0.0,-24.0,16.0,6.0,27.0,12.0,-33.0,0.0
-4.0,-26.0,2.0,19.0,-15.0,15.0,14.0,26.0,19.0,-48.0,0.0
-7.0,-16.0,-2.0,32.0,-4.0,28.0,6.0,10.0,7.0,-57.0,0.0
-2.0,-6.0,1.0,37.0,1.0,31.0,7.0,9.0,-3.0,-60.0,0.0
-7.0,-10.0,-3.0,29.0,-9.0,10.0,-11.0,0.0,-14.0,-29.0,0.0
-6.0,-15.0,-14.0,4.0,-30.0,-6.0,-21.0,-3.0,12.0,30.0,0.0
3.0,-6.0,2.0,1.0,-26.0,-3.0,-27.0,-3.0,15.0,14.0,0.0
6.0,15.0,27.0,12.0,-19.0,0.0,-25.0,-17.0,0.0,-9.0,0.0
12.0,26.0,41.0,27.0,-4.0,18.0,-6.0,-19.0,-23.0,-34.0,0.0
22.0,9.0,41.0,34.0,10.0,30.0,-3.0,-13.0,-14.0,-48.0,0.0
19.0,-9.0,16.0,25.0,12.0,24.0,-3.0,5.0,12.0,-27.0,0.0
14.0,7.0,20.0,15.0,18.0,35.0,13.0,25.0,20.0,-48.0,0.0
-3.0,21.0,20.0,5.0,19.0,38.0,19.0,13.0,17.0,-70.0,0.0
-11.0,4.0,-10.0,-26.0,1.0,26.0,-5.0,-5.0,16.0,42.0,0.0
-21.0,-27.0,-27.0,-33.0,-19.0,7.0,-5.0,0.0,18.0,96.0,0.0
-23.0,-36.0,-24.0,-29.0,-13.0,4.0,6.0,8.0,25.0,37.0,0.0
-15.0,-43.0,-14.0,-30.0,-9.0,4.0,2.0,0.0,25.0,18.0,0.0
-7.0,-37.0,0.0,-40.0,-2.0,-8.0,4.0,-7.0,17.0,4.0,0.0
-7.0,-27.0,13.0,-41.0,8.0,-16.0,4.0,-15.0,10.0,-5.0,0.0
-12.0,-19.0,24.0,-21.0,25.0,-8.0,5.0,-21.0,0.0,-27.0,0.0
-21.0,-2.0,30.0,-24.0,20.0,-13.0,1.0,-23.0,-5.0,-31.0,0.0
-26.0,-10.0,0.0,-26.0,18.0,-13.0,6.0,-16.0,0.0,-21.0,0.0
-22.0,-20.0,-3.0,-14.0,20.0,-1.0,12.0,-10.0,5.0,-12.0,0.0
-5.0,-6.0,3.0,-3.0,27.0,3.0,17.0,-9.0,9.0,-3.0,0.0
1.0,-6.0,18.0,-3.0,26.0,-1.0,4.0,-15.0,13.0,4.0,0.0
11.0,7.0,30.0,-11.0,15.0,-14.0,8.0,-22.0,23.0,11.0,0.0
2.0,-6.0,26.0,-14.0,8.0,-22.0,2.0,-20.0,18.0,8.0,0.0
3.0,-6.0,11.0,-18.0,2.0,-8.0,7.0,-13.0,19.0,0.0,0.0
6.0,-12.0,-1.0,-23.0,2.0,2.0,3.0,-8.0,10.0,-7.0,0.0
-7.0,-22.0,-19.0,-27.0,11.0,7.0,9.0,-3.0,-11.0,-8.0,0.0
-15.0,-13.0,-56.0,-42.0,1.0,5.0,-2.0,-5.0,-40.0,-27.0,0.0
-14.0,-6.0,-54.0,-52.0,12.0,8.0,-4.0,-6.0,-46.0,-59.0,0.0
-16.0,10.0,-16.0,-35.0,19.0,8.0,0.0,-18.0,-46.0,-97.0,0.0
-28.0,1.0,6.0,-26.0,6.0,0.0,1.0,-22.0,-15.0,-34.0,0.0
-35.0,-30.0,5.0,-41.0,-11.0,-20.0,0.0,-15.0,31.0,14.0,0.0
-22.0,-30.0,25.0,-34.0,-16.0,-12.0,13.0,-7.0,20.0,-36.0,0.0
15.0,-2.0,62.0,-35.0,-5.0,4.0,9.0,-6.0,14.0,21.0,0.0
2.0,-13.0,81.0,-28.0,-1.0,-2.0,4.0,-11.0,26.0,144.0,0.0
-36.0,-40.0,44.0,14.0,0.0,-2.0,1.0,-7.0,9.0,54.0,0.0
-41.0,-36.0,15.0,47.0,-3.0,-9.0,-7.0,-19.0,-2.0,-27.0,0.0
-21.0,-6.0,38.0,59.0,-7.0,-14.0,-16.0,-18.0,-4.0,-43.0,0.0
6.0,20.0,66.0,66.0,2.0,-12.0,-17.0,-16.0,-21.0,-63.0,0.0
-5.0,21.0,72.0,82.0,8.0,10.0,-7.0,-16.0,-17.0,-48.0,0.0
-18.0,0.0,51.0,88.0,9.0,21.0,-16.0,-23.0,6.0,26.0,0.0
-17.0,-17.0,-1.0,61.0,-6.0,9.0,-21.0,-26.0,13.0,23.0,0.0
-16.0,-30.0,-51.0,23.0,-15.0,3.0,-13.0,-19.0,1.0,9.0,0.0
-17.0,-39.0,-101.0,-8.0,-21.0,18.0,-1.0,-7.0,5.0,31.0,0.0
-5.0,-33.0,-112.0,-28.0,-23.0,18.0,7.0,6.0,14.0,35.0,0.0
0.0,-28.0,-94.0,-47.0,-22.0,12.0,5.0,2.0,13.0,23.0,0.0
1.0,-20.0,-59.0,-51.0,-16.0,10.0,16.0,0.0,13.0,21.0,0.0
-11.0,-49.0,-36.0,-49.0,-23.0,15.0,21.0,13.0,23.0,10.0,0.0
-31.0,-79.0,-32.0,-60.0,-32.0,8.0,25.0,19.0,45.0,16.0,0.0
-32.0,-68.0,-27.0,-51.0,-26.0,-2.0,22.0,19.0,35.0,15.0,0.0
-18.0,-27.0,-21.0,-36.0,-36.0,0.0,9.0,15.0,15.0,7.0,0.0
-28.0,-25.0,-25.0,-27.0,-35.0,-11.0,15.0,13.0,22.0,6.0,0.0
-30.0,-29.0,-31.0,-29.0,-25.0,-14.0,8.0,17.0,16.0,12.0,0.0
23.0,7.0,-21.0,-23.0,-20.0,-14.0,9.0,0.0,-1.0,10.0,0.0
39.0,22.0,-22.0,2.0,-3.0,-11.0,-3.0,-13.0,-8.0,14.0,0.0
21.0,13.0,-20.0,17.0,3.0,-12.0,-3.0,-12.0,-8.0,12.0,0.0
28.0,18.0,-17.0,8.0,-11.0,-19.0,-14.0,-24.0,-14.0,21.0,0.0
22.0,10.0,-33.0,-8.0,-11.0,-33.0,-11.0,-25.0,-11.0,28.0,0.0
0.0,6.0,-21.0,-17.0,-2.0,-21.0,13.0,-23.0,-14.0,10.0,0.0
-10.0,1.0,-11.0,-23.0,-1.0,-12.0,24.0,-18.0,-35.0,-21.0,0.0
-5.0,13.0,-15.0,-37.0,-10.0,-15.0,14.0,-8.0,-19.0,-3.0,0.0
1.0,11.0,-12.0,-33.0,-6.0,-15.0,30.0,5.0,30.0,24.0,0.0
-2.0,20.0,14.0,-25.0,2.0,3.0,38.0,8.0,19.0,17.0,0.0
2.0,23.0,33.0,-21.0,7.0,0.0,43.0,-4.0,-16.0,-8.0,0.0
18.0,21.0,31.0,-19.0,5.0,0.0,39.0,-7.0,-15.0,-10.0,0.0
15.0,23.0,27.0,-11.0,3.0,1.0,24.0,-8.0,-19.0,-10.0,0.0
-1.0,11.0,20.0,-2.0,-6.0,4.0,26.0,-13.0,-22.0,-13.0,0.0
3.0,7.0,5.0,4.0,-6.0,-1.0,30.0,-11.0,-10.0,-1.0,0.0
8.0,12.0,4.0,2.0,-3.0,-8.0,13.0,-9.0,-10.0,0.0,0.0
5.0,16.0,-7.0,0.0,-2.0,1.0,26.0,-6.0,-13.0,3.0,0.0
22.0,16.0,-19.0,0.0,3.0,1.0,27.0,-8.0,-7.0,0.0,0.0
19.0,13.0,-9.0,-10.0,1.0,0.0,-2.0,0.0,-2.0,-2.0,0.0
11.0,11.0,-11.0,7.0,-7.0,2.0,0.0,9.0,-2.0,-8.0,0.0
15.0,0.0,-16.0,21.0,-9.0,6.0,0.0,15.0,2.0,2.0,0.0
10.0,15.0,-12.0,38.0,10.0,7.0,15.0,18.0,-3.0,-6.0,0.0
-5.0,7.0,-11.0,47.0,35.0,16.0,15.0,14.0,-2.0,-18.0,0.0
-21.0,-9.0,-13.0,57.0,36.0,10.0,15.0,8.0,7.0,-22.0,0.0
-25.0,-9.0,0.0,54.0,31.0,3.0,24.0,-1.0,4.0,-6.0,0.0
-21.0,12.0,-2.0,26.0,22.0,2.0,21.0,0.0,-3.0,28.0,0.0
-12.0,22.0,-13.0,10.0,7.0,-1.0,4.0,4.0,-6.0,23.0,0.0
-2.0,28.0,-2.0,19.0,-2.0,-4.0,-9.0,-1.0,-4.0,15.0,0.0
0.0,33.0,11.0,16.0,1.0,-5.0,-16.0,-15.0,-1.0,8.0,0.0
6.0,40.0,22.0,16.0,12.0,0.0,8.0,-19.0,-21.0,-23.0,0.0
10.0,27.0,7.0,22.0,-1.0,7.0,7.0,-7.0,-21.0,-36.0,0.0
7.0,6.0,-19.0,-7.0,-20.0,0.0,5.0,0.0,20.0,2.0,0.0
12.0,9.0,0.0,-11.0,-19.0,-3.0,14.0,8.0,24.0,-11.0,0.0
13.0,33.0,24.0,-9.0,-5.0,11.0,12.0,11.0,0.0,-52.0,0.0
1.0,17.0,11.0,-22.0,-14.0,12.0,15.0,13.0,-5.0,-23.0,0.0
-1.0,-17.0,1.0,-41.0,-30.0,-8.0,-9.0,16.0,39.0,126.0,0.0
-16.0,-30.0,9.0,-24.0,-22.0,-12.0,-11.0,-4.0,28.0,101.0,0.0
-33.0,-30.0,-2.0,15.0,-24.0,-20.0,-14.0,-21.0,-14.0,16.0,0.0
-15.0,-4.0,17.0,41.0,-14.0,-15.0,-22.0,-14.0,-30.0,-12.0,0.0
-7.0,16.0,48.0,56.0,-5.0,2.0,-13.0,-11.0,-18.0,-4.0,0.0
9.0,29.0,63.0,81.0,4.0,9.0,-19.0,-7.0,2.0,0.0,0.0
33.0,54.0,45.0,61.0,15.0,23.0,15.0,12.0,25.0,-8.0,0.0
42.0,54.0,-28.0,4.0,0.0,5.0,14.0,27.0,29.0,10.0,0.0
28.0,25.0,-71.0,-34.0,-28.0,-6.0,0.0,21.0,15.0,2.0,0.0
16.0,14.0,-75.0,-43.0,-16.0,-6.0,7.0,4.0,-16.0,-31.0,0.0
-5.0,3.0,-46.0,-1.0,0.0,2.0,3.0,1.0,-31.0,-65.0,0.0
-2.0,9.0,-13.0,35.0,13.0,0.0,27.0,0.0,-59.0,-81.0,0.0
-10.0,-4.0,-36.0,15.0,22.0,2.0,26.0,-3.0,-36.0,-45.0,0.0
-24.0,-32.0,-84.0,-36.0,4.0,-19.0,-2.0,-3.0,-9.0,16.0,0.0
-25.0,-49.0,-107.0,-78.0,-24.0,-37.0,3.0,-2.0,36.0,84.0,0.0
-19.0,-39.0,-76.0,-60.0,-22.0,-27.0,5.0,10.0,35.0,67.0,0.0
-2.0,-26.0,-43.0,-38.0,-7.0,-12.0,6.0,10.0,15.0,31.0,0.0
-3.0,-13.0,-23.0,-32.0,-1.0,-13.0,3.0,-4.0,-2.0,17.0,0.0
-14.0,-14.0,-24.0,-25.0,12.0,-5.0,-17.0,-14.0,-4.0,6.0,0.0
-6.0,-17.0,-37.0,-19.0,8.0,3.0,-6.0,-11.0,6.0,14.0,0.0
-9.0,-26.0,-31.0,-12.0,-1.0,2.0,-14.0,-17.0,15.0,21.0,0.0
-19.0,-32.0,-13.0,16.0,0.0,-2.0,-23.0,-21.0,-6.0,0.0,0.0
-7.0,-9.0,15.0,24.0,-2.0,-5.0,-37.0,-27.0,-16.0,-12.0,0.0
6.0,29.0,38.0,24.0,-7.0,-13.0,-37.0,-13.0,-6.0,-17.0,0.0
-2.0,13.0,50.0,20.0,-6.0,-13.0,-31.0,1.0,8.0,-15.0,0.0
-24.0,-14.0,28.0,0.0,-18.0,-14.0,-2.0,9.0,6.0,-11.0,0.0
-34.0,-22.0,14.0,-14.0,-18.0,-17.0,-3.0,17.0,0.0,-22.0,0.0
-20.0,-13.0,37.0,-6.0,-11.0,-19.0,3.0,13.0,-5.0,-33.0,0.0
-17.0,-11.0,37.0,17.0,2.0,-14.0,2.0,-2.0,-9.0,-23.0,0.0
-33.0,-32.0,23.0,28.0,14.0,0.0,-6.0,0.0,-21.0,-33.0,0.0
-41.0,-44.0,-3.0,13.0,18.0,8.0,-2.0,7.0,-14.0,-42.0,0.0
-30.0,-48.0,-29.0,-10.0,8.0,9.0,5.0,27.0,-2.0,-25.0,0.0
-11.0,-30.0,-21.0,-6.0,2.0,18.0,22.0,49.0,0.0,-14.0,0.0
-2.0,-13.0,-15.0,-19.0,1.0,16.0,11.0,42.0,-18.0,-17.0,0.0
0.0,-20.0,-20.0,-31.0,4.0,8.0,-1.0,28.0,-6.0,-13.0,0.0
11.0,-25.0,4.0,-9.0,8.0,2.0,-19.0,11.0,2.0,5.0,0.0
23.0,-14.0,20.0,15.0,10.0,1.0,-23.0,-3.0,-8.0,14.0,0.0
16.0,-1.0,27.0,29.0,0.0,2.0,-17.0,-6.0,-10.0,13.0,0.0
0.0,5.0,37.0,26.0,0.0,-3.0,-7.0,-7.0,0.0,4.0,0.0
-14.0,0.0,46.0,27.0,3.0,-11.0,0.0,-5.0,-9.0,-2.0,0.0
-18.0,0.0,64.0,31.0,2.0,-10.0,3.0,-11.0,-15.0,-13.0,0.0
-20.0,5.0,83.0,28.0,3.0,-2.0,18.0,-4.0,3.0,-16.0,0.0
-11.0,1.0,84.0,28.0,7.0,0.0,11.0,-2.0,1.0,-42.0,0.0
24.0,36.0,83.0,29.0,4.0,-14.0,-4.0,-18.0,-22.0,-67.0,0.0
33.0,36.0,27.0,13.0,-14.0,-34.0,-20.0,-32.0,-31.0,-80.0,0.0
7.0,9.0,-4.0,33.0,10.0,-12.0,1.0,-29.0,-46.0,-119.0,0.0
-6.0,-13.0,-10.0,35.0,35.0,3.0,5.0,-24.0,-43.0,-86.0,0.0
6.0,-25.0,-45.0,5.0,2.0,-14.0,0.0,-29.0,-12.0,107.0,0.0
25.0,-1.0,-45.0,-7.0,-13.0,-20.0,14.0,-24.0,12.0,118.0,0.0
18.0,8.0,-45.0,-20.0,-21.0,-21.0,10.0,-3.0,26.0,49.0,0.0
-10.0,-26.0,-43.0,-34.0,-28.0,-38.0,20.0,15.0,38.0,35.0,0.0
-30.0,-35.0,-14.0,-2.0,-25.0,-34.0,0.0,9.0,22.0,24.0,0.0
-33.0,-32.0,-21.0,5.0,-20.0,-26.0,1.0,12.0,10.0,18.0,0.0
-21.0,-26.0,-27.0,-15.0,-30.0,-27.0,0.0,12.0,-10.0,13.0,0.0
-7.0,-20.0,-4.0,-6.0,-12.0,-20.0,-11.0,5.0,-17.0,3.0,0.0
6.0,-5.0,0.0,3.0,-13.0,-19.0,-8.0,0.0,-5.0,-13.0,0.0
28.0,22.0,2.0,15.0,-21.0,-17.0,-17.0,-4.0,-11.0,-30.0,0.0
18.0,19.0,14.0,24.0,-16.0,-31.0,-14.0,-3.0,-2.0,-35.0,0.0
17.0,7.0,42.0,36.0,-1.0,-33.0,-8.0,3.0,-6.0,-38.0,0.0
29.0,10.0,87.0,41.0,0.0,-25.0,0.0,6.0,-3.0,-59.0,0.0
21.0,7.0,61.0,19.0,-7.0,-24.0,2.0,0.0,-5.0,-37.0,0.0
-9.0,-40.0,-48.0,-38.0,-37.0,-40.0,-9.0,-15.0,-11.0,98.0,0.0
-14.0,-43.0,-78.0,-41.0,-32.0,-42.0,-19.0,-28.0,-39.0,90.0,0.0
4.0,-2.0,-9.0,-14.0,-21.0,-24.0,-3.0,-18.0,-46.0,24.0,0.0
30.0,35.0,-3.0,-21.0,-13.0,-20.0,0.0,-8.0,-5.0,30.0,0.0
36.0,39.0,-30.0,-10.0,13.0,-3.0,21.0,15.0,42.0,46.0,0.0
19.0,23.0,-26.0,9.0,27.0,8.0,16.0,27.0,16.0,17.0,0.0
13.0,15.0,-24.0,14.0,18.0,-12.0,-1.0,16.0,0.0,17.0,0.0
5.0,5.0,-36.0,15.0,14.0,-20.0,-8.0,9.0,-2.0,16.0,0.0
-7.0,3.0,-26.0,13.0,13.0,-22.0,-20.0,1.0,-1.0,15.0,0.0
-13.0,5.0,8.0,14.0,9.0,-17.0,-18.0,0.0,3.0,12.0,0.0
-12.0,4.0,42.0,16.0,19.0,-16.0,-14.0,0.0,-12.0,5.0,0.0
-5.0,5.0,53.0,12.0,18.0,-13.0,-17.0,2.0,-15.0,-2.0,0.0
6.0,2.0,35.0,7.0,11.0,0.0,-7.0,1.0,-20.0,0.0,0.0
14.0,-1.0,13.0,0.0,10.0,9.0,12.0,3.0,-4.0,5.0,0.0
18.0,3.0,-3.0,-9.0,7.0,12.0,2.0,0.0,-4.0,10.0,0.0
7.0,7.0,-19.0,-18.0,2.0,-4.0,-7.0,-13.0,2.0,1.0,0.0
-8.0,-4.0,-21.0,-15.0,-1.0,-14.0,-20.0,-21.0,-13.0,-7.0,0.0
-29.0,-15.0,-5.0,-1.0,-3.0,-20.0,-30.0,-26.0,-24.0,-19.0,0.0
-30.0,-22.0,5.0,-3.0,-5.0,-32.0,-42.0,-31.0,-41.0,-37.0,0.0
-22.0,-10.0,40.0,-3.0,-6.0,-29.0,-41.0,-33.0,-36.0,-50.0,0.0
-3.0,14.0,92.0,27.0,11.0,-13.0,-43.0,-29.0,-41.0,-36.0,0.0
15.0,27.0,131.0,28.0,22.0,2.0,-40.0,-14.0,-32.0,-15.0,0.0
32.0,43.0,106.0,0.0,21.0,13.0,-12.0,22.0,2.0,11.0,0.0
43.0,28.0,16.0,-26.0,9.0,26.0,41.0,58.0,35.0,43.0,0.0
43.0,0.0,-75.0,-59.0,2.0,40.0,67.0,69.0,53.0,46.0,0.0
39.0,-8.0,-127.0,-94.0,4.0,57.0,51.0,51.0,37.0,25.0,0.0
17.0,-7.0,-114.0,-64.0,15.0,49.0,30.0,28.0,-16.0,-25.0,0.0
-3.0,-24.0,-62.0,12.0,39.0,50.0,32.0,27.0,-37.0,-60.0,0.0
-16.0,-34.0,-37.0,31.0,42.0,53.0,28.0,26.0,-21.0,-82.0,0.0
-14.0,-27.0,-32.0,25.0,40.0,55.0,25.0,14.0,-10.0,-44.0,0.0
-23.0,-28.0,-34.0,15.0,24.0,37.0,13.0,2.0,12.0,18.0,0.0
-38.0,-45.0,-47.0,-18.0,7.0,14.0,1.0,-5.0,10.0,53.0,0.0
-19.0,-32.0,-37.0,-39.0,14.0,22.0,16.0,0.0,19.0,20.0,0.0
-4.0,4.0,-30.0,-37.0,22.0,30.0,8.0,-4.0,28.0,-9.0,0.0
-4.0,17.0,-42.0,-58.0,3.0,8.0,-7.0,-8.0,47.0,63.0,0.0
-10.0,13.0,-23.0,-63.0,-3.0,2.0,-16.0,-10.0,45.0,83.0,0.0
-12.0,7.0,-4.0,-58.0,-5.0,15.0,3.0,-6.0,25.0,37.0,0.0
-16.0,-4.0,-6.0,-37.0,2.0,15.0,9.0,-1.0,30.0,23.0,0.0
-15.0,-7.0,5.0,-16.0,18.0,25.0,8.0,-2.0,19.0,32.0,0.0
-16.0,-8.0,-2.0,3.0,33.0,27.0,13.0,-3.0,5.0,33.0,0.0
-28.0,-23.0,-43.0,8.0,43.0,33.0,9.0,-5.0,2.0,24.0,0.0
-44.0,-30.0,-58.0,0.0,31.0,21.0,22.0,-2.0,9.0,18.0,0.0
-9.0,-7.0,-21.0,23.0,23.0,17.0,24.0,0.0,8.0,13.0,0.0
43.0,39.0,36.0,48.0,26.0,13.0,18.0,-1.0,-11.0,6.0,0.0
17.0,40.0,70.0,35.0,17.0,16.0,26.0,-1.0,-7.0,6.0,0.0
11.0,25.0,95.0,22.0,11.0,10.0,24.0,-9.0,-10.0,11.0,0.0
13.0,17.0,72.0,19.0,-1.0,16.0,3.0,-9.0,-13.0,0.0,0.0
6.0,3.0,28.0,26.0,-6.0,9.0,15.0,-12.0,-23.0,-16.0,0.0
7.0,-11.0,28.0,28.0,-12.0,7.0,24.0,-12.0,-7.0,-26.0,0.0
4.0,-13.0,8.0,28.0,-18.0,5.0,5.0,-19.0,-11.0,-38.0,0.0
-9.0,-2.0,-18.0,32.0,-16.0,-2.0,16.0,-21.0,-22.0,-46.0,0.0
-15.0,3.0,-2.0,12.0,-19.0,-19.0,14.0,-17.0,-24.0,-55.0,0.0
-11.0,4.0,14.0,0.0,-16.0,-24.0,3.0,-18.0,-33.0,-83.0,0.0
-6.0,17.0,31.0,32.0,1.0,-16.0,7.0,-24.0,-51.0,-104.0,0.0
-7.0,22.0,63.0,69.0,12.0,-10.0,-9.0,-21.0,-46.0,-45.0,0.0
-9.0,13.0,73.0,64.0,8.0,-13.0,-29.0,-18.0,-4.0,58.0,0.0
-4.0,-3.0,49.0,48.0,9.0,-12.0,-15.0,-14.0,22.0,62.0,0.0
-11.0,-10.0,2.0,21.0,9.0,-24.0,-2.0,-11.0,0.0,20.0,0.0
2.0,7.0,-25.0,-3.0,-2.0,-27.0,-13.0,-5.0,-26.0,12.0,0.0
16.0,42.0,-14.0,-30.0,-24.0,-24.0,-28.0,1.0,-23.0,14.0,0.0
29.0,53.0,12.0,-40.0,-37.0,-29.0,-19.0,-4.0,-22.0,15.0,0.0
30.0,51.0,30.0,-43.0,-30.0,-22.0,-26.0,-14.0,-17.0,23.0,0.0
21.0,36.0,36.0,-36.0,-11.0,-9.0,-31.0,-10.0,-31.0,6.0,0.0
6.0,29.0,84.0,-11.0,-12.0,1.0,-17.0,-8.0,-23.0,-2.0,0.0
3.0,-1.0,149.0,1.0,-10.0,3.0,-4.0,-1.0,-12.0,4.0,0.0
4.0,0.0,169.0,23.0,-5.0,1.0,-13.0,-8.0,-6.0,5.0,0.0
-4.0,-9.0,17.0,13.0,-22.0,-26.0,-32.0,-27.0,-31.0,-24.0,0.0
-31.0,-41.0,-125.0,-19.0,-41.0,-46.0,-41.0,-25.0,-30.0,-45.0,0.0
-42.0,-54.0,-140.0,-38.0,-33.0,-25.0,-22.0,8.0,-14.0,-44.0,0.0
-44.0,-52.0,-153.0,-73.0,-30.0,-19.0,-15.0,15.0,-13.0,-51.0,0.0
-44.0,-45.0,-142.0,-70.0,-26.0,-34.0,-28.0,0.0,-33.0,-52.0,0.0
-40.0,-32.0,-95.0,-38.0,-5.0,-25.0,-23.0,-7.0,-55.0,-66.0,0.0
-40.0,-29.0,-65.0,-7.0,9.0,-2.0,-29.0,1.0,-49.0,-57.0,0.0
-32.0,-27.0,-21.0,19.0,27.0,-3.0,-31.0,14.0,-15.0,7.0,0.0
-15.0,-4.0,11.0,27.0,36.0,-1.0,-14.0,2.0,-5.0,10.0,0.0
-14.0,18.0,29.0,21.0,36.0,2.0,-1.0,1.0,-3.0,-22.0,0.0
-19.0,17.0,7.0,0.0,36.0,6.0,-5.0,12.0,6.0,-24.0,0.0
-28.0,-12.0,-17.0,-14.0,30.0,12.0,-9.0,20.0,7.0,-28.0,0.0
-22.0,-29.0,-11.0,-5.0,23.0,16.0,-4.0,10.0,-6.0,-54.0,0.0
-26.0,-21.0,-39.0,-15.0,10.0,12.0,-16.0,3.0,-13.0,-72.0,0.0
-27.0,-11.0,-58.0,-18.0,1.0,-2.0,-17.0,4.0,-3.0,37.0,0.0
-19.0,-1.0,-45.0,-21.0,-10.0,2.0,-21.0,6.0,10.0,104.0,0.0
-10.0,10.0,-32.0,-23.0,-10.0,8.0,-11.0,4.0,20.0,49.0,0.0
-6.0,12.0,-24.0,-14.0,-10.0,2.0,-2.0,3.0,2.0,14.0,0.0
-26.0,-12.0,-31.0,-16.0,-16.0,-6.0,-9.0,-2.0,-3.0,-2.0,0.0
-53.0,-29.0,-41.0,0.0,-21.0,-10.0,-6.0,-12.0,7.0,-4.0,0.0
-54.0,-31.0,-33.0,18.0,-17.0,-2.0,-5.0,-29.0,-2.0,-17.0,0.0
-56.0,-22.0,-27.0,23.0,-4.0,0.0,0.0,-29.0,-4.0,-32.0,0.0
-57.0,-11.0,-8.0,23.0,5.0,10.0,0.0,-31.0,-6.0,-32.0,0.0
-38.0,-3.0,35.0,26.0,13.0,9.0,5.0,-26.0,-5.0,-15.0,0.0
-20.0,-6.0,69.0,23.0,11.0,-2.0,-6.0,-21.0,10.0,-9.0,0.0
-15.0,-16.0,59.0,20.0,8.0,6.0,-11.0,-19.0,13.0,-7.0,0.0
-13.0,6.0,39.0,5.0,2.0,12.0,-4.0,-13.0,30.0,-4.0,0.0
-20.0,16.0,10.0,-21.0,0.0,10.0,-22.0,-12.0,27.0,8.0,0.0
-6.0,11.0,-29.0,-52.0,4.0,6.0,-30.0,-15.0,18.0,29.0,0.0
-2.0,10.0,-30.0,-40.0,10.0,7.0,-29.0,-20.0,1.0,10.0,0.0
-5.0,2.0,-21.0,-8.0,5.0,17.0,-29.0,-24.0,-25.0,-4.0,0.0
-5.0,-7.0,-6.0,3.0,-4.0,21.0,-17.0,-17.0,17.0,7.0,0.0
0.0,-2.0,0.0,16.0,5.0,39.0,-10.0,13.0,60.0,23.0,0.0
-9.0,-13.0,-17.0,15.0,8.0,44.0,4.0,12.0,35.0,2.0,0.0
-10.0,-20.0,-53.0,6.0,9.0,35.0,0.0,5.0,22.0,0.0,0.0
13.0,4.0,-44.0,15.0,12.0,43.0,-4.0,4.0,15.0,-6.0,0.0
16.0,24.0,-15.0,17.0,3.0,41.0,-13.0,0.0,10.0,-3.0,0.0
9.0,12.0,22.0,23.0,-2.0,38.0,-17.0,12.0,10.0,1.0,0.0
13.0,-3.0,63.0,18.0,3.0,39.0,-10.0,20.0,11.0,3.0,0.0
27.0,6.0,87.0,14.0,0.0,31.0,-17.0,18.0,7.0,11.0,0.0
35.0,19.0,40.0,19.0,-14.0,14.0,-22.0,5.0,6.0,7.0,0.0
28.0,10.0,0.0,32.0,-19.0,14.0,-18.0,0.0,5.0,-3.0,0.0
18.0,0.0,-3.0,25.0,-6.0,27.0,-18.0,10.0,15.0,0.0,0.0
15.0,-5.0,-21.0,4.0,-1.0,18.0,-26.0,-4.0,6.0,8.0,0.0
6.0,-3.0,-27.0,21.0,-4.0,7.0,-30.0,-10.0,-1.0,18.0,0.0
7.0,-10.0,-49.0,22.0,-13.0,3.0,-35.0,-7.0,13.0,25.0,0.0
20.0,1.0,-48.0,7.0,-18.0,5.0,-23.0,-5.0,29.0,27.0,0.0
7.0,6.0,-26.0,1.0,-21.0,7.0,-26.0,-11.0,18.0,23.0,0.0
-13.0,-9.0,11.0,-3.0,-14.0,2.0,-33.0,-10.0,8.0,19.0,0.0
-22.0,-5.0,36.0,0.0,-7.0,6.0,-21.0,-4.0,3.0,9.0,0.0
-26.0,-6.0,48.0,6.0,-3.0,33.0,-7.0,12.0,0.0,-6.0,0.0
20.0,39.0,53.0,15.0,16.0,47.0,4.0,21.0,0.0,-27.0,0.0
61.0,79.0,38.0,34.0,26.0,49.0,20.0,10.0,-13.0,-47.0,0.0
32.0,49.0,11.0,20.0,14.0,27.0,7.0,-5.0,-8.0,-27.0,0.0
5.0,6.0,-12.0,-39.0,-18.0,0.0,-18.0,3.0,33.0,57.0,0.0
0.0,-3.0,-2.0,-62.0,-17.0,4.0,-23.0,11.0,40.0,62.0,0.0
2.0,0.0,7.0,-51.0,-12.0,5.0,-28.0,12.0,17.0,27.0,0.0
7.0,-6.0,17.0,-29.0,-19.0,5.0,-28.0,-13.0,0.0,5.0,0.0
6.0,-3.0,18.0,-12.0,-19.0,2.0,-29.0,-25.0,-7.0,-14.0,0.0
7.0,8.0,35.0,2.0,-13.0,9.0,-24.0,-22.0,-18.0,-33.0,0.0
-2.0,12.0,51.0,-4.0,-13.0,12.0,-21.0,-25.0,0.0,-6.0,0.0
-4.0,12.0,45.0,-17.0,-13.0,8.0,-25.0,-22.0,31.0,60.0,0.0
3.0,12.0,28.0,-27.0,-10.0,-5.0,-30.0,-17.0,14.0,36.0,0.0
17.0,19.0,0.0,-33.0,-10.0,-8.0,-31.0,-11.0,0.0,14.0,0.0
24.0,39.0,7.0,-34.0,-12.0,-15.0,-11.0,-18.0,-5.0,6.0,0.0
19.0,38.0,31.0,-17.0,-13.0,-10.0,2.0,-16.0,-21.0,-13.0,0.0
7.0,30.0,46.0,-2.0,-14.0,-13.0,-4.0,-14.0,-18.0,-7.0,0.0
2.0,25.0,83.0,3.0,-5.0,-10.0,7.0,-13.0,2.0,-12.0,0.0
12.0,22.0,115.0,18.0,11.0,0.0,5.0,-6.0,-13.0,-39.0,0.0
4.0,12.0,79.0,4.0,-1.0,-4.0,-15.0,-9.0,7.0,-12.0,0.0
8.0,9.0,38.0,-24.0,-16.0,-14.0,-24.0,-14.0,38.0,31.0,0.0
26.0,34.0,18.0,-36.0,-16.0,-13.0,-21.0,-8.0,42.0,55.0,0.0
14.0,36.0,-8.0,-37.0,-13.0,-8.0,-11.0,-3.0,24.0,29.0,0.0
-15.0,-10.0,-58.0,-49.0,-13.0,-8.0,0.0,1.0,10.0,-1.0,0.0
-26.0,-35.0,-84.0,-61.0,-20.0,1.0,1.0,4.0,13.0,-4.0,0.0
-14.0,-35.0,-77.0,-46.0,-6.0,10.0,13.0,-2.0,21.0,-7.0,0.0
0.0,-27.0,-67.0,-40.0,-5.0,14.0,16.0,6.0,21.0,-9.0,0.0
19.0,-12.0,-50.0,-36.0,-8.0,9.0,22.0,26.0,20.0,-30.0,0.0
13.0,1.0,-42.0,-32.0,4.0,19.0,6.0,53.0,-2.0,-55.0,0.0
22.0,9.0,-38.0,-14.0,8.0,26.0,10.0,63.0,-12.0,-78.0,0.0
18.0,15.0,-21.0,1.0,0.0,25.0,14.0,41.0,-30.0,-89.0,0.0
4.0,-7.0,-27.0,-13.0,-19.0,14.0,-8.0,14.0,-39.0,34.0,0.0
-6.0,-9.0,-17.0,-4.0,-21.0,-1.0,-11.0,16.0,-26.0,83.0,0.0
3.0,6.0,12.0,3.0,-10.0,0.0,1.0,19.0,-19.0,38.0,0.0
-2.0,11.0,35.0,-8.0,-14.0,-9.0,-1.0,19.0,0.0,36.0,0.0
-22.0,16.0,37.0,0.0,-21.0,-10.0,-11.0,-7.0,-5.0,32.0,0.0
-15.0,12.0,28.0,2.0,-25.0,-17.0,-19.0,-18.0,-3.0,26.0,0.0
-16.0,-9.0,35.0,11.0,-27.0,-29.0,-28.0,-9.0,-4.0,28.0,0.0
-17.0,-14.0,54.0,37.0,-23.0,-23.0,-25.0,-3.0,-4.0,4.0,0.0
-32.0,-20.0,35.0,56.0,-14.0,-23.0,0.0,0.0,-8.0,-17.0,0.0
-38.0,-22.0,-5.0,53.0,0.0,-29.0,-2.0,-6.0,-10.0,-30.0,0.0
-33.0,-28.0,-9.0,31.0,8.0,-35.0,-17.0,-8.0,-13.0,-31.0,0.0
-16.0,-9.0,-4.0,24.0,2.0,-23.0,-12.0,-3.0,2.0,-14.0,0.0
-10.0,3.0,-11.0,43.0,0.0,-4.0,1.0,-8.0,6.0,-15.0,0.0
3.0,-2.0,-7.0,41.0,0.0,-5.0,5.0,-5.0,7.0,-20.0,0.0
5.0,2.0,8.0,28.0,-4.0,-5.0,3.0,-9.0,12.0,20.0,0.0
-1.0,0.0,9.0,29.0,-9.0,-9.0,10.0,-9.0,0.0,27.0,0.0
-16.0,18.0,-5.0,19.0,-4.0,-14.0,20.0,-1.0,1.0,-3.0,0.0
-14.0,3.0,-41.0,-11.0,-3.0,-10.0,24.0,8.0,17.0,44.0,0.0
-29.0,-26.0,-57.0,-28.0,-2.0,10.0,22.0,20.0,20.0,37.0,0.0
-37.0,-38.0,-72.0,-39.0,15.0,22.0,36.0,23.0,18.0,-1.0,0.0
-26.0,-26.0,-66.0,-16.0,17.0,14.0,44.0,32.0,26.0,-5.0,0.0
-19.0,-13.0,-57.0,18.0,13.0,2.0,36.0,31.0,32.0,-14.0,0.0
-14.0,-21.0,-62.0,38.0,15.0,-1.0,30.0,21.0,3.0,-23.0,0.0
-5.0,-15.0,-39.0,40.0,18.0,1.0,23.0,14.0,-10.0,-1.0,0.0
-3.0,-6.0,-4.0,33.0,16.0,0.0,18.0,6.0,-17.0,5.0,0.0
-2.0,-14.0,10.0,15.0,5.0,7.0,18.0,0.0,-12.0,0.0,0.0
-3.0,-15.0,18.0,-12.0,-3.0,-4.0,12.0,-7.0,-3.0,13.0,0.0
0.0,-13.0,23.0,-32.0,-13.0,-18.0,-5.0,-13.0,-2.0,25.0,0.0
-3.0,-14.0,-13.0,-31.0,-7.0,-30.0,-23.0,-17.0,-3.0,8.0,0.0
4.0,0.0,-63.0,-26.0,-12.0,-30.0,-24.0,-26.0,-15.0,-3.0,0.0
19.0,13.0,-55.0,-23.0,-23.0,-27.0,-25.0,-23.0,-15.0,-4.0,0.0
22.0,1.0,-52.0,-19.0,-20.0,-21.0,-11.0,-1.0,-1.0,0.0,0.0
8.0,-4.0,-46.0,-15.0,-17.0,-13.0,-6.0,11.0,0.0,5.0,0.0
-1.0,-17.0,-47.0,-15.0,-18.0,-7.0,-3.0,5.0,-5.0,9.0,0.0
0.0,-7.0,-27.0,3.0,-9.0,-9.0,1.0,0.0,-10.0,-4.0,0.0
11.0,18.0,-12.0,-3.0,-13.0,-4.0,15.0,-2.0,-10.0,-13.0,0.0
10.0,35.0,-1.0,-11.0,-27.0,0.0,28.0,-2.0,-3.0,-9.0,0.0
1.0,13.0,-1.0,-1.0,-35.0,-3.0,32.0,7.0,-12.0,-16.0,0.0
3.0,-9.0,-14.0,-3.0,-33.0,2.0,18.0,9.0,-11.0,-19.0,0.0
-2.0,-21.0,-22.0,1.0,-19.0,3.0,34.0,11.0,-12.0,-5.0,0.0
-27.0,-34.0,-31.0,17.0,0.0,9.0,43.0,14.0,-9.0,-24.0,0.0
-58.0,-59.0,-45.0,31.0,0.0,28.0,61.0,24.0,9.0,-45.0,0.0
-24.0,-39.0,-34.0,12.0,-8.0,30.0,44.0,26.0,46.0,8.0,0.0
24.0,-12.0,-32.0,-6.0,-4.0,26.0,38.0,22.0,49.0,31.0,0.0
24.0,0.0,-33.0,-16.0,10.0,29.0,43.0,12.0,31.0,-14.0,0.0
13.0,2.0,-28.0,-28.0,10.0,6.0,10.0,6.0,20.0,-22.0,0.0
18.0,3.0,-16.0,-21.0,10.0,5.0,-6.0,6.0,-8.0,-42.0,0.0
30.0,10.0,-15.0,2.0,3.0,-4.0,-24.0,1.0,-38.0,-60.0,0.0
34.0,28.0,2.0,18.0,-8.0,-7.0,-28.0,-3.0,-39.0,-64.0,0.0
33.0,34.0,33.0,26.0,-11.0,-9.0,-36.0,-6.0,-55.0,-79.0,0.0
28.0,31.0,43.0,36.0,-8.0,-10.0,-10.0,-4.0,-50.0,-115.0,0.0
14.0,9.0,23.0,17.0,-19.0,-16.0,-11.0,-5.0,-26.0,19.0,0.0
7.0,-12.0,7.0,-2.0,-38.0,-29.0,-25.0,-13.0,29.0,153.0,0.0
7.0,-22.0,18.0,-3.0,-28.0,-21.0,-11.0,13.0,58.0,124.0,0.0
31.0,3.0,38.0,1.0,-20.0,-13.0,12.0,30.0,42.0,78.0,0.0
41.0,24.0,20.0,-3.0,-18.0,2.0,34.0,35.0,31.0,45.0,0.0
22.0,13.0,-26.0,-30.0,-1.0,23.0,45.0,39.0,39.0,48.0,0.0
-3.0,-5.0,-95.0,-70.0,0.0,23.0,64.0,41.0,46.0,52.0,0.0
-11.0,-10.0,-126.0,-84.0,-4.0,3.0,47.0,34.0,27.0,35.0,0.0
18.0,12.0,-87.0,-59.0,-16.0,-18.0,23.0,14.0,2.0,38.0,0.0
23.0,32.0,-21.0,-31.0,-6.0,-14.0,1.0,-13.0,-40.0,0.0,0.0
12.0,29.0,60.0,-3.0,14.0,5.0,15.0,-16.0,-61.0,-36.0,0.0
26.0,21.0,130.0,0.0,25.0,22.0,18.0,-2.0,-12.0,-20.0,0.0
26.0,9.0,130.0,22.0,30.0,23.0,30.0,12.0,61.0,29.0,0.0
2.0,-12.0,-11.0,41.0,4.0,-6.0,0.0,-20.0,24.0,23.0,0.0
-19.0,-10.0,-96.0,49.0,-17.0,-27.0,-16.0,-41.0,-28.0,-30.0,0.0
-3.0,0.0,-28.0,62.0,-8.0,-22.0,-13.0,-28.0,-22.0,-35.0,0.0
-4.0,14.0,36.0,72.0,-9.0,-20.0,-13.0,-18.0,-17.0,-23.0,0.0
-12.0,21.0,66.0,66.0,-7.0,-29.0,-14.0,-16.0,-18.0,-16.0,0.0
-6.0,28.0,80.0,70.0,1.0,-38.0,-11.0,-25.0,-23.0,-15.0,0.0
-3.0,43.0,88.0,56.0,1.0,-26.0,-10.0,-20.0,-21.0,-14.0,0.0
17.0,46.0,74.0,30.0,6.0,-25.0,6.0,-14.0,-11.0,1.0,0.0
20.0,43.0,20.0,-3.0,2.0,-13.0,13.0,-5.0,11.0,18.0,0.0
14.0,18.0,-32.0,-32.0,3.0,-9.0,14.0,-3.0,18.0,11.0,0.0
3.0,-5.0,-45.0,-54.0,3.0,-7.0,2.0,2.0,9.0,-2.0,0.0
-1.0,5.0,-29.0,-48.0,-3.0,-12.0,-3.0,-5.0,-5.0,-31.0,0.0
4.0,17.0,-21.0,-57.0,-1.0,-15.0,3.0,-13.0,-9.0,-40.0,0.0
-1.0,15.0,-10.0,-72.0,-4.0,-21.0,3.0,-12.0,23.0,1.0,0.0
-23.0,-10.0,-9.0,-36.0,5.0,-11.0,-6.0,-5.0,34.0,11.0,0.0
-19.0,-18.0,-15.0,-18.0,7.0,-7.0,0.0,-2.0,12.0,-13.0,0.0
-5.0,-8.0,-20.0,-27.0,0.0,-9.0,-3.0,-11.0,8.0,-8.0,0.0
-2.0,-4.0,-16.0,-19.0,4.0,1.0,1.0,-9.0,3.0,-8.0,0.0
8.0,13.0,6.0,-29.0,4.0,-11.0,-7.0,-15.0,-7.0,-11.0,0.0
17.0,22.0,16.0,-52.0,-14.0,-18.0,-15.0,-7.0,-24.0,-15.0,0.0
9.0,9.0,-17.0,-50.0,-26.0,-25.0,-18.0,-7.0,-27.0,-19.0,0.0
-3.0,-9.0,-64.0,-29.0,-18.0,-32.0,-27.0,-6.0,-16.0,-19.0,0.0
-18.0,-17.0,-46.0,-21.0,-6.0,-24.0,-24.0,-5.0,-13.0,-12.0,0.0
-3.0,-23.0,-13.0,-19.0,-3.0,-26.0,-22.0,-16.0,-3.0,-5.0,0.0
22.0,22.0,22.0,7.0,-1.0,-34.0,-21.0,-21.0,-16.0,0.0,0.0
15.0,57.0,43.0,30.0,-10.0,-40.0,-14.0,-17.0,-20.0,-7.0,0.0
5.0,44.0,37.0,18.0,-21.0,-46.0,-19.0,-9.0,-8.0,-15.0,0.0
0.0,13.0,31.0,0.0,-11.0,-27.0,-4.0,-4.0,19.0,-8.0,0.0
0.0,-16.0,41.0,4.0,17.0,-4.0,0.0,10.0,23.0,12.0,0.0
10.0,-11.0,53.0,14.0,30.0,6.0,1.0,9.0,8.0,1.0,0.0
13.0,-7.0,10.0,5.0,26.0,8.0,1.0,20.0,10.0,0.0,0.0
4.0,-24.0,-18.0,-7.0,18.0,13.0,-5.0,26.0,12.0,-12.0,0.0
4.0,-22.0,-18.0,2.0,19.0,7.0,-1.0,19.0,-8.0,-29.0,0.0
2.0,-8.0,-38.0,-10.0,0.0,-1.0,-5.0,5.0,11.0,-22.0,0.0
-3.0,-11.0,-53.0,-3.0,-8.0,-8.0,-12.0,-3.0,32.0,5.0,0.0
0.0,-13.0,-37.0,27.0,2.0,-14.0,-27.0,-7.0,35.0,29.0,0.0
-8.0,-9.0,-20.0,33.0,16.0,-6.0,-23.0,-8.0,8.0,6.0,0.0
-23.0,-19.0,-18.0,32.0,20.0,-5.0,-25.0,0.0,-5.0,-23.0,0.0
-30.0,-4.0,-5.0,24.0,24.0,-7.0,-17.0,-4.0,-9.0,-40.0,0.0
-44.0,-10.0,-7.0,15.0,18.0,-10.0,-16.0,0.0,-5.0,-8.0,0.0
-61.0,-31.0,-23.0,3.0,15.0,-19.0,-19.0,13.0,38.0,63.0,0.0
-7.0,4.0,0.0,17.0,23.0,-22.0,-18.0,5.0,19.0,26.0,0.0
29.0,41.0,35.0,32.0,25.0,-3.0,-1.0,1.0,-11.0,-1.0,0.0
23.0,36.0,34.0,35.0,27.0,0.0,4.0,3.0,-29.0,-8.0,0.0
23.0,10.0,24.0,27.0,32.0,-6.0,10.0,0.0,-16.0,-16.0,0.0
19.0,8.0,15.0,13.0,25.0,-9.0,-4.0,-9.0,-6.0,-23.0,0.0
11.0,13.0,11.0,17.0,23.0,-9.0,-24.0,-19.0,-3.0,-19.0,0.0
7.0,21.0,9.0,20.0,26.0,-9.0,-37.0,-18.0,-9.0,-16.0,0.0
-3.0,16.0,44.0,40.0,37.0,-17.0,-15.0,-20.0,5.0,-27.0,0.0
-19.0,9.0,71.0,45.0,36.0,-20.0,-11.0,-19.0,0.0,-40.0,0.0
-20.0,9.0,84.0,47.0,37.0,-9.0,-18.0,-22.0,-14.0,-56.0,0.0
-10.0,2.0,92.0,45.0,41.0,5.0,7.0,-19.0,-13.0,-70.0,0.0
3.0,-8.0,80.0,28.0,47.0,18.0,19.0,-14.0,-12.0,-52.0,0.0
-8.0,-34.0,24.0,7.0,31.0,-6.0,4.0,-24.0,-6.0,67.0,0.0
-17.0,-55.0,-34.0,-10.0,22.0,-14.0,5.0,-18.0,5.0,70.0,0.0
-19.0,-50.0,-80.0,-26.0,15.0,-1.0,15.0,-3.0,7.0,0.0,0.0
-21.0,-42.0,-123.0,-51.0,-1.0,2.0,16.0,-3.0,-13.0,-33.0,0.0
-22.0,-25.0,-116.0,-50.0,6.0,1.0,21.0,-7.0,-12.0,-57.0,0.0
-7.0,1.0,-64.0,-17.0,21.0,23.0,29.0,0.0,-14.0,-76.0,0.0
-3.0,5.0,-33.0,-1.0,23.0,35.0,43.0,0.0,1.0,-55.0,0.0
4.0,-10.0,-37.0,-15.0,-1.0,4.0,15.0,-11.0,60.0,112.0,0.0
6.0,-4.0,-19.0,-15.0,-12.0,-5.0,9.0,-9.0,69.0,160.0,0.0
-1.0,-2.0,-25.0,-5.0,-6.0,1.0,1.0,-13.0,37.0,78.0,0.0
-1.0,5.0,-6.0,12.0,-12.0,-5.0,-8.0,-30.0,14.0,29.0,0.0
2.0,8.0,28.0,34.0,-21.0,-8.0,-14.0,-34.0,-24.0,-14.0,0.0
-4.0,-8.0,34.0,37.0,-16.0,-6.0,-11.0,-34.0,-30.0,-39.0,0.0
11.0,-12.0,37.0,34.0,-9.0,-2.0,0.0,-35.0,6.0,31.0,0.0
12.0,8.0,49.0,25.0,6.0,6.0,19.0,-19.0,11.0,41.0,0.0
16.0,17.0,43.0,0.0,12.0,15.0,28.0,-4.0,9.0,15.0,0.0
39.0,33.0,9.0,-56.0,17.0,32.0,50.0,-1.0,26.0,0.0,0.0
36.0,35.0,-35.0,-89.0,12.0,30.0,50.0,15.0,24.0,-11.0,0.0
8.0,6.0,-66.0,-109.0,-11.0,17.0,26.0,20.0,48.0,49.0,0.0
13.0,-5.0,-64.0,-115.0,-6.0,21.0,28.0,9.0,45.0,44.0,0.0
1.0,-24.0,-46.0,-112.0,-5.0,24.0,27.0,16.0,-5.0,15.0,0.0
0.0,-32.0,-8.0,-98.0,-18.0,22.0,18.0,10.0,-16.0,111.0,0.0
28.0,4.0,45.0,-49.0,2.0,12.0,9.0,0.0,-12.0,71.0,0.0
18.0,24.0,42.0,11.0,14.0,5.0,-1.0,-3.0,25.0,17.0,0.0
6.0,25.0,5.0,31.0,1.0,-5.0,-17.0,-8.0,15.0,7.0,0.0
0.0,16.0,18.0,22.0,-4.0,-7.0,-29.0,-11.0,5.0,6.0,0.0
3.0,13.0,26.0,18.0,0.0,2.0,-19.0,2.0,12.0,11.0,0.0
7.0,2.0,19.0,18.0,0.0,19.0,-9.0,17.0,17.0,16.0,0.0
-7.0,-1.0,5.0,12.0,0.0,26.0,-11.0,13.0,18.0,15.0,0.0
-23.0,-11.0,15.0,9.0,-8.0,28.0,-5.0,17.0,20.0,8.0,0.0
-27.0,-6.0,42.0,23.0,-3.0,18.0,-3.0,24.0,21.0,0.0,0.0
-16.0,-10.0,48.0,14.0,2.0,14.0,-11.0,21.0,21.0,0.0,0.0
-20.0,-21.0,12.0,-2.0,-6.0,3.0,-20.0,9.0,6.0,-12.0,0.0
-43.0,-37.0,-28.0,-7.0,-20.0,-10.0,-19.0,-1.0,-20.0,-26.0,0.0
-28.0,-29.0,6.0,17.0,-16.0,-13.0,-16.0,-9.0,-12.0,-27.0,0.0
-17.0,-13.0,50.0,31.0,-7.0,-7.0,0.0,0.0,-4.0,-13.0,0.0
-15.0,-3.0,44.0,36.0,3.0,-8.0,1.0,3.0,-20.0,-13.0,0.0
-9.0,3.0,50.0,45.0,3.0,-10.0,-3.0,3.0,-26.0,-6.0,0.0
12.0,6.0,45.0,38.0,0.0,-14.0,-11.0,2.0,-24.0,1.0,0.0
21.0,-3.0,12.0,12.0,-9.0,-11.0,-6.0,16.0,-11.0,6.0,0.0
32.0,1.0,-13.0,-2.0,-14.0,-22.0,0.0,24.0,3.0,11.0,0.0
31.0,0.0,-43.0,-5.0,-22.0,-14.0,7.0,28.0,7.0,20.0,0.0
18.0,-12.0,-57.0,-27.0,-16.0,-7.0,4.0,23.0,2.0,19.0,0.0
14.0,-8.0,-53.0,-38.0,-9.0,-3.0,12.0,20.0,-5.0,11.0,0.0
5.0,-7.0,-46.0,-42.0,0.0,1.0,2.0,8.0,-15.0,-6.0,0.0
-9.0,0.0,-4.0,-4.0,5.0,-12.0,-4.0,-9.0,-39.0,-33.0,0.0
-11.0,3.0,40.0,24.0,4.0,-30.0,-14.0,-20.0,-58.0,-42.0,0.0
-35.0,-14.0,31.0,20.0,-17.0,-45.0,-30.0,-13.0,-45.0,-26.0,0.0
-28.0,-19.0,34.0,27.0,-21.0,-42.0,-17.0,-2.0,-51.0,-23.0,0.0
-19.0,-12.0,52.0,37.0,2.0,-25.0,-5.0,6.0,-45.0,-12.0,0.0
-26.0,-15.0,21.0,37.0,11.0,-15.0,-8.0,11.0,-44.0,-4.0,0.0
-36.0,-32.0,-15.0,19.0,11.0,-12.0,-5.0,4.0,-44.0,-4.0,0.0
-25.0,-28.0,-31.0,0.0,0.0,-13.0,5.0,10.0,-32.0,-7.0,0.0
-5.0,-14.0,-28.0,3.0,-3.0,-22.0,10.0,18.0,-30.0,-4.0,0.0
2.0,-7.0,-21.0,9.0,1.0,-22.0,7.0,23.0,-21.0,4.0,0.0
0.0,-8.0,-6.0,13.0,7.0,-17.0,17.0,9.0,-21.0,0.0,0.0
-11.0,-22.0,8.0,32.0,2.0,-1.0,25.0,-5.0,-31.0,-13.0,0.0
-19.0,-12.0,19.0,28.0,-6.0,-4.0,14.0,-12.0,-38.0,-16.0,0.0
-8.0,21.0,44.0,15.0,0.0,-16.0,2.0,-9.0,-23.0,0.0,0.0
3.0,25.0,47.0,15.0,1.0,-18.0,3.0,-9.0,-17.0,13.0,0.0
0.0,0.0,20.0,8.0,4.0,-9.0,9.0,8.0,-6.0,10.0,0.0
-10.0,-15.0,14.0,17.0,15.0,13.0,24.0,23.0,-3.0,0.0,0.0
-25.0,-10.0,9.0,23.0,32.0,26.0,32.0,44.0,-5.0,-15.0,0.0
-45.0,-19.0,-16.0,7.0,33.0,23.0,41.0,38.0,21.0,1.0,0.0
-48.0,-28.0,-43.0,-17.0,22.0,10.0,25.0,43.0,58.0,48.0,0.0
-47.0,-29.0,-32.0,-6.0,21.0,9.0,30.0,28.0,52.0,20.0,0.0
-40.0,-11.0,-1.0,10.0,11.0,-5.0,18.0,14.0,17.0,-5.0,0.0
12.0,34.0,24.0,26.0,14.0,0.0,18.0,1.0,-14.0,-36.0,0.0
40.0,68.0,41.0,36.0,13.0,3.0,19.0,0.0,-21.0,-54.0,0.0
4.0,44.0,59.0,33.0,9.0,-6.0,29.0,6.0,17.0,-35.0,0.0
-3.0,28.0,71.0,38.0,3.0,-16.0,6.0,-2.0,25.0,6.0,0.0
1.0,24.0,60.0,40.0,6.0,-13.0,0.0,2.0,16.0,28.0,0.0
8.0,17.0,28.0,41.0,17.0,-8.0,2.0,-5.0,19.0,11.0,0.0
9.0,12.0,-13.0,29.0,13.0,-11.0,12.0,-20.0,27.0,0.0,0.0
7.0,5.0,-49.0,-6.0,1.0,-17.0,2.0,-25.0,17.0,0.0,0.0
0.0,2.0,-66.0,-1.0,8.0,-3.0,20.0,-29.0,9.0,2.0,0.0
-1.0,14.0,-26.0,15.0,18.0,1.0,19.0,-31.0,7.0,-15.0,0.0
20.0,24.0,0.0,14.0,21.0,2.0,2.0,-22.0,-1.0,-25.0,0.0
33.0,24.0,5.0,26.0,25.0,15.0,-1.0,-11.0,2.0,-19.0,0.0
21.0,35.0,-3.0,25.0,31.0,27.0,27.0,12.0,6.0,-34.0,0.0
21.0,26.0,-11.0,15.0,34.0,38.0,30.0,28.0,0.0,-31.0,0.0
16.0,13.0,-17.0,6.0,37.0,49.0,35.0,42.0,29.0,47.0,0.0
13.0,4.0,1.0,8.0,19.0,38.0,24.0,45.0,46.0,50.0,0.0
8.0,-20.0,36.0,12.0,2.0,15.0,-1.0,24.0,36.0,23.0,0.0
-4.0,-37.0,31.0,14.0,-5.0,-3.0,-10.0,-6.0,13.0,0.0,0.0
-20.0,-49.0,-37.0,17.0,-15.0,-17.0,-34.0,-20.0,-37.0,-38.0,0.0
-30.0,-52.0,-69.0,1.0,-11.0,-18.0,-31.0,-4.0,-59.0,-52.0,0.0
-23.0,-18.0,-15.0,-10.0,0.0,3.0,-5.0,4.0,-62.0,-60.0,0.0
-23.0,-2.0,24.0,-22.0,-4.0,12.0,0.0,12.0,-44.0,-41.0,0.0
-18.0,-10.0,19.0,-53.0,-22.0,0.0,-10.0,3.0,20.0,50.0,0.0
9.0,9.0,42.0,-55.0,-29.0,-13.0,-24.0,0.0,53.0,103.0,0.0
22.0,33.0,47.0,-34.0,-23.0,-2.0,-25.0,1.0,37.0,80.0,0.0
27.0,24.0,-10.0,-38.0,-8.0,14.0,-2.0,14.0,44.0,50.0,0.0
30.0,11.0,-43.0,-24.0,-6.0,21.0,-8.0,22.0,41.0,25.0,0.0
4.0,0.0,-43.0,2.0,-9.0,23.0,-9.0,18.0,21.0,4.0,0.0
-13.0,-6.0,-22.0,4.0,-16.0,20.0,-16.0,19.0,16.0,-9.0,0.0
-3.0,-12.0,10.0,19.0,-8.0,16.0,-15.0,24.0,-1.0,-14.0,0.0
0.0,-13.0,42.0,51.0,10.0,5.0,-10.0,16.0,-14.0,-22.0,0.0
-2.0,-16.0,53.0,66.0,15.0,5.0,-15.0,5.0,-19.0,-22.0,0.0
11.0,7.0,21.0,42.0,-1.0,8.0,-19.0,10.0,-20.0,-12.0,0.0
29.0,29.0,-19.0,-9.0,-9.0,2.0,-20.0,10.0,-15.0,6.0,0.0
36.0,22.0,-44.0,-42.0,-13.0,-2.0,-14.0,8.0,-3.0,9.0,0.0
34.0,23.0,-28.0,-35.0,-22.0,3.0,0.0,7.0,-1.0,8.0,0.0
35.0,33.0,3.0,-20.0,-27.0,14.0,7.0,3.0,-8.0,9.0,0.0
49.0,36.0,12.0,-5.0,-22.0,12.0,4.0,-1.0,-11.0,-2.0,0.0
46.0,35.0,3.0,14.0,-10.0,14.0,-16.0,-3.0,-16.0,-13.0,0.0
35.0,28.0,22.0,30.0,-1.0,12.0,-16.0,0.0,-11.0,-13.0,0.0
27.0,17.0,47.0,44.0,9.0,17.0,2.0,4.0,-13.0,-18.0,0.0
16.0,18.0,39.0,47.0,1.0,14.0,-15.0,3.0,8.0,-15.0,0.0
15.0,15.0,23.0,25.0,-5.0,5.0,-34.0,14.0,12.0,4.0,0.0
19.0,16.0,24.0,-1.0,-8.0,6.0,-23.0,19.0,8.0,2.0,0.0
25.0,10.0,17.0,-43.0,-9.0,22.0,-1.0,21.0,21.0,1.0,0.0
29.0,3.0,22.0,-74.0,-15.0,28.0,10.0,22.0,29.0,12.0,0.0
15.0,-5.0,8.0,-73.0,-13.0,31.0,9.0,20.0,16.0,12.0,0.0
-9.0,-20.0,-13.0,-59.0,-15.0,23.0,7.0,15.0,7.0,-4.0,0.0
-20.0,-22.0,-9.0,-32.0,-11.0,12.0,10.0,5.0,8.0,-9.0,0.0
-3.0,0.0,-6.0,-9.0,8.0,19.0,8.0,-6.0,-11.0,-19.0,0.0
12.0,25.0,-9.0,-6.0,16.0,19.0,20.0,-1.0,-34.0,-47.0,0.0
0.0,19.0,-25.0,7.0,9.0,12.0,14.0,-4.0,-34.0,-55.0,0.0
-11.0,9.0,-28.0,24.0,12.0,1.0,0.0,-6.0,-15.0,-81.0,0.0
-12.0,4.0,-25.0,22.0,8.0,-19.0,-11.0,-10.0,-14.0,-31.0,0.0
-6.0,-4.0,-14.0,10.0,-2.0,-27.0,-11.0,-14.0,-24.0,16.0,0.0
-5.0,8.0,35.0,4.0,-7.0,-19.0,-3.0,-2.0,-37.0,-10.0,0.0
-16.0,0.0,67.0,-10.0,-21.0,-28.0,-14.0,0.0,-10.0,38.0,0.0
-9.0,-10.0,63.0,-3.0,-14.0,-31.0,-10.0,-8.0,6.0,38.0,0.0
19.0,11.0,28.0,-23.0,-7.0,-15.0,17.0,-5.0,15.0,22.0,0.0
44.0,18.0,-31.0,-63.0,-3.0,2.0,32.0,22.0,26.0,53.0,0.0
45.0,1.0,-88.0,-59.0,-1.0,0.0,24.0,34.0,22.0,62.0,0.0
28.0,-5.0,-85.0,-49.0,1.0,3.0,30.0,31.0,26.0,45.0,0.0
17.0,1.0,-61.0,-31.0,17.0,11.0,22.0,28.0,21.0,28.0,0.0
11.0,-8.0,-44.0,-18.0,31.0,15.0,43.0,15.0,14.0,22.0,0.0
10.0,-17.0,-29.0,-28.0,31.0,25.0,36.0,21.0,1.0,15.0,0.0
17.0,-15.0,-21.0,-40.0,20.0,20.0,36.0,12.0,3.0,23.0,0.0
13.0,-9.0,32.0,-7.0,4.0,10.0,20.0,-7.0,-9.0,8.0,0.0
-9.0,-13.0,42.0,39.0,-6.0,-9.0,-18.0,-18.0,-30.0,-13.0,0.0
-18.0,-20.0,16.0,42.0,-17.0,-23.0,-29.0,-19.0,-23.0,-9.0,0.0
-7.0,-28.0,14.0,29.0,-10.0,-33.0,-18.0,-14.0,-9.0,3.0,0.0
0.0,-32.0,2.0,20.0,-12.0,-24.0,-16.0,-9.0,-10.0,9.0,0.0
2.0,-34.0,-23.0,-1.0,-18.0,-22.0,-9.0,4.0,3.0,17.0,0.0
-6.0,-36.0,-61.0,-27.0,-5.0,-16.0,1.0,2.0,0.0,16.0,0.0
-15.0,-58.0,-82.0,-22.0,3.0,-12.0,-2.0,-2.0,5.0,-10.0,0.0
16.0,-37.0,-58.0,-1.0,3.0,-4.0,-6.0,-9.0,2.0,-29.0,0.0
85.0,32.0,-30.0,0.0,-5.0,-1.0,-15.0,-19.0,-6.0,-33.0,0.0
98.0,48.0,-16.0,-21.0,-23.0,-26.0,-26.0,-26.0,-12.0,-20.0,0.0
54.0,22.0,-12.0,-29.0,-34.0,-49.0,-53.0,-28.0,-9.0,-13.0,0.0
15.0,7.0,-7.0,-15.0,-22.0,-42.0,-41.0,-32.0,-15.0,-32.0,0.0
3.0,5.0,8.0,0.0,-1.0,-24.0,-12.0,-25.0,-24.0,-63.0,0.0
4.0,-4.0,21.0,5.0,9.0,-10.0,16.0,-10.0,1.0,-73.0,0.0
10.0,-3.0,20.0,6.0,17.0,5.0,21.0,6.0,28.0,-68.0,0.0
0.0,-5.0,12.0,10.0,21.0,-10.0,5.0,-16.0,18.0,53.0,0.0
-2.0,2.0,18.0,31.0,14.0,-24.0,-12.0,-28.0,6.0,73.0,0.0
11.0,19.0,26.0,37.0,14.0,-33.0,-21.0,-32.0,5.0,25.0,0.0
7.0,30.0,33.0,42.0,22.0,-27.0,-25.0,-36.0,1.0,3.0,0.0
-15.0,4.0,38.0,39.0,31.0,-9.0,-17.0,-32.0,3.0,-3.0,0.0
-14.0,-21.0,24.0,11.0,9.0,-15.0,-3.0,-8.0,20.0,2.0,0.0
3.0,-1.0,20.0,-23.0,8.0,-2.0,6.0,16.0,29.0,8.0,0.0
17.0,23.0,-13.0,-49.0,24.0,9.0,18.0,30.0,37.0,14.0,0.0
27.0,39.0,2.0,-41.0,27.0,9.0,6.0,25.0,21.0,0.0,0.0
26.0,46.0,37.0,-19.0,21.0,8.0,9.0,17.0,6.0,-11.0,0.0
24.0,48.0,66.0,-7.0,18.0,14.0,31.0,21.0,3.0,-12.0,0.0
25.0,42.0,62.0,-33.0,0.0,14.0,29.0,26.0,33.0,39.0,0.0
12.0,2.0,41.0,-52.0,-9.0,12.0,21.0,21.0,54.0,101.0,0.0
-29.0,-42.0,30.0,-26.0,0.0,0.0,4.0,4.0,42.0,83.0,0.0
-62.0,-65.0,-3.0,-7.0,3.0,-8.0,-10.0,-7.0,4.0,21.0,0.0
-57.0,-63.0,-58.0,-11.0,-10.0,-8.0,-17.0,-7.0,-15.0,-16.0,0.0
-27.0,-56.0,-77.0,-55.0,-22.0,0.0,-5.0,-12.0,-3.0,-5.0,0.0
-25.0,-45.0,-75.0,-87.0,-20.0,1.0,4.0,-8.0,0.0,4.0,0.0
-19.0,-31.0,-44.0,-67.0,-26.0,-3.0,8.0,-3.0,-2.0,-2.0,0.0
-13.0,-21.0,-19.0,-36.0,-29.0,-16.0,8.0,-7.0,-6.0,-6.0,0.0
-6.0,-8.0,-9.0,-15.0,-31.0,-13.0,12.0,4.0,0.0,-1.0,0.0
-1.0,-6.0,6.0,-7.0,-22.0,0.0,20.0,14.0,1.0,2.0,0.0
-8.0,1.0,-2.0,-4.0,-16.0,8.0,31.0,14.0,5.0,-33.0,0.0
-11.0,12.0,7.0,0.0,-18.0,16.0,37.0,15.0,2.0,-80.0,0.0
-5.0,16.0,28.0,0.0,-3.0,20.0,31.0,18.0,-25.0,-119.0,0.0
10.0,24.0,40.0,13.0,9.0,28.0,23.0,14.0,-74.0,-175.0,0.0
11.0,20.0,39.0,0.0,-1.0,26.0,34.0,26.0,-66.0,-186.0,0.0
0.0,-3.0,19.0,-47.0,-20.0,11.0,12.0,26.0,-10.0,7.0,0.0
-8.0,-25.0,0.0,-39.0,-33.0,-18.0,-4.0,2.0,27.0,175.0,0.0
-7.0,-24.0,22.0,1.0,-28.0,-24.0,-16.0,-5.0,40.0,159.0,0.0
-3.0,-1.0,41.0,7.0,-1.0,-1.0,5.0,-6.0,30.0,78.0,0.0
-8.0,-1.0,32.0,13.0,7.0,13.0,5.0,0.0,3.0,26.0,0.0
-3.0,-14.0,11.0,17.0,6.0,14.0,9.0,2.0,-3.0,20.0,0.0
12.0,0.0,15.0,3.0,0.0,1.0,0.0,0.0,7.0,41.0,0.0
19.0,14.0,19.0,-3.0,0.0,7.0,11.0,-1.0,11.0,42.0,0.0
25.0,7.0,13.0,-1.0,13.0,8.0,9.0,1.0,0.0,23.0,0.0
14.0,-2.0,15.0,-11.0,12.0,10.0,16.0,2.0,0.0,1.0,0.0
2.0,-1.0,21.0,-21.0,7.0,23.0,8.0,14.0,7.0,-1.0,0.0
5.0,-10.0,21.0,-46.0,1.0,19.0,20.0,22.0,12.0,10.0,0.0
12.0,-10.0,10.0,-53.0,1.0,3.0,5.0,12.0,-4.0,9.0,0.0
22.0,5.0,1.0,-39.0,-6.0,-5.0,-1.0,6.0,-14.0,15.0,0.0
32.0,7.0,7.0,-29.0,-16.0,-10.0,-3.0,5.0,-11.0,20.0,0.0
30.0,7.0,25.0,-24.0,-8.0,-4.0,0.0,8.0,-9.0,8.0,0.0
28.0,13.0,36.0,0.0,-2.0,-3.0,10.0,0.0,2.0,-7.0,0.0
14.0,21.0,42.0,26.0,14.0,-3.0,7.0,-13.0,-18.0,-19.0,0.0
1.0,25.0,45.0,43.0,9.0,-9.0,-1.0,-17.0,-18.0,-9.0,0.0
15.0,30.0,48.0,37.0,1.0,-15.0,-12.0,-27.0,-9.0,0.0,0.0
30.0,56.0,32.0,26.0,8.0,-11.0,-14.0,-20.0,-12.0,-4.0,0.0
46.0,61.0,25.0,20.0,7.0,-1.0,8.0,-11.0,-11.0,13.0,0.0
44.0,42.0,15.0,20.0,10.0,1.0,9.0,-7.0,6.0,43.0,0.0
25.0,26.0,-15.0,14.0,11.0,21.0,5.0,3.0,22.0,5.0,0.0
21.0,11.0,-25.0,8.0,19.0,33.0,15.0,11.0,5.0,-33.0,0.0
11.0,16.0,-25.0,8.0,8.0,26.0,11.0,7.0,-11.0,-39.0,0.0
-10.0,-6.0,-38.0,3.0,-1.0,23.0,9.0,8.0,-2.0,-42.0,0.0
-33.0,-18.0,-54.0,-6.0,-1.0,8.0,8.0,10.0,-8.0,-46.0,0.0
-43.0,-17.0,-48.0,-19.0,-12.0,-13.0,9.0,-8.0,8.0,2.0,0.0
-55.0,-23.0,-49.0,-9.0,-7.0,-22.0,-4.0,-13.0,26.0,29.0,0.0
-57.0,-36.0,-40.0,-13.0,-16.0,-7.0,-5.0,-11.0,29.0,-12.0,0.0
2.0,16.0,1.0,-11.0,-6.0,3.0,-6.0,-16.0,8.0,-42.0,0.0
32.0,57.0,30.0,3.0,10.0,0.0,4.0,-3.0,-8.0,-45.0,0.0
2.0,37.0,47.0,21.0,18.0,9.0,-6.0,0.0,-12.0,-43.0,0.0
0.0,39.0,80.0,38.0,21.0,12.0,-6.0,1.0,-13.0,-40.0,0.0
-10.0,40.0,86.0,43.0,16.0,8.0,-7.0,2.0,-24.0,-47.0,0.0
-5.0,38.0,79.0,52.0,16.0,9.0,0.0,-1.0,-25.0,-33.0,0.0
4.0,26.0,30.0,42.0,17.0,12.0,5.0,4.0,-5.0,-16.0,0.0
-5.0,22.0,-16.0,23.0,6.0,0.0,12.0,14.0,-2.0,-15.0,0.0
-15.0,11.0,-37.0,-1.0,0.0,-10.0,-8.0,12.0,-12.0,-16.0,0.0
-11.0,1.0,-59.0,-37.0,-1.0,-21.0,-6.0,4.0,-3.0,-11.0,0.0
8.0,16.0,-43.0,-43.0,0.0,-21.0,-5.0,6.0,-5.0,-11.0,0.0
22.0,33.0,-26.0,-41.0,-7.0,-10.0,-1.0,13.0,7.0,-8.0,0.0
39.0,45.0,-16.0,-43.0,-22.0,-1.0,0.0,23.0,12.0,-14.0,0.0
34.0,35.0,-14.0,-46.0,-23.0,9.0,18.0,38.0,11.0,-24.0,0.0
26.0,31.0,10.0,-41.0,-24.0,13.0,15.0,40.0,18.0,-8.0,0.0
11.0,17.0,38.0,-36.0,-26.0,14.0,17.0,29.0,20.0,-19.0,0.0
14.0,-7.0,22.0,-31.0,-25.0,3.0,4.0,7.0,9.0,-18.0,0.0
3.0,-28.0,-69.0,-19.0,-21.0,2.0,2.0,1.0,-14.0,-53.0,0.0
-15.0,-38.0,-92.0,-24.0,-15.0,11.0,0.0,0.0,-56.0,-65.0,0.0
-24.0,-31.0,-77.0,-32.0,-22.0,5.0,-21.0,-14.0,-36.0,-2.0,0.0
-5.0,-3.0,-33.0,-16.0,-13.0,10.0,-10.0,-4.0,24.0,8.0,0.0
-12.0,6.0,26.0,13.0,4.0,23.0,-3.0,-2.0,20.0,2.0,0.0
-19.0,12.0,83.0,57.0,12.0,17.0,-10.0,-13.0,-5.0,-9.0,0.0
4.0,50.0,129.0,78.0,20.0,13.0,-19.0,-12.0,2.0,-27.0,0.0
32.0,82.0,134.0,52.0,20.0,2.0,-18.0,-11.0,8.0,-21.0,0.0
22.0,44.0,72.0,6.0,-2.0,-9.0,-24.0,-6.0,24.0,3.0,0.0
10.0,16.0,12.0,-14.0,8.0,14.0,-9.0,11.0,28.0,3.0,0.0
-8.0,-4.0,-20.0,-10.0,31.0,34.0,2.0,22.0,16.0,-16.0,0.0
-23.0,-9.0,-12.0,11.0,46.0,21.0,-1.0,4.0,5.0,-30.0,0.0
-15.0,-7.0,-15.0,17.0,43.0,14.0,-11.0,-16.0,-7.0,-32.0,0.0
-2.0,1.0,-35.0,4.0,33.0,3.0,-9.0,-11.0,-7.0,-12.0,0.0
2.0,8.0,-45.0,-5.0,21.0,-12.0,-7.0,-3.0,12.0,25.0,0.0
2.0,9.0,-48.0,0.0,23.0,-8.0,5.0,4.0,23.0,35.0,0.0
-9.0,1.0,-36.0,13.0,25.0,-3.0,8.0,9.0,12.0,31.0,0.0
1.0,-1.0,0.0,28.0,26.0,-12.0,9.0,-7.0,3.0,25.0,0.0
24.0,13.0,27.0,35.0,17.0,-28.0,-6.0,-18.0,4.0,15.0,0.0
19.0,14.0,18.0,30.0,10.0,-29.0,-6.0,-15.0,0.0,11.0,0.0
4.0,20.0,18.0,26.0,12.0,-20.0,0.0,-6.0,-16.0,-15.0,0.0
-13.0,5.0,3.0,34.0,12.0,-12.0,10.0,3.0,-4.0,-22.0,0.0
-9.0,0.0,-9.0,26.0,12.0,-9.0,3.0,-1.0,10.0,-16.0,0.0
-11.0,2.0,-17.0,23.0,11.0,2.0,13.0,-1.0,8.0,-26.0,0.0
-26.0,-1.0,-45.0,2.0,21.0,15.0,24.0,16.0,0.0,-62.0,0.0
-27.0,0.0,-56.0,-16.0,6.0,23.0,28.0,26.0,23.0,29.0,0.0
-14.0,8.0,-19.0,-15.0,-13.0,15.0,30.0,26.0,29.0,112.0,0.0
-16.0,14.0,15.0,0.0,-7.0,11.0,7.0,12.0,14.0,36.0,0.0
-17.0,13.0,26.0,2.0,-11.0,1.0,8.0,-3.0,10.0,-7.0,0.0
-18.0,-1.0,22.0,12.0,-11.0,0.0,0.0,-7.0,10.0,-25.0,0.0
-28.0,-5.0,30.0,21.0,7.0,7.0,0.0,3.0,4.0,-39.0,0.0
-20.0,9.0,31.0,40.0,20.0,10.0,4.0,3.0,-24.0,-59.0,0.0
-12.0,13.0,32.0,48.0,25.0,16.0,8.0,-9.0,-38.0,-34.0,0.0
-18.0,-17.0,-3.0,31.0,20.0,12.0,-8.0,-7.0,16.0,59.0,0.0
-8.0,-26.0,-19.0,20.0,16.0,8.0,-6.0,7.0,52.0,82.0,0.0
9.0,0.0,7.0,26.0,18.0,9.0,1.0,18.0,22.0,41.0,0.0
26.0,21.0,26.0,19.0,15.0,8.0,-10.0,6.0,-3.0,20.0,0.0
24.0,21.0,35.0,22.0,20.0,6.0,-8.0,13.0,-7.0,0.0,0.0
6.0,6.0,31.0,34.0,40.0,18.0,6.0,12.0,-2.0,-27.0,0.0
-11.0,-15.0,37.0,32.0,37.0,17.0,7.0,14.0,19.0,-4.0,0.0
-6.0,-14.0,39.0,39.0,21.0,13.0,5.0,-1.0,40.0,48.0,0.0
15.0,16.0,40.0,36.0,18.0,15.0,9.0,-12.0,24.0,28.0,0.0
30.0,35.0,40.0,15.0,2.0,2.0,7.0,-16.0,10.0,-5.0,0.0
12.0,20.0,34.0,0.0,-7.0,-1.0,13.0,-18.0,9.0,-20.0,0.0
2.0,13.0,38.0,11.0,-4.0,21.0,0.0,-12.0,-11.0,-35.0,0.0
5.0,-2.0,11.0,7.0,-13.0,14.0,4.0,0.0,-19.0,-5.0,0.0
8.0,-23.0,-24.0,-6.0,-17.0,-4.0,-5.0,3.0,27.0,78.0,0.0
1.0,-36.0,-48.0,-23.0,-15.0,-16.0,-5.0,-5.0,36.0,65.0,0.0
-2.0,-28.0,-50.0,-33.0,-17.0,-5.0,-6.0,3.0,12.0,41.0,0.0
3.0,-21.0,-16.0,-25.0,0.0,6.0,0.0,8.0,-17.0,3.0,0.0
2.0,-2.0,25.0,-4.0,9.0,9.0,-6.0,0.0,-31.0,-47.0,0.0
0.0,-7.0,22.0,4.0,8.0,-4.0,-21.0,2.0,-8.0,-7.0,0.0
3.0,-20.0,9.0,0.0,1.0,-9.0,-16.0,8.0,-2.0,31.0,0.0
-1.0,-17.0,-8.0,-23.0,-8.0,-1.0,-1.0,9.0,-6.0,8.0,0.0
-3.0,-21.0,-11.0,-35.0,-11.0,0.0,-12.0,4.0,13.0,29.0,0.0
18.0,0.0,9.0,-25.0,0.0,5.0,-18.0,-3.0,18.0,69.0,0.0
64.0,43.0,41.0,-17.0,8.0,-5.0,-29.0,-9.0,-2.0,48.0,0.0
62.0,44.0,47.0,-3.0,14.0,-10.0,-23.0,-2.0,-15.0,27.0,0.0
30.0,25.0,55.0,6.0,7.0,-9.0,-12.0,-9.0,-37.0,-2.0,0.0
9.0,19.0,58.0,41.0,7.0,-11.0,-9.0,-12.0,-33.0,-32.0,0.0
-3.0,8.0,78.0,53.0,6.0,-9.0,-8.0,-5.0,-14.0,-31.0,0.0
-1.0,4.0,65.0,58.0,4.0,0.0,-3.0,-4.0,9.0,-37.0,0.0
0.0,1.0,-12.0,27.0,2.0,-9.0,-1.0,-5.0,-2.0,-51.0,0.0
-17.0,-19.0,-115.0,-32.0,-10.0,-38.0,-34.0,-23.0,2.0,-3.0,0.0
-20.0,-38.0,-145.0,-43.0,-25.0,-54.0,-45.0,-33.0,5.0,15.0,0.0
-20.0,-37.0,-93.0,-19.0,-14.0,-35.0,-23.0,-19.0,2.0,4.0,0.0
-12.0,-27.0,-53.0,-1.0,0.0,-19.0,-4.0,-2.0,6.0,4.0,0.0
-7.0,-9.0,-3.0,11.0,3.0,-6.0,5.0,-2.0,12.0,-3.0,0.0
4.0,3.0,36.0,32.0,5.0,1.0,6.0,6.0,18.0,-8.0,0.0
31.0,6.0,22.0,45.0,15.0,25.0,17.0,32.0,39.0,18.0,0.0
41.0,7.0,-21.0,33.0,30.0,46.0,27.0,47.0,50.0,29.0,0.0
26.0,-3.0,-8.0,16.0,31.0,37.0,36.0,41.0,43.0,28.0,0.0
9.0,-19.0,10.0,-3.0,13.0,41.0,22.0,33.0,25.0,16.0,0.0
19.0,-9.0,16.0,0.0,12.0,27.0,16.0,19.0,12.0,5.0,0.0
36.0,15.0,-4.0,14.0,13.0,25.0,-11.0,-3.0,-1.0,-4.0,0.0
42.0,22.0,-9.0,47.0,23.0,12.0,-7.0,-10.0,-1.0,-13.0,0.0
25.0,15.0,7.0,39.0,10.0,10.0,-18.0,1.0,3.0,-4.0,0.0
22.0,0.0,-4.0,20.0,6.0,11.0,-15.0,19.0,7.0,2.0,0.0
15.0,-13.0,-26.0,-9.0,1.0,9.0,-14.0,14.0,15.0,0.0,0.0
14.0,-14.0,-29.0,-39.0,-11.0,4.0,-18.0,-5.0,13.0,-6.0,0.0
20.0,0.0,-12.0,-30.0,-4.0,0.0,-20.0,-9.0,3.0,-6.0,0.0
16.0,21.0,1.0,1.0,2.0,0.0,-25.0,-11.0,-10.0,-8.0,0.0
2.0,24.0,18.0,10.0,-1.0,5.0,-26.0,-10.0,-6.0,3.0,0.0
0.0,23.0,25.0,4.0,0.0,10.0,-15.0,-9.0,5.0,11.0,0.0
14.0,32.0,24.0,0.0,2.0,7.0,-26.0,-17.0,6.0,5.0,0.0
22.0,26.0,14.0,2.0,5.0,-6.0,-42.0,-7.0,4.0,5.0,0.0
20.0,13.0,0.0,6.0,6.0,-10.0,-40.0,6.0,17.0,28.0,0.0
14.0,15.0,-7.0,4.0,1.0,-3.0,-29.0,5.0,20.0,31.0,0.0
2.0,3.0,-4.0,17.0,11.0,2.0,-23.0,-10.0,14.0,20.0,0.0
-7.0,-7.0,7.0,36.0,25.0,8.0,-11.0,-3.0,1.0,25.0,0.0
-5.0,-25.0,15.0,53.0,28.0,13.0,-14.0,12.0,-5.0,28.0,0.0
-22.0,-37.0,10.0,55.0,32.0,21.0,-18.0,22.0,-1.0,23.0,0.0
-27.0,-32.0,-3.0,49.0,29.0,9.0,-9.0,31.0,-4.0,9.0,0.0
-14.0,-30.0,-28.0,38.0,15.0,8.0,-9.0,22.0,-6.0,-16.0,0.0
0.0,-35.0,-30.0,38.0,4.0,10.0,-20.0,12.0,-11.0,-37.0,0.0
2.0,-7.0,-3.0,43.0,2.0,-9.0,-32.0,-4.0,-8.0,-39.0,0.0
15.0,22.0,33.0,50.0,-11.0,-13.0,-35.0,-19.0,2.0,-14.0,0.0
6.0,8.0,34.0,59.0,-15.0,-8.0,-32.0,-20.0,12.0,16.0,0.0
-2.0,-11.0,5.0,57.0,-7.0,-3.0,-27.0,-16.0,11.0,32.0,0.0
-10.0,0.0,-4.0,41.0,0.0,10.0,-6.0,-3.0,-5.0,30.0,0.0
11.0,21.0,-20.0,16.0,20.0,18.0,15.0,17.0,-25.0,17.0,0.0
22.0,22.0,-43.0,0.0,37.0,16.0,25.0,28.0,-7.0,22.0,0.0
20.0,22.0,-19.0,8.0,53.0,7.0,32.0,43.0,40.0,31.0,0.0
15.0,19.0,0.0,21.0,51.0,12.0,19.0,43.0,15.0,17.0,0.0
11.0,10.0,15.0,24.0,46.0,11.0,17.0,21.0,-6.0,17.0,0.0
5.0,5.0,29.0,8.0,23.0,5.0,6.0,3.0,-2.0,13.0,0.0
-5.0,18.0,27.0,5.0,11.0,-3.0,16.0,5.0,-1.0,-1.0,0.0
1.0,30.0,33.0,-2.0,12.0,-16.0,16.0,2.0,-18.0,-13.0,0.0
22.0,48.0,38.0,-4.0,10.0,-26.0,17.0,7.0,-31.0,-12.0,0.0
29.0,56.0,35.0,-6.0,3.0,-28.0,14.0,6.0,-9.0,-18.0,0.0
18.0,40.0,32.0,3.0,12.0,-21.0,12.0,1.0,-9.0,-28.0,0.0
6.0,21.0,15.0,23.0,18.0,-1.0,15.0,2.0,-8.0,-7.0,0.0
1.0,-12.0,2.0,18.0,24.0,0.0,11.0,18.0,10.0,20.0,0.0
-1.0,-17.0,0.0,23.0,17.0,0.0,33.0,32.0,5.0,-29.0,0.0
19.0,3.0,3.0,23.0,26.0,7.0,40.0,38.0,-9.0,-81.0,0.0
19.0,14.0,-12.0,14.0,35.0,17.0,33.0,41.0,-33.0,-119.0,0.0
-17.0,-17.0,-72.0,-22.0,0.0,0.0,7.0,37.0,-11.0,-44.0,0.0
-38.0,-57.0,-121.0,-60.0,-33.0,-18.0,-12.0,29.0,33.0,156.0,0.0
-16.0,-36.0,-93.0,-61.0,-41.0,-23.0,-17.0,21.0,54.0,155.0,0.0
32.0,5.0,-36.0,-41.0,-25.0,-11.0,7.0,14.0,39.0,80.0,0.0
46.0,14.0,16.0,-13.0,-10.0,0.0,18.0,20.0,10.0,26.0,0.0
34.0,6.0,49.0,12.0,0.0,5.0,20.0,24.0,-1.0,-5.0,0.0
20.0,-11.0,34.0,24.0,-11.0,-8.0,-4.0,4.0,1.0,106.0,0.0
8.0,-11.0,-17.0,27.0,-23.0,-16.0,-5.0,-9.0,-1.0,129.0,0.0
1.0,-9.0,-25.0,21.0,-12.0,-3.0,-4.0,12.0,-1.0,54.0,0.0
-10.0,-37.0,-33.0,27.0,-9.0,-4.0,-9.0,21.0,15.0,33.0,0.0
-19.0,-37.0,-33.0,26.0,-20.0,-11.0,-14.0,23.0,26.0,25.0,0.0
-4.0,-7.0,3.0,20.0,-13.0,-3.0,-8.0,10.0,23.0,23.0,0.0
3.0,0.0,23.0,8.0,-12.0,-13.0,9.0,8.0,11.0,3.0,0.0
-6.0,-9.0,26.0,9.0,-7.0,-14.0,6.0,0.0,4.0,-21.0,0.0
-22.0,-6.0,48.0,29.0,7.0,-4.0,28.0,-7.0,2.0,-34.0,0.0
-19.0,1.0,65.0,44.0,0.0,-2.0,23.0,-8.0,0.0,-40.0,0.0
-12.0,25.0,63.0,46.0,-3.0,4.0,8.0,-7.0,-3.0,-51.0,0.0
-15.0,27.0,29.0,40.0,0.0,1.0,-12.0,-2.0,15.0,-32.0,0.0
-32.0,-19.0,-45.0,17.0,5.0,-4.0,-16.0,11.0,54.0,42.0,0.0
-36.0,-64.0,-133.0,-37.0,2.0,-11.0,-18.0,4.0,49.0,49.0,0.0
0.0,-42.0,-134.0,-55.0,14.0,-7.0,-22.0,-12.0,28.0,5.0,0.0
40.0,0.0,-77.0,-32.0,31.0,-1.0,-22.0,-11.0,-3.0,10.0,0.0
28.0,2.0,-46.0,-21.0,29.0,5.0,-15.0,-10.0,0.0,11.0,0.0
19.0,-4.0,-37.0,-23.0,17.0,5.0,-14.0,-1.0,0.0,17.0,0.0
15.0,5.0,-29.0,-19.0,30.0,8.0,-12.0,1.0,-4.0,9.0,0.0
11.0,12.0,-18.0,-9.0,37.0,4.0,1.0,8.0,-5.0,-15.0,0.0
8.0,4.0,-12.0,-14.0,20.0,-11.0,5.0,6.0,-17.0,-24.0,0.0
5.0,18.0,-8.0,-10.0,1.0,-11.0,13.0,-4.0,-17.0,-32.0,0.0
7.0,21.0,6.0,0.0,-4.0,-6.0,21.0,0.0,-12.0,-36.0,0.0
2.0,8.0,12.0,-6.0,2.0,1.0,35.0,18.0,-10.0,-43.0,0.0
-2.0,3.0,2.0,-1.0,2.0,2.0,29.0,5.0,-17.0,-44.0,0.0
-15.0,7.0,-26.0,37.0,6.0,-6.0,14.0,2.0,-43.0,-59.0,0.0
-33.0,-12.0,-51.0,68.0,17.0,-9.0,6.0,-12.0,-56.0,-80.0,0.0
-36.0,-38.0,-64.0,56.0,20.0,-21.0,-3.0,-33.0,-28.0,-36.0,0.0
-24.0,-40.0,-35.0,50.0,5.0,-32.0,-15.0,-56.0,10.0,61.0,0.0
-15.0,-23.0,0.0,56.0,14.0,-16.0,-15.0,-42.0,-2.0,51.0,0.0
-5.0,-28.0,0.0,40.0,19.0,-14.0,-10.0,-26.0,-5.0,26.0,0.0
0.0,-22.0,6.0,24.0,3.0,-3.0,9.0,-12.0,13.0,28.0,0.0
23.0,5.0,28.0,10.0,5.0,18.0,32.0,-9.0,24.0,4.0,0.0
38.0,29.0,31.0,-15.0,15.0,27.0,39.0,6.0,29.0,-10.0,0.0
26.0,16.0,16.0,-27.0,6.0,31.0,29.0,16.0,29.0,2.0,0.0
14.0,11.0,3.0,-7.0,-2.0,26.0,25.0,3.0,2.0,-8.0,0.0
-4.0,-2.0,-14.0,18.0,-1.0,13.0,10.0,-17.0,-29.0,-34.0,0.0
-20.0,-4.0,-20.0,18.0,7.0,6.0,2.0,-35.0,-5.0,-16.0,0.0
-6.0,14.0,16.0,10.0,0.0,-4.0,-14.0,-40.0,34.0,69.0,0.0
7.0,30.0,47.0,11.0,-4.0,2.0,-13.0,-35.0,40.0,41.0,0.0
19.0,34.0,40.0,8.0,-1.0,6.0,-8.0,-23.0,42.0,11.0,0.0
19.0,39.0,29.0,0.0,-4.0,1.0,-12.0,-13.0,37.0,3.0,0.0
29.0,34.0,29.0,0.0,10.0,13.0,3.0,-13.0,15.0,6.0,0.0
26.0,22.0,0.0,-22.0,24.0,24.0,7.0,-5.0,12.0,24.0,0.0
13.0,-1.0,-14.0,-18.0,27.0,28.0,-2.0,-5.0,16.0,15.0,0.0
4.0,-16.0,20.0,17.0,24.0,16.0,-17.0,-5.0,22.0,6.0,0.0
0.0,-16.0,26.0,25.0,3.0,5.0,-19.0,-7.0,29.0,-3.0,0.0
-2.0,-11.0,25.0,13.0,-8.0,7.0,-7.0,-12.0,26.0,-11.0,0.0
-5.0,14.0,22.0,0.0,-13.0,6.0,17.0,-8.0,22.0,-1.0,0.0
-13.0,19.0,36.0,-5.0,-16.0,0.0,14.0,-17.0,11.0,-6.0,0.0
-24.0,-6.0,40.0,9.0,-10.0,3.0,-5.0,-17.0,-3.0,-25.0,0.0
-22.0,-28.0,20.0,27.0,5.0,13.0,-13.0,-17.0,-4.0,-29.0,0.0
-18.0,-25.0,0.0,27.0,3.0,24.0,0.0,-10.0,1.0,-6.0,0.0
5.0,-9.0,-11.0,-1.0,-5.0,32.0,10.0,13.0,22.0,13.0,0.0
37.0,6.0,-29.0,-10.0,2.0,33.0,3.0,17.0,11.0,24.0,0.0
22.0,6.0,-33.0,-2.0,16.0,17.0,2.0,7.0,6.0,28.0,0.0
-8.0,-4.0,-17.0,8.0,26.0,13.0,3.0,-9.0,3.0,17.0,0.0
-10.0,-2.0,-5.0,11.0,20.0,10.0,-7.0,-5.0,-2.0,13.0,0.0
-1.0,1.0,0.0,11.0,16.0,1.0,-10.0,-5.0,-3.0,10.0,0.0
9.0,4.0,15.0,16.0,2.0,1.0,-9.0,-19.0,2.0,21.0,0.0
-3.0,-25.0,6.0,0.0,-7.0,15.0,-1.0,-25.0,22.0,38.0,0.0
-24.0,-51.0,-38.0,-35.0,-19.0,13.0,-9.0,-25.0,44.0,34.0,0.0
-42.0,-52.0,-47.0,-56.0,-27.0,4.0,-14.0,-19.0,50.0,36.0,0.0
-42.0,-27.0,-36.0,-49.0,-18.0,14.0,-4.0,-15.0,31.0,21.0,0.0
-16.0,-2.0,-39.0,-39.0,-6.0,23.0,12.0,-12.0,22.0,4.0,0.0
27.0,20.0,-13.0,-23.0,-8.0,14.0,6.0,-20.0,-4.0,-2.0,0.0
39.0,30.0,33.0,20.0,-12.0,2.0,-29.0,-28.0,-21.0,-5.0,0.0
7.0,3.0,43.0,33.0,-8.0,-2.0,-46.0,-26.0,-19.0,-4.0,0.0
-26.0,-26.0,46.0,20.0,-5.0,2.0,-40.0,-29.0,-35.0,-8.0,0.0
-53.0,-32.0,57.0,10.0,0.0,0.0,-24.0,-17.0,-27.0,-3.0,0.0
-51.0,-25.0,70.0,18.0,-1.0,0.0,-17.0,-18.0,-35.0,-7.0,0.0
-45.0,-27.0,18.0,19.0,-11.0,-11.0,-19.0,-37.0,-61.0,-39.0,0.0
-49.0,-22.0,9.0,5.0,-16.0,-27.0,-28.0,-42.0,-62.0,-59.0,0.0
-35.0,-2.0,26.0,-24.0,-22.0,-33.0,-24.0,-32.0,-59.0,-37.0,0.0
-28.0,18.0,57.0,-23.0,-20.0,-29.0,-2.0,-23.0,-52.0,-30.0,0.0
-33.0,16.0,64.0,-2.0,-35.0,-31.0,1.0,-19.0,-43.0,13.0,0.0
-34.0,1.0,11.0,-3.0,-23.0,-30.0,10.0,-9.0,6.0,61.0,0.0
-23.0,-15.0,-31.0,10.0,7.0,-12.0,35.0,4.0,39.0,48.0,0.0
-17.0,-29.0,-68.0,15.0,22.0,-3.0,41.0,3.0,12.0,14.0,0.0
-3.0,-18.0,-75.0,2.0,14.0,0.0,21.0,12.0,-19.0,-9.0,0.0
7.0,-8.0,-62.0,-17.0,1.0,-6.0,12.0,0.0,-23.0,-7.0,0.0
-3.0,-7.0,-71.0,-31.0,-7.0,-21.0,0.0,-13.0,-20.0,-6.0,0.0
-15.0,-7.0,-24.0,-19.0,-14.0,-29.0,-9.0,-9.0,-15.0,-4.0,0.0
-15.0,9.0,17.0,7.0,-14.0,-30.0,-11.0,-14.0,-12.0,-6.0,0.0
-4.0,16.0,23.0,-1.0,-5.0,-27.0,-4.0,-5.0,-1.0,-8.0,0.0
-2.0,9.0,19.0,-18.0,-11.0,-22.0,27.0,-4.0,0.0,-15.0,0.0
-19.0,-24.0,-11.0,-17.0,-7.0,-16.0,25.0,-2.0,-6.0,-14.0,0.0
-28.0,-31.0,-36.0,8.0,-2.0,-11.0,29.0,3.0,-7.0,-13.0,0.0
-32.0,8.0,20.0,30.0,4.0,2.0,28.0,9.0,0.0,-17.0,0.0
-32.0,29.0,59.0,41.0,9.0,18.0,46.0,3.0,5.0,-26.0,0.0
-32.0,10.0,49.0,44.0,24.0,26.0,41.0,2.0,-4.0,-46.0,0.0
-33.0,-3.0,37.0,27.0,17.0,22.0,22.0,11.0,-22.0,-60.0,0.0
-21.0,3.0,25.0,-23.0,-3.0,4.0,16.0,12.0,-10.0,-44.0,0.0
-8.0,3.0,-7.0,-67.0,-18.0,-19.0,12.0,3.0,33.0,1.0,0.0
-8.0,-3.0,-21.0,-66.0,-17.0,-8.0,23.0,1.0,30.0,56.0,0.0
-16.0,-7.0,-21.0,-51.0,-2.0,-4.0,15.0,-2.0,4.0,69.0,0.0
-24.0,-6.0,-24.0,-29.0,6.0,1.0,18.0,-7.0,-1.0,20.0,0.0
-14.0,5.0,-5.0,-4.0,7.0,-6.0,17.0,-17.0,-6.0,-10.0,0.0
0.0,15.0,19.0,4.0,8.0,-17.0,8.0,-16.0,-11.0,-31.0,0.0
-7.0,0.0,30.0,9.0,7.0,-20.0,-7.0,-21.0,-9.0,-42.0,0.0
-50.0,-37.0,29.0,21.0,7.0,-27.0,-14.0,-23.0,0.0,-65.0,0.0
-70.0,-49.0,33.0,29.0,16.0,-27.0,-23.0,-15.0,-4.0,-65.0,0.0
-17.0,-19.0,31.0,15.0,11.0,-38.0,-40.0,-18.0,-11.0,72.0,0.0
60.0,45.0,28.0,1.0,20.0,-38.0,-35.0,-15.0,-18.0,70.0,0.0
71.0,49.0,-1.0,-15.0,10.0,-34.0,-26.0,-20.0,-15.0,28.0,0.0
56.0,38.0,-1.0,-19.0,2.0,-28.0,-31.0,-16.0,-12.0,24.0,0.0
38.0,15.0,18.0,-9.0,-4.0,-15.0,-14.0,6.0,-3.0,23.0,0.0
29.0,-2.0,20.0,-15.0,-5.0,0.0,1.0,11.0,3.0,15.0,0.0
23.0,-12.0,-6.0,-27.0,2.0,3.0,2.0,15.0,-5.0,18.0,0.0
21.0,-33.0,-15.0,-27.0,15.0,19.0,-4.0,11.0,-5.0,4.0,0.0
0.0,-42.0,-14.0,-17.0,14.0,31.0,1.0,9.0,-8.0,-8.0,0.0
8.0,-29.0,-20.0,-23.0,0.0,24.0,-9.0,10.0,-10.0,-16.0,0.0
20.0,-16.0,-26.0,-13.0,12.0,6.0,-8.0,14.0,-6.0,-21.0,0.0
7.0,-7.0,-5.0,8.0,16.0,4.0,2.0,7.0,20.0,33.0,0.0
8.0,-3.0,20.0,19.0,18.0,11.0,-6.0,4.0,32.0,54.0,0.0
29.0,10.0,29.0,-12.0,8.0,8.0,-3.0,8.0,24.0,27.0,0.0
30.0,-2.0,33.0,-30.0,16.0,0.0,-5.0,6.0,9.0,24.0,0.0
11.0,-21.0,36.0,-36.0,20.0,10.0,4.0,6.0,5.0,17.0,0.0
7.0,-20.0,21.0,-45.0,26.0,21.0,19.0,11.0,6.0,16.0,0.0
27.0,-3.0,-5.0,-59.0,27.0,20.0,27.0,17.0,14.0,29.0,0.0
30.0,4.0,-3.0,-57.0,16.0,24.0,30.0,26.0,-4.0,13.0,0.0
27.0,18.0,27.0,1.0,8.0,27.0,29.0,15.0,-26.0,-19.0,0.0
24.0,3.0,32.0,-7.0,0.0,14.0,1.0,10.0,-8.0,42.0,0.0
27.0,-2.0,22.0,-22.0,12.0,18.0,19.0,25.0,42.0,86.0,0.0
23.0,-5.0,24.0,-23.0,15.0,27.0,15.0,33.0,32.0,37.0,0.0
19.0,-19.0,37.0,-21.0,8.0,26.0,6.0,37.0,4.0,27.0,0.0
6.0,-44.0,24.0,-24.0,1.0,13.0,0.0,25.0,-7.0,35.0,0.0
-14.0,-53.0,-40.0,-24.0,-13.0,7.0,-3.0,1.0,-17.0,10.0,0.0
-23.0,-46.0,-56.0,-11.0,-17.0,3.0,-16.0,-1.0,-19.0,7.0,0.0
-8.0,-31.0,-27.0,7.0,-13.0,5.0,-10.0,-9.0,-19.0,3.0,0.0
6.0,-12.0,8.0,22.0,8.0,18.0,-4.0,-9.0,-25.0,-15.0,0.0
19.0,9.0,36.0,38.0,20.0,34.0,-2.0,-3.0,-39.0,-40.0,0.0
26.0,22.0,32.0,35.0,14.0,35.0,-1.0,7.0,-23.0,-43.0,0.0
26.0,22.0,14.0,20.0,11.0,40.0,3.0,26.0,2.0,-23.0,0.0
26.0,18.0,6.0,30.0,26.0,45.0,20.0,30.0,19.0,19.0,0.0
12.0,21.0,-5.0,37.0,25.0,55.0,25.0,36.0,22.0,-15.0,0.0
-16.0,18.0,-3.0,36.0,25.0,49.0,22.0,25.0,5.0,-55.0,0.0
-40.0,2.0,7.0,30.0,12.0,25.0,14.0,1.0,4.0,-3.0,0.0
-44.0,-4.0,44.0,26.0,-12.0,-4.0,-6.0,-13.0,8.0,126.0,0.0
-21.0,5.0,78.0,29.0,-15.0,-12.0,0.0,-8.0,13.0,100.0,0.0
8.0,12.0,84.0,1.0,-20.0,-12.0,4.0,-5.0,29.0,66.0,0.0
27.0,18.0,86.0,-10.0,-21.0,-12.0,4.0,6.0,36.0,51.0,0.0
13.0,16.0,76.0,-13.0,-22.0,-24.0,4.0,20.0,12.0,34.0,0.0
16.0,20.0,43.0,-14.0,-23.0,-29.0,5.0,23.0,-6.0,33.0,0.0
21.0,15.0,-40.0,-35.0,-19.0,2.0,16.0,29.0,3.0,40.0,0.0
6.0,-17.0,-128.0,-57.0,-15.0,13.0,35.0,14.0,11.0,25.0,0.0
-32.0,-46.0,-140.0,-47.0,-23.0,9.0,25.0,-12.0,2.0,1.0,0.0
-41.0,-58.0,-103.0,-27.0,-22.0,7.0,17.0,-13.0,1.0,1.0,0.0
-7.0,-27.0,-61.0,-13.0,0.0,16.0,7.0,-13.0,-1.0,7.0,0.0
23.0,12.0,-13.0,-7.0,3.0,14.0,-3.0,-19.0,-8.0,8.0,0.0
21.0,0.0,6.0,-4.0,-2.0,15.0,2.0,-5.0,-11.0,6.0,0.0
20.0,-2.0,-2.0,-4.0,1.0,30.0,3.0,13.0,-14.0,2.0,0.0
19.0,-1.0,-5.0,0.0,3.0,26.0,12.0,17.0,-26.0,-19.0,0.0
15.0,-16.0,-21.0,4.0,-7.0,27.0,0.0,5.0,-46.0,-53.0,0.0
0.0,-16.0,-19.0,8.0,-13.0,19.0,10.0,-9.0,-62.0,-79.0,0.0
0.0,-4.0,24.0,21.0,-3.0,35.0,12.0,-2.0,-71.0,-100.0,0.0
-8.0,2.0,64.0,22.0,-11.0,35.0,23.0,5.0,-68.0,-98.0,0.0
-17.0,-11.0,57.0,4.0,-31.0,4.0,1.0,-2.0,10.0,51.0,0.0
0.0,-5.0,49.0,4.0,-29.0,13.0,0.0,2.0,63.0,141.0,0.0
-3.0,9.0,41.0,-5.0,-25.0,13.0,4.0,6.0,31.0,77.0,0.0
-8.0,19.0,11.0,-26.0,-25.0,21.0,4.0,8.0,39.0,46.0,0.0
-1.0,-2.0,-29.0,-47.0,-23.0,20.0,19.0,11.0,50.0,42.0,0.0
-11.0,-19.0,-38.0,-37.0,-12.0,19.0,-3.0,11.0,41.0,26.0,0.0
-20.0,-19.0,-24.0,-4.0,-15.0,15.0,-13.0,-1.0,17.0,5.0,0.0
-23.0,-4.0,-55.0,21.0,-16.0,8.0,-24.0,1.0,-2.0,-12.0,0.0
-15.0,6.0,-64.0,14.0,-3.0,14.0,-16.0,-6.0,-9.0,-23.0,0.0
-15.0,10.0,-62.0,10.0,-12.0,8.0,-18.0,-13.0,-7.0,-31.0,0.0
-20.0,11.0,-69.0,4.0,-18.0,5.0,-19.0,-10.0,0.0,-31.0,0.0
-23.0,8.0,-75.0,-5.0,-19.0,-2.0,-16.0,-8.0,1.0,-21.0,0.0
-30.0,5.0,-78.0,0.0,-13.0,0.0,-19.0,-7.0,4.0,3.0,0.0
-12.0,8.0,-51.0,1.0,-8.0,10.0,6.0,13.0,11.0,13.0,0.0
8.0,24.0,47.0,-22.0,-1.0,17.0,25.0,27.0,38.0,30.0,0.0
14.0,27.0,169.0,-21.0,5.0,28.0,37.0,36.0,38.0,47.0,0.0
7.0,16.0,178.0,7.0,1.0,12.0,21.0,26.0,22.0,30.0,0.0
-15.0,-7.0,40.0,10.0,-22.0,-14.0,-17.0,0.0,-8.0,10.0,0.0
-23.0,-1.0,-10.0,-8.0,-35.0,-41.0,-23.0,-14.0,-15.0,22.0,0.0
-8.0,21.0,16.0,-34.0,-33.0,-46.0,-11.0,-5.0,-17.0,28.0,0.0
5.0,38.0,16.0,-29.0,-18.0,-31.0,-2.0,-2.0,-36.0,-8.0,0.0
-6.0,35.0,13.0,-11.0,-4.0,-11.0,-3.0,-11.0,-37.0,-34.0,0.0
-15.0,24.0,35.0,6.0,-6.0,-8.0,5.0,-2.0,10.0,-22.0,0.0
-21.0,20.0,25.0,8.0,3.0,-12.0,2.0,7.0,35.0,-18.0,0.0
-34.0,13.0,29.0,1.0,9.0,-16.0,9.0,1.0,18.0,-34.0,0.0
-35.0,9.0,35.0,1.0,14.0,-13.0,-3.0,-13.0,19.0,-29.0,0.0
-27.0,6.0,34.0,15.0,20.0,-9.0,4.0,-13.0,14.0,-25.0,0.0
-32.0,9.0,15.0,45.0,26.0,-2.0,-10.0,-16.0,0.0,-35.0,0.0
-23.0,25.0,9.0,46.0,30.0,1.0,-9.0,-22.0,-7.0,-35.0,0.0
-18.0,36.0,2.0,20.0,12.0,-7.0,-9.0,-11.0,0.0,-24.0,0.0
-12.0,35.0,-20.0,3.0,7.0,-6.0,5.0,-7.0,-6.0,-11.0,0.0
-2.0,28.0,-27.0,6.0,15.0,-12.0,0.0,-8.0,-10.0,-9.0,0.0
-13.0,20.0,-38.0,11.0,14.0,2.0,5.0,1.0,-8.0,-5.0,0.0
26.0,53.0,-29.0,22.0,17.0,7.0,-5.0,4.0,-26.0,-25.0,0.0
56.0,65.0,-13.0,18.0,6.0,3.0,-8.0,-2.0,-10.0,-51.0,0.0
16.0,31.0,-8.0,-5.0,-6.0,8.0,-12.0,0.0,17.0,-33.0,0.0
-9.0,2.0,0.0,-13.0,-9.0,12.0,-1.0,8.0,31.0,-33.0,0.0
-14.0,-19.0,4.0,-6.0,-8.0,19.0,-1.0,13.0,0.0,-103.0,0.0
-21.0,-31.0,-35.0,8.0,-15.0,3.0,-18.0,-9.0,-3.0,-71.0,0.0
0.0,-9.0,-89.0,0.0,-49.0,-23.0,-50.0,-32.0,-16.0,24.0,0.0
24.0,11.0,-81.0,-12.0,-62.0,-16.0,-47.0,-30.0,-13.0,77.0,0.0
33.0,15.0,-43.0,1.0,-35.0,0.0,-25.0,0.0,23.0,91.0,0.0
39.0,38.0,-3.0,17.0,-17.0,14.0,-20.0,12.0,43.0,63.0,0.0
47.0,45.0,13.0,21.0,-17.0,4.0,-22.0,0.0,35.0,86.0,0.0
29.0,31.0,6.0,17.0,-21.0,-2.0,-10.0,5.0,19.0,51.0,0.0
16.0,21.0,-21.0,-16.0,-19.0,-5.0,-13.0,12.0,7.0,16.0,0.0
15.0,26.0,-33.0,-30.0,-13.0,-5.0,-17.0,10.0,-4.0,-10.0,0.0
21.0,26.0,-22.0,-34.0,-16.0,-9.0,-27.0,-1.0,-9.0,-9.0,0.0
18.0,19.0,-18.0,-37.0,-23.0,-10.0,-27.0,-1.0,-6.0,10.0,0.0
1.0,11.0,-10.0,-18.0,-15.0,-5.0,-26.0,12.0,-2.0,3.0,0.0
-11.0,-5.0,-12.0,14.0,6.0,10.0,-13.0,12.0,2.0,-9.0,0.0
-1.0,-15.0,-23.0,25.0,9.0,10.0,-6.0,17.0,8.0,-25.0,0.0
23.0,-12.0,-45.0,15.0,-2.0,0.0,-8.0,13.0,5.0,-28.0,0.0
30.0,-7.0,-51.0,4.0,11.0,-2.0,-19.0,4.0,-6.0,-17.0,0.0
29.0,8.0,-37.0,-1.0,6.0,-5.0,-21.0,1.0,3.0,-8.0,0.0
24.0,9.0,-20.0,2.0,-5.0,-9.0,-22.0,-1.0,18.0,4.0,0.0
24.0,2.0,-13.0,13.0,-1.0,-15.0,-12.0,-12.0,11.0,5.0,0.0
19.0,19.0,-2.0,33.0,10.0,-20.0,-3.0,-13.0,-1.0,2.0,0.0
15.0,23.0,9.0,43.0,2.0,-19.0,-8.0,-13.0,-20.0,-4.0,0.0
19.0,-2.0,3.0,42.0,-5.0,-19.0,-21.0,-12.0,-25.0,-23.0,0.0
16.0,-16.0,12.0,38.0,-2.0,-5.0,-19.0,-8.0,-26.0,-30.0,0.0
17.0,-10.0,42.0,37.0,14.0,6.0,-1.0,-12.0,-34.0,-34.0,0.0
7.0,-13.0,67.0,34.0,23.0,10.0,11.0,-15.0,-49.0,-46.0,0.0
-14.0,-40.0,35.0,13.0,23.0,8.0,12.0,-11.0,-52.0,-48.0,0.0
-16.0,-43.0,16.0,-1.0,7.0,0.0,12.0,-15.0,-26.0,-28.0,0.0
6.0,-19.0,17.0,-8.0,0.0,-6.0,13.0,-9.0,4.0,21.0,0.0
29.0,13.0,-3.0,-18.0,8.0,7.0,35.0,16.0,12.0,60.0,0.0
42.0,37.0,9.0,-4.0,13.0,21.0,56.0,36.0,9.0,48.0,0.0
24.0,30.0,36.0,0.0,6.0,13.0,39.0,31.0,-5.0,25.0,0.0
0.0,8.0,56.0,-9.0,-1.0,0.0,36.0,25.0,-16.0,-4.0,0.0
-16.0,-5.0,51.0,4.0,5.0,12.0,22.0,18.0,-20.0,-19.0,0.0
-7.0,3.0,37.0,20.0,9.0,17.0,33.0,17.0,-23.0,-8.0,0.0
6.0,4.0,-8.0,7.0,10.0,8.0,29.0,20.0,-12.0,11.0,0.0
12.0,-13.0,-57.0,-16.0,9.0,5.0,11.0,26.0,-13.0,11.0,0.0
12.0,-32.0,-92.0,-31.0,0.0,20.0,15.0,33.0,-11.0,7.0,0.0
9.0,-28.0,-101.0,-27.0,0.0,32.0,7.0,28.0,-10.0,20.0,0.0
6.0,-9.0,-57.0,-6.0,15.0,20.0,14.0,25.0,-10.0,3.0,0.0
3.0,-3.0,-23.0,16.0,16.0,21.0,3.0,20.0,-7.0,-3.0,0.0
-2.0,-2.0,-19.0,3.0,24.0,11.0,6.0,10.0,-5.0,1.0,0.0
-1.0,-8.0,-11.0,-4.0,22.0,-6.0,4.0,10.0,-3.0,12.0,0.0
4.0,-13.0,8.0,-9.0,10.0,-14.0,3.0,3.0,-5.0,22.0,0.0
11.0,0.0,7.0,-3.0,7.0,-22.0,-7.0,-5.0,-21.0,17.0,0.0
16.0,14.0,11.0,8.0,8.0,-20.0,-2.0,-15.0,-33.0,0.0,0.0
14.0,17.0,13.0,-12.0,5.0,-7.0,-2.0,-6.0,-37.0,-12.0,0.0
17.0,7.0,3.0,-39.0,2.0,-5.0,-3.0,7.0,-35.0,-24.0,0.0
10.0,-9.0,-19.0,-65.0,-4.0,0.0,-9.0,16.0,-24.0,-36.0,0.0
6.0,-13.0,-26.0,-91.0,-18.0,3.0,-10.0,13.0,-27.0,-14.0,0.0
-3.0,-24.0,-58.0,-110.0,-26.0,4.0,-7.0,14.0,9.0,71.0,0.0
-17.0,-37.0,-50.0,-64.0,-1.0,17.0,-6.0,19.0,33.0,86.0,0.0
-32.0,-35.0,8.0,30.0,18.0,39.0,21.0,32.0,16.0,36.0,0.0
-38.0,-34.0,37.0,79.0,30.0,49.0,24.0,26.0,11.0,18.0,0.0
-32.0,-33.0,31.0,53.0,18.0,39.0,30.0,28.0,20.0,11.0,0.0
-18.0,-21.0,41.0,22.0,2.0,24.0,18.0,28.0,14.0,-2.0,0.0
-9.0,-3.0,83.0,17.0,1.0,23.0,14.0,20.0,4.0,-5.0,0.0
-21.0,-4.0,76.0,20.0,4.0,21.0,13.0,15.0,7.0,-6.0,0.0
-19.0,-9.0,16.0,34.0,2.0,6.0,-17.0,-5.0,-2.0,-10.0,0.0
-4.0,-10.0,13.0,20.0,-5.0,-4.0,-35.0,-10.0,1.0,7.0,0.0
11.0,-14.0,24.0,-6.0,-15.0,-8.0,-19.0,0.0,7.0,23.0,0.0
24.0,-9.0,14.0,-17.0,-5.0,2.0,-12.0,17.0,1.0,4.0,0.0
43.0,25.0,27.0,-22.0,-8.0,8.0,-1.0,25.0,6.0,-8.0,0.0
40.0,41.0,47.0,-15.0,-18.0,8.0,0.0,14.0,4.0,-4.0,0.0
13.0,35.0,47.0,-6.0,-10.0,12.0,16.0,12.0,-9.0,-16.0,0.0
8.0,33.0,34.0,-9.0,-3.0,16.0,11.0,19.0,-16.0,-36.0,0.0
8.0,28.0,5.0,-32.0,-11.0,18.0,14.0,20.0,20.0,25.0,0.0
2.0,10.0,1.0,-35.0,-14.0,9.0,1.0,6.0,33.0,41.0,0.0
-6.0,7.0,-13.0,-36.0,-8.0,-3.0,0.0,-4.0,9.0,1.0,0.0
-18.0,5.0,0.0,-7.0,-1.0,0.0,-7.0,-16.0,-8.0,-32.0,0.0
-1.0,7.0,3.0,2.0,-5.0,-7.0,-28.0,-21.0,-26.0,-33.0,0.0
-16.0,-15.0,-54.0,-41.0,-18.0,0.0,-35.0,-7.0,9.0,-5.0,0.0
-41.0,-50.0,-115.0,-71.0,-14.0,14.0,-11.0,12.0,52.0,0.0,0.0
-32.0,-33.0,-84.0,-66.0,0.0,13.0,0.0,13.0,9.0,-15.0,0.0
-29.0,-14.0,-43.0,-42.0,0.0,7.0,-11.0,11.0,-4.0,-7.0,0.0
-33.0,-28.0,-44.0,-16.0,6.0,3.0,-13.0,3.0,0.0,-2.0,0.0
23.0,3.0,-16.0,-1.0,1.0,-3.0,-26.0,-5.0,-7.0,-31.0,0.0
53.0,40.0,19.0,9.0,-4.0,-15.0,-19.0,-17.0,-19.0,-34.0,0.0
15.0,34.0,24.0,16.0,1.0,-10.0,-11.0,-30.0,-31.0,-26.0,0.0
-8.0,10.0,19.0,25.0,10.0,-8.0,-7.0,-16.0,-22.0,-27.0,0.0
-18.0,-5.0,3.0,38.0,3.0,0.0,9.0,-11.0,-9.0,-29.0,0.0
-21.0,-8.0,-1.0,40.0,10.0,5.0,12.0,-20.0,-5.0,-29.0,0.0
-6.0,-12.0,-11.0,46.0,15.0,9.0,14.0,-22.0,-23.0,-30.0,0.0
-6.0,-6.0,-28.0,25.0,0.0,14.0,7.0,-20.0,-26.0,-21.0,0.0
-10.0,-8.0,-48.0,7.0,-26.0,0.0,-2.0,-34.0,-21.0,-10.0,0.0
-9.0,-9.0,-49.0,4.0,-23.0,-10.0,-11.0,-26.0,-26.0,0.0,0.0
-12.0,-6.0,-15.0,-15.0,-14.0,-10.0,-10.0,-11.0,-18.0,16.0,0.0
-11.0,-8.0,13.0,-39.0,-15.0,-30.0,-9.0,-15.0,-9.0,15.0,0.0
-10.0,-8.0,20.0,-34.0,-5.0,-24.0,5.0,-20.0,-3.0,-20.0,0.0
-21.0,0.0,20.0,-15.0,-6.0,-13.0,11.0,-21.0,-22.0,-43.0,0.0
-26.0,13.0,34.0,-11.0,2.0,0.0,11.0,-6.0,-38.0,-58.0,0.0
-6.0,22.0,-3.0,-26.0,2.0,8.0,28.0,4.0,-24.0,-75.0,0.0
5.0,30.0,-29.0,-27.0,3.0,26.0,31.0,14.0,-18.0,-112.0,0.0
11.0,44.0,-13.0,-11.0,-5.0,13.0,25.0,-3.0,-34.0,-58.0,0.0
22.0,48.0,7.0,0.0,-17.0,-12.0,11.0,-11.0,-24.0,44.0,0.0
37.0,56.0,6.0,21.0,0.0,0.0,10.0,10.0,3.0,52.0,0.0
24.0,39.0,-4.0,28.0,13.0,10.0,26.0,20.0,44.0,60.0,0.0
-3.0,5.0,44.0,12.0,-6.0,-11.0,6.0,19.0,81.0,62.0,0.0
5.0,12.0,157.0,34.0,8.0,0.0,30.0,28.0,64.0,-18.0,0.0
3.0,2.0,146.0,61.0,5.0,12.0,19.0,5.0,30.0,-10.0,0.0
-16.0,-35.0,-13.0,52.0,-20.0,-6.0,0.0,-26.0,0.0,88.0,0.0
-24.0,-43.0,-49.0,34.0,-16.0,-10.0,-11.0,-36.0,-15.0,33.0,0.0
-7.0,-10.0,19.0,33.0,10.0,-10.0,-2.0,-23.0,14.0,45.0,0.0
11.0,11.0,27.0,49.0,14.0,-8.0,-6.0,-16.0,19.0,57.0,0.0
5.0,6.0,22.0,46.0,11.0,12.0,-5.0,-19.0,17.0,26.0,0.0
-7.0,5.0,21.0,45.0,13.0,11.0,0.0,-11.0,11.0,18.0,0.0
-17.0,0.0,14.0,51.0,20.0,-3.0,2.0,0.0,0.0,8.0,0.0
-23.0,-13.0,20.0,34.0,21.0,-3.0,-2.0,7.0,-4.0,-3.0,0.0
-14.0,-13.0,23.0,16.0,11.0,-6.0,1.0,17.0,7.0,-2.0,0.0
-6.0,0.0,17.0,12.0,0.0,-4.0,-4.0,27.0,17.0,-9.0,0.0
-5.0,-14.0,-1.0,3.0,-17.0,-18.0,-8.0,13.0,26.0,36.0,0.0
-18.0,-38.0,-3.0,5.0,-23.0,-18.0,-15.0,0.0,12.0,63.0,0.0
-24.0,-32.0,3.0,25.0,-16.0,-25.0,-12.0,2.0,-3.0,26.0,0.0
-23.0,-16.0,-1.0,41.0,-11.0,-30.0,-8.0,-4.0,-7.0,12.0,0.0
-16.0,-2.0,-9.0,35.0,-5.0,-22.0,-12.0,-15.0,-9.0,11.0,0.0
-11.0,-2.0,-15.0,21.0,-6.0,-18.0,-8.0,-10.0,-2.0,11.0,0.0
-5.0,-5.0,-25.0,10.0,8.0,-10.0,-10.0,-13.0,-6.0,7.0,0.0
3.0,8.0,-28.0,14.0,4.0,-7.0,-6.0,-24.0,-19.0,14.0,0.0
11.0,30.0,-8.0,24.0,0.0,-6.0,-21.0,-15.0,-16.0,2.0,0.0
0.0,31.0,9.0,20.0,5.0,2.0,-17.0,-9.0,-17.0,0.0,0.0
-3.0,23.0,48.0,17.0,13.0,-4.0,-8.0,-9.0,-20.0,0.0,0.0
11.0,24.0,120.0,13.0,19.0,-5.0,-4.0,-8.0,-8.0,2.0,0.0
23.0,12.0,141.0,23.0,16.0,-7.0,8.0,0.0,-1.0,-9.0,0.0
26.0,21.0,120.0,39.0,5.0,0.0,18.0,-4.0,-16.0,-37.0,0.0
28.0,33.0,51.0,14.0,3.0,19.0,32.0,2.0,-39.0,-58.0,0.0
30.0,12.0,-61.0,2.0,16.0,20.0,29.0,11.0,-49.0,-63.0,0.0
20.0,-15.0,-119.0,-3.0,19.0,0.0,21.0,15.0,-41.0,-52.0,0.0
6.0,-18.0,-107.0,-28.0,11.0,-9.0,24.0,3.0,-22.0,-26.0,0.0
-15.0,-31.0,-88.0,-35.0,-9.0,-34.0,-3.0,-13.0,11.0,61.0,0.0
-25.0,-34.0,-61.0,-30.0,-31.0,-45.0,-2.0,-9.0,49.0,106.0,0.0
-31.0,-28.0,-41.0,-15.0,-29.0,-36.0,5.0,-18.0,38.0,61.0,0.0
-29.0,-24.0,-32.0,-5.0,-16.0,-16.0,26.0,-14.0,17.0,23.0,0.0
-26.0,-25.0,-45.0,-18.0,-13.0,-21.0,20.0,-18.0,7.0,-2.0,0.0
-34.0,-32.0,-62.0,-39.0,-18.0,-34.0,8.0,-19.0,5.0,-12.0,0.0
-33.0,-21.0,-59.0,-42.0,-23.0,-37.0,17.0,-9.0,14.0,-7.0,0.0
-30.0,-8.0,-28.0,-34.0,-23.0,-30.0,4.0,-10.0,9.0,4.0,0.0
-6.0,13.0,10.0,-26.0,-22.0,-32.0,-5.0,-35.0,-12.0,-7.0,0.0
18.0,22.0,34.0,0.0,-23.0,-35.0,-10.0,-35.0,-18.0,-19.0,0.0
5.0,5.0,39.0,26.0,-11.0,-31.0,1.0,-34.0,-10.0,-27.0,0.0
-22.0,-9.0,47.0,28.0,-7.0,-39.0,-5.0,-39.0,-34.0,-36.0,0.0
-52.0,-24.0,40.0,29.0,-4.0,-39.0,-7.0,-36.0,-34.0,-35.0,0.0
-59.0,-49.0,19.0,18.0,-11.0,-30.0,-15.0,-23.0,-26.0,-32.0,0.0
-65.0,-47.0,7.0,-1.0,-18.0,-25.0,-14.0,-32.0,-19.0,-26.0,0.0
-48.0,-9.0,29.0,-3.0,-11.0,-28.0,-8.0,-27.0,-8.0,-30.0,0.0
-18.0,9.0,44.0,2.0,-7.0,-30.0,-4.0,-5.0,-1.0,-36.0,0.0
34.0,37.0,67.0,11.0,12.0,-34.0,-4.0,-10.0,-10.0,-41.0,0.0
76.0,63.0,62.0,-4.0,38.0,-21.0,8.0,-14.0,-2.0,-33.0,0.0
47.0,38.0,7.0,-24.0,47.0,-11.0,14.0,3.0,16.0,-3.0,0.0
14.0,19.0,-10.0,-11.0,28.0,-19.0,6.0,1.0,23.0,0.0,0.0
10.0,4.0,-15.0,-13.0,15.0,-35.0,1.0,-3.0,19.0,0.0,0.0
8.0,2.0,-29.0,-37.0,11.0,-32.0,0.0,-3.0,9.0,13.0,0.0
5.0,-2.0,-31.0,-57.0,3.0,-29.0,-7.0,-2.0,7.0,10.0,0.0
-4.0,-4.0,-40.0,-58.0,6.0,-27.0,-12.0,-2.0,6.0,11.0,0.0
-11.0,-12.0,-44.0,-71.0,5.0,-16.0,-22.0,1.0,0.0,0.0,0.0
-26.0,-31.0,-38.0,-67.0,-2.0,-14.0,-10.0,-1.0,-3.0,-7.0,0.0
-43.0,-42.0,-26.0,-51.0,7.0,-8.0,7.0,0.0,-1.0,-4.0,0.0
-35.0,-21.0,-5.0,-34.0,7.0,0.0,4.0,5.0,-6.0,-4.0,0.0
-24.0,-1.0,23.0,-18.0,11.0,4.0,17.0,15.0,-15.0,-18.0,0.0
-26.0,0.0,32.0,-5.0,8.0,3.0,15.0,20.0,-4.0,-25.0,0.0
-26.0,-17.0,14.0,-7.0,-1.0,-1.0,9.0,21.0,8.0,-13.0,0.0
-20.0,-11.0,-12.0,-11.0,10.0,5.0,9.0,16.0,15.0,-12.0,0.0
-16.0,6.0,-8.0,5.0,18.0,10.0,10.0,13.0,7.0,-18.0,0.0
-6.0,21.0,7.0,20.0,32.0,14.0,14.0,16.0,-12.0,-39.0,0.0
7.0,30.0,21.0,31.0,27.0,11.0,12.0,9.0,-21.0,-53.0,0.0
8.0,26.0,26.0,15.0,9.0,0.0,12.0,2.0,-14.0,-40.0,0.0
0.0,13.0,13.0,9.0,3.0,2.0,-3.0,-9.0,-26.0,-44.0,0.0
-5.0,0.0,17.0,-3.0,-2.0,-15.0,0.0,-13.0,-7.0,-39.0,0.0
5.0,3.0,10.0,-42.0,-20.0,-19.0,-10.0,-10.0,5.0,-19.0,0.0
16.0,26.0,3.0,-57.0,-42.0,-32.0,-20.0,-15.0,5.0,4.0,0.0
18.0,38.0,21.0,-47.0,-47.0,-47.0,-31.0,-31.0,-5.0,16.0,0.0
13.0,29.0,25.0,-35.0,-34.0,-44.0,-29.0,-41.0,-7.0,26.0,0.0
0.0,14.0,22.0,-3.0,-13.0,-24.0,-21.0,-36.0,-37.0,-3.0,0.0
-19.0,-16.0,-12.0,40.0,16.0,-12.0,-15.0,-35.0,-48.0,-32.0,0.0
-24.0,-41.0,-40.0,43.0,23.0,-7.0,-10.0,-13.0,-4.0,-5.0,0.0
-2.0,-30.0,-34.0,21.0,15.0,-4.0,-9.0,6.0,31.0,6.0,0.0
0.0,0.0,-25.0,3.0,2.0,-19.0,1.0,4.0,13.0,-1.0,0.0
11.0,10.0,-43.0,-21.0,-11.0,-31.0,4.0,-6.0,-1.0,-1.0,0.0
12.0,15.0,-40.0,-35.0,-17.0,-32.0,18.0,-15.0,-12.0,-16.0,0.0
4.0,11.0,-16.0,-33.0,-13.0,-28.0,8.0,-12.0,-38.0,-39.0,0.0
-2.0,7.0,-6.0,-17.0,-7.0,-6.0,17.0,-1.0,-19.0,-23.0,0.0
4.0,33.0,2.0,-1.0,15.0,11.0,20.0,13.0,9.0,-21.0,0.0
2.0,24.0,-12.0,-6.0,13.0,10.0,26.0,1.0,19.0,-10.0,0.0
-6.0,-6.0,-34.0,-12.0,-7.0,3.0,20.0,-6.0,30.0,29.0,0.0
-21.0,-9.0,-34.0,17.0,-6.0,5.0,19.0,3.0,23.0,20.0,0.0
-22.0,-6.0,-29.0,38.0,0.0,14.0,32.0,9.0,17.0,6.0,0.0
1.0,11.0,-6.0,33.0,7.0,19.0,22.0,1.0,22.0,-9.0,0.0
3.0,23.0,-2.0,34.0,8.0,22.0,22.0,-1.0,20.0,-22.0,0.0
0.0,12.0,-20.0,7.0,-3.0,21.0,29.0,2.0,9.0,-22.0,0.0
-2.0,1.0,-42.0,-29.0,5.0,34.0,26.0,10.0,-9.0,-33.0,0.0
22.0,4.0,-45.0,-19.0,15.0,38.0,31.0,17.0,-15.0,-70.0,0.0
35.0,9.0,-20.0,-1.0,4.0,12.0,0.0,5.0,11.0,-21.0,0.0
35.0,16.0,22.0,9.0,-1.0,4.0,-13.0,2.0,31.0,38.0,0.0
26.0,5.0,53.0,44.0,16.0,10.0,-1.0,1.0,-13.0,-53.0,0.0
5.0,8.0,75.0,59.0,9.0,2.0,-18.0,-15.0,-33.0,-104.0,0.0
12.0,23.0,111.0,51.0,-6.0,-17.0,-29.0,-32.0,1.0,66.0,0.0
32.0,67.0,117.0,46.0,-4.0,-15.0,-20.0,-20.0,32.0,165.0,0.0
34.0,69.0,55.0,32.0,6.0,4.0,4.0,-12.0,16.0,75.0,0.0
24.0,31.0,6.0,18.0,7.0,20.0,11.0,-8.0,8.0,40.0,0.0
26.0,2.0,-4.0,8.0,5.0,33.0,14.0,10.0,25.0,45.0,0.0
21.0,-8.0,-17.0,-13.0,14.0,34.0,1.0,16.0,21.0,29.0,0.0
24.0,-8.0,-53.0,-23.0,13.0,13.0,9.0,9.0,11.0,4.0,0.0
16.0,-5.0,-104.0,-13.0,0.0,2.0,0.0,9.0,10.0,-9.0,0.0
16.0,-14.0,-93.0,-14.0,-8.0,17.0,12.0,20.0,20.0,-11.0,0.0
2.0,-24.0,-81.0,-36.0,4.0,45.0,37.0,39.0,21.0,-11.0,0.0
1.0,-26.0,-112.0,-64.0,6.0,55.0,39.0,61.0,35.0,42.0,0.0
2.0,-31.0,-124.0,-61.0,-4.0,41.0,28.0,52.0,36.0,71.0,0.0
10.0,-12.0,-48.0,-33.0,-10.0,33.0,21.0,39.0,27.0,9.0,0.0
26.0,20.0,74.0,-17.0,-11.0,27.0,12.0,27.0,11.0,-20.0,0.0
23.0,22.0,65.0,13.0,-7.0,23.0,12.0,11.0,-15.0,-50.0,0.0
-12.0,-11.0,-46.0,32.0,-30.0,7.0,-3.0,4.0,-25.0,-83.0,0.0
-32.0,-28.0,-60.0,18.0,-47.0,-9.0,-22.0,-5.0,-9.0,-82.0,0.0
-8.0,-13.0,-24.0,11.0,-34.0,-12.0,-26.0,-14.0,-10.0,-47.0,0.0
-3.0,-9.0,-14.0,5.0,-36.0,-30.0,-27.0,-19.0,-14.0,37.0,0.0
-27.0,-33.0,-26.0,-4.0,-57.0,-36.0,-36.0,-17.0,24.0,98.0,0.0
-38.0,-38.0,-21.0,0.0,-58.0,-23.0,-17.0,6.0,54.0,84.0,0.0
-25.0,-17.0,0.0,12.0,-34.0,-15.0,-9.0,9.0,29.0,36.0,0.0
-10.0,-15.0,5.0,19.0,-17.0,-13.0,2.0,6.0,6.0,10.0,0.0
-19.0,-7.0,15.0,10.0,-13.0,-13.0,-6.0,-4.0,-2.0,7.0,0.0
-24.0,-1.0,23.0,10.0,-7.0,-9.0,-11.0,-3.0,-6.0,0.0,0.0
-31.0,-8.0,12.0,16.0,-2.0,-5.0,-2.0,0.0,-3.0,-2.0,0.0
-29.0,-11.0,11.0,19.0,0.0,-3.0,0.0,3.0,-2.0,-3.0,0.0
-26.0,-9.0,22.0,14.0,-2.0,-3.0,9.0,4.0,0.0,-11.0,0.0
-18.0,-28.0,35.0,16.0,-6.0,-2.0,11.0,17.0,-1.0,-23.0,0.0
19.0,-7.0,45.0,18.0,2.0,9.0,34.0,12.0,-10.0,-35.0,0.0
63.0,37.0,47.0,20.0,6.0,15.0,24.0,13.0,-28.0,-50.0,0.0
41.0,27.0,42.0,9.0,-21.0,0.0,-2.0,10.0,-30.0,-40.0,0.0
15.0,6.0,42.0,-13.0,-30.0,-7.0,-7.0,-1.0,-7.0,6.0,0.0
