channel0,channel1,channel2,channel3,channel4,channel5,channel6,channel7,channel8,channel9,true_locs
-8.0,12.0,6.0,31.0,7.0,24.0,12.0,-15.0,-30.0,-64.0,0.0
6.0,8.0,4.0,20.0,7.0,22.0,22.0,-7.0,-11.0,-30.0,0.0
18.0,4.0,-1.0,10.0,4.0,17.0,21.0,5.0,4.0,5.0,0.0
49.0,16.0,8.0,15.0,3.0,5.0,15.0,2.0,-9.0,11.0,0.0
75.0,35.0,10.0,3.0,-5.0,-18.0,-6.0,-2.0,0.0,39.0,0.0
89.0,41.0,0.0,-18.0,-23.0,-27.0,-12.0,-5.0,37.0,73.0,0.0
80.0,35.0,4.0,-14.0,-18.0,-16.0,-7.0,0.0,37.0,51.0,0.0
61.0,30.0,14.0,17.0,-13.0,-9.0,-8.0,2.0,3.0,21.0,0.0
24.0,17.0,8.0,16.0,-6.0,4.0,-5.0,3.0,-9.0,14.0,0.0
-46.0,-7.0,2.0,14.0,11.0,23.0,6.0,19.0,6.0,-19.0,0.0
-108.0,-43.0,-6.0,24.0,22.0,33.0,15.0,22.0,-8.0,-64.0,0.0
-109.0,-48.0,-10.0,14.0,9.0,34.0,7.0,6.0,-32.0,-62.0,0.0
-65.0,-29.0,-11.0,-10.0,0.0,20.0,-1.0,1.0,-28.0,-18.0,0.0
-28.0,-18.0,-22.0,-16.0,-10.0,7.0,6.0,0.0,-13.0,32.0,0.0
-30.0,-16.0,-31.0,4.0,-18.0,20.0,20.0,15.0,-13.0,25.0,0.0
-36.0,-14.0,-8.0,14.0,-5.0,23.0,28.0,13.0,-24.0,-34.0,0.0
-10.0,-13.0,0.0,7.0,-12.0,18.0,11.0,10.0,-18.0,-49.0,0.0
4.0,-23.0,-7.0,-4.0,-13.0,9.0,-8.0,19.0,5.0,-26.0,0.0
1.0,-26.0,-29.0,-28.0,-20.0,7.0,-25.0,11.0,0.0,-13.0,0.0
-24.0,-37.0,-38.0,-33.0,-24.0,0.0,-27.0,8.0,0.0,-20.0,0.0
-36.0,-33.0,-36.0,-20.0,-14.0,0.0,-23.0,-1.0,-6.0,-5.0,0.0
-18.0,-16.0,-31.0,-16.0,-11.0,9.0,-22.0,-11.0,-15.0,30.0,0.0
4.0,6.0,-31.0,-14.0,-24.0,-1.0,-34.0,-11.0,-24.0,82.0,0.0
12.0,3.0,-28.0,-20.0,-26.0,-10.0,-35.0,-7.0,0.0,94.0,0.0
-2.0,-5.0,-31.0,-36.0,-17.0,-8.0,-25.0,6.0,37.0,30.0,0.0
4.0,-13.0,-27.0,-33.0,-10.0,-11.0,-16.0,5.0,43.0,-34.0,0.0
15.0,-6.0,-25.0,-22.0,-5.0,5.0,-7.0,21.0,30.0,-41.0,0.0
15.0,4.0,-8.0,-11.0,-9.0,22.0,0.0,16.0,21.0,-62.0,0.0
15.0,20.0,9.0,-14.0,-18.0,12.0,5.0,9.0,29.0,-64.0,0.0
30.0,23.0,4.0,-29.0,-28.0,-17.0,-11.0,10.0,46.0,1.0,0.0
59.0,23.0,-12.0,-41.0,-39.0,-25.0,-21.0,10.0,76.0,96.0,0.0
57.0,-1.0,-24.0,-50.0,-45.0,-26.0,-24.0,20.0,110.0,149.0,0.0
39.0,-17.0,-30.0,-53.0,-33.0,-16.0,-9.0,7.0,67.0,118.0,0.0
15.0,-15.0,-29.0,-48.0,-11.0,-1.0,-3.0,-9.0,-7.0,33.0,0.0
-9.0,6.0,-16.0,-34.0,5.0,-3.0,0.0,-21.0,-51.0,-49.0,0.0
-25.0,12.0,12.0,-11.0,4.0,6.0,12.0,-12.0,-51.0,-74.0,0.0
-50.0,4.0,15.0,-1.0,13.0,22.0,22.0,-2.0,-48.0,-85.0,0.0
-64.0,9.0,22.0,-7.0,25.0,14.0,26.0,-8.0,-45.0,-89.0,0.0
-44.0,2.0,15.0,-18.0,16.0,6.0,24.0,-7.0,-48.0,-72.0,0.0
-20.0,-11.0,-8.0,-24.0,11.0,4.0,27.0,-6.0,-37.0,-46.0,0.0
-21.0,-17.0,0.0,-20.0,14.0,6.0,26.0,-11.0,-21.0,-47.0,0.0
-15.0,-15.0,10.0,-17.0,18.0,2.0,22.0,-7.0,-28.0,-66.0,0.0
2.0,0.0,26.0,-10.0,4.0,-1.0,3.0,-11.0,-35.0,-81.0,0.0
23.0,24.0,25.0,-8.0,-9.0,-8.0,-6.0,-13.0,-33.0,-52.0,0.0
39.0,33.0,13.0,-13.0,-12.0,-16.0,-23.0,-16.0,13.0,50.0,0.0
56.0,27.0,-6.0,-15.0,-21.0,-22.0,-33.0,-11.0,60.0,143.0,0.0
42.0,28.0,-10.0,-13.0,-13.0,-15.0,-18.0,11.0,72.0,155.0,0.0
11.0,10.0,-26.0,-9.0,-2.0,3.0,-4.0,11.0,56.0,93.0,0.0
-1.0,0.0,-4.0,0.0,17.0,19.0,6.0,3.0,20.0,26.0,0.0
-34.0,-3.0,-8.0,0.0,27.0,17.0,3.0,0.0,-8.0,-33.0,0.0
-44.0,-9.0,-29.0,-4.0,17.0,5.0,7.0,6.0,-17.0,-67.0,0.0
-50.0,-19.0,-16.0,-9.0,19.0,2.0,12.0,14.0,-16.0,-38.0,0.0
-46.0,-19.0,-25.0,0.0,8.0,-2.0,28.0,34.0,-3.0,-19.0,0.0
-24.0,-7.0,-35.0,2.0,2.0,-3.0,31.0,28.0,12.0,-11.0,0.0
-12.0,1.0,-28.0,-4.0,-3.0,-3.0,28.0,18.0,24.0,-5.0,0.0
-17.0,1.0,-26.0,-11.0,-8.0,-15.0,16.0,9.0,35.0,14.0,0.0
-19.0,-5.0,-23.0,-10.0,-9.0,-15.0,9.0,13.0,60.0,26.0,0.0
-16.0,-7.0,-10.0,-3.0,0.0,-10.0,14.0,15.0,54.0,-14.0,0.0
-29.0,-7.0,15.0,-2.0,20.0,-3.0,25.0,0.0,10.0,-56.0,0.0
-34.0,-7.0,21.0,-5.0,26.0,0.0,17.0,8.0,-17.0,-78.0,0.0
-23.0,-7.0,-2.0,5.0,24.0,-10.0,9.0,11.0,-26.0,-65.0,0.0
-14.0,-13.0,-4.0,1.0,21.0,-12.0,9.0,15.0,-18.0,-54.0,0.0
-3.0,-17.0,-11.0,-2.0,18.0,-6.0,9.0,10.0,-7.0,-36.0,0.0
19.0,-1.0,5.0,9.0,15.0,-15.0,6.0,9.0,-17.0,-18.0,0.0
21.0,16.0,24.0,8.0,13.0,-16.0,1.0,9.0,-17.0,-26.0,0.0
14.0,14.0,23.0,15.0,14.0,-3.0,3.0,7.0,-31.0,-24.0,0.0
4.0,3.0,29.0,13.0,20.0,5.0,-2.0,4.0,-29.0,-19.0,0.0
-2.0,-3.0,10.0,-3.0,18.0,1.0,-8.0,0.0,-22.0,-20.0,0.0
7.0,3.0,-6.0,-12.0,8.0,-7.0,-2.0,-1.0,0.0,-3.0,0.0
2.0,11.0,0.0,-14.0,2.0,2.0,-4.0,-3.0,4.0,-4.0,0.0
9.0,9.0,-10.0,-10.0,4.0,-2.0,-3.0,-7.0,-6.0,1.0,0.0
30.0,24.0,-8.0,1.0,-3.0,-10.0,-1.0,-12.0,-14.0,31.0,0.0
54.0,32.0,-4.0,0.0,-13.0,-16.0,-12.0,-28.0,-18.0,72.0,0.0
79.0,21.0,-2.0,-6.0,-1.0,-20.0,-18.0,-21.0,-16.0,122.0,0.0
80.0,13.0,7.0,-15.0,1.0,-12.0,-7.0,-11.0,-12.0,135.0,0.0
60.0,9.0,-9.0,-16.0,-15.0,-12.0,-13.0,-22.0,-26.0,72.0,0.0
43.0,1.0,-7.0,-8.0,-26.0,-19.0,-15.0,-25.0,-43.0,-12.0,0.0
31.0,-6.0,-3.0,-3.0,-26.0,-7.0,-2.0,-12.0,-12.0,-20.0,0.0
20.0,-16.0,-7.0,2.0,-22.0,5.0,14.0,13.0,5.0,-29.0,0.0
15.0,-9.0,-7.0,7.0,-17.0,4.0,6.0,9.0,-18.0,-54.0,0.0
-4.0,12.0,-8.0,30.0,-12.0,1.0,3.0,7.0,-28.0,-64.0,0.0
-25.0,18.0,15.0,51.0,-11.0,13.0,16.0,17.0,-5.0,-35.0,0.0
-37.0,9.0,27.0,55.0,3.0,30.0,22.0,22.0,9.0,-20.0,0.0
-50.0,-1.0,17.0,51.0,11.0,40.0,29.0,22.0,5.0,-28.0,0.0
-41.0,-8.0,14.0,43.0,8.0,37.0,21.0,12.0,-2.0,-36.0,0.0
-35.0,-11.0,-6.0,28.0,2.0,32.0,10.0,3.0,-7.0,-22.0,0.0
-34.0,3.0,-6.0,29.0,8.0,22.0,9.0,-5.0,0.0,2.0,0.0
-27.0,0.0,-17.0,36.0,9.0,10.0,2.0,-8.0,-2.0,-3.0,0.0
-10.0,-3.0,-3.0,28.0,1.0,2.0,-5.0,-4.0,6.0,13.0,0.0
-6.0,9.0,-7.0,28.0,-7.0,-6.0,-4.0,-5.0,3.0,29.0,0.0
3.0,6.0,-11.0,26.0,-2.0,-4.0,-1.0,-12.0,0.0,29.0,0.0
15.0,8.0,6.0,18.0,1.0,-15.0,-3.0,-13.0,15.0,29.0,0.0
34.0,6.0,4.0,16.0,4.0,-22.0,-6.0,-8.0,20.0,37.0,0.0
38.0,1.0,-12.0,3.0,0.0,-30.0,-5.0,-19.0,18.0,36.0,0.0
27.0,-2.0,-26.0,-2.0,-6.0,-16.0,0.0,-18.0,9.0,23.0,0.0
20.0,0.0,-10.0,-4.0,-7.0,0.0,1.0,-21.0,0.0,14.0,0.0
13.0,4.0,2.0,-5.0,-1.0,-5.0,-5.0,-15.0,7.0,7.0,0.0
-3.0,8.0,0.0,6.0,-4.0,-5.0,2.0,-11.0,-4.0,-10.0,0.0
-1.0,18.0,18.0,10.0,-8.0,1.0,1.0,-20.0,-19.0,-13.0,0.0
32.0,18.0,17.0,4.0,-3.0,3.0,-18.0,-18.0,-8.0,46.0,0.0
65.0,27.0,25.0,2.0,-9.0,2.0,-22.0,-16.0,20.0,135.0,1.0
99.0,29.0,15.0,-5.0,-15.0,5.0,-18.0,-9.0,49.0,218.0,1.0
106.0,24.0,-5.0,-28.0,-21.0,-11.0,-28.0,-13.0,59.0,208.0,1.0
71.0,-3.0,-15.0,-40.0,-17.0,-12.0,-25.0,-24.0,33.0,81.0,1.0
43.0,-11.0,-30.0,-39.0,-13.0,-3.0,-12.0,-35.0,13.0,88.0,1.0
14.0,-4.0,-23.0,-31.0,-11.0,-11.0,-16.0,-34.0,-25.0,123.0,1.0
4.0,0.0,3.0,-11.0,4.0,0.0,-10.0,-38.0,-49.0,-36.0,1.0
-11.0,-4.0,28.0,13.0,24.0,17.0,10.0,-14.0,-42.0,-127.0,1.0
-17.0,-21.0,21.0,16.0,25.0,16.0,13.0,-4.0,-27.0,-75.0,1.0
-35.0,-42.0,-18.0,0.0,0.0,-12.0,-2.0,0.0,-13.0,-29.0,1.0
-38.0,-25.0,-31.0,-4.0,-17.0,-25.0,-16.0,-1.0,-9.0,-6.0,1.0
-36.0,-16.0,-13.0,-4.0,-15.0,-11.0,-3.0,-5.0,-13.0,32.0,1.0
-52.0,-10.0,9.0,7.0,4.0,3.0,10.0,-1.0,-33.0,-24.0,1.0
-81.0,-11.0,28.0,32.0,25.0,35.0,17.0,7.0,-43.0,-115.0,1.0
-107.0,-12.0,36.0,43.0,21.0,46.0,19.0,5.0,-49.0,-197.0,1.0
-118.0,-6.0,42.0,50.0,31.0,53.0,28.0,15.0,-43.0,-262.0,1.0
-91.0,-8.0,43.0,38.0,33.0,58.0,25.0,20.0,-37.0,-249.0,1.0
-78.0,-12.0,31.0,14.0,18.0,48.0,16.0,9.0,-37.0,-209.0,1.0
-50.0,-1.0,25.0,23.0,17.0,32.0,11.0,1.0,-38.0,-174.0,0.0
-18.0,17.0,32.0,36.0,18.0,28.0,11.0,-6.0,-37.0,-135.0,0.0
-13.0,17.0,33.0,36.0,17.0,5.0,12.0,-14.0,-35.0,-117.0,0.0
-21.0,13.0,31.0,25.0,28.0,4.0,0.0,-10.0,-33.0,-106.0,0.0
-33.0,5.0,26.0,22.0,37.0,20.0,14.0,1.0,-35.0,-87.0,0.0
-28.0,-4.0,27.0,17.0,41.0,24.0,26.0,4.0,-22.0,-60.0,0.0
-9.0,5.0,48.0,9.0,38.0,7.0,21.0,1.0,-19.0,-42.0,0.0
16.0,14.0,46.0,7.0,33.0,7.0,24.0,-2.0,-34.0,-31.0,0.0
38.0,27.0,40.0,6.0,30.0,0.0,15.0,-12.0,-47.0,-27.0,0.0
45.0,30.0,49.0,2.0,26.0,-3.0,-4.0,-25.0,-52.0,-7.0,0.0
41.0,24.0,29.0,-19.0,3.0,-19.0,-15.0,-24.0,-23.0,38.0,0.0
62.0,5.0,12.0,-38.0,-14.0,-33.0,-23.0,-6.0,32.0,99.0,0.0
72.0,1.0,7.0,-46.0,-15.0,-26.0,-36.0,-2.0,75.0,134.0,0.0
32.0,-21.0,7.0,-57.0,-31.0,-25.0,-36.0,-8.0,96.0,102.0,0.0
20.0,-13.0,20.0,-44.0,-25.0,-20.0,-25.0,-13.0,60.0,52.0,0.0
5.0,-2.0,50.0,-11.0,-2.0,-10.0,-5.0,-10.0,20.0,21.0,0.0
10.0,1.0,39.0,0.0,4.0,-11.0,14.0,-17.0,10.0,31.0,0.0
7.0,21.0,41.0,5.0,-1.0,-6.0,19.0,-11.0,0.0,36.0,0.0
12.0,17.0,19.0,-2.0,4.0,12.0,15.0,4.0,17.0,43.0,0.0
-13.0,-11.0,4.0,-31.0,7.0,20.0,27.0,22.0,58.0,43.0,0.0
-36.0,-17.0,18.0,-35.0,5.0,23.0,24.0,16.0,73.0,12.0,0.0
-17.0,1.0,34.0,-25.0,18.0,20.0,3.0,13.0,120.0,50.0,0.0
11.0,17.0,29.0,-7.0,13.0,13.0,-3.0,8.0,104.0,94.0,0.0
50.0,25.0,30.0,13.0,10.0,18.0,-3.0,-10.0,44.0,90.0,0.0
45.0,17.0,7.0,33.0,0.0,19.0,-5.0,-3.0,37.0,97.0,0.0
48.0,5.0,-6.0,20.0,-15.0,4.0,-18.0,12.0,57.0,105.0,0.0
34.0,-15.0,-22.0,-4.0,-35.0,-10.0,-19.0,22.0,87.0,50.0,0.0
26.0,-11.0,-8.0,-11.0,-27.0,-2.0,-8.0,18.0,73.0,-44.0,0.0
16.0,3.0,27.0,11.0,-9.0,17.0,1.0,27.0,51.0,-65.0,0.0
-33.0,-11.0,16.0,11.0,4.0,25.0,16.0,23.0,37.0,-58.0,0.0
-43.0,-15.0,-5.0,6.0,13.0,20.0,24.0,8.0,28.0,-55.0,0.0
-24.0,-15.0,-16.0,0.0,10.0,24.0,21.0,3.0,14.0,-27.0,0.0
-22.0,-11.0,-11.0,-1.0,15.0,37.0,33.0,15.0,1.0,-38.0,0.0
-20.0,-9.0,8.0,24.0,19.0,36.0,42.0,22.0,-15.0,-69.0,0.0
-29.0,1.0,27.0,33.0,28.0,43.0,33.0,9.0,-42.0,-87.0,0.0
-24.0,12.0,10.0,36.0,30.0,26.0,18.0,-6.0,-66.0,-100.0,0.0
-16.0,23.0,16.0,29.0,31.0,29.0,12.0,-11.0,-87.0,-107.0,0.0
-11.0,26.0,18.0,12.0,28.0,39.0,7.0,-21.0,-74.0,-84.0,0.0
3.0,24.0,0.0,6.0,25.0,23.0,7.0,-16.0,-65.0,-64.0,0.0
7.0,30.0,-2.0,4.0,13.0,11.0,-2.0,-24.0,-78.0,-57.0,0.0
10.0,32.0,13.0,-1.0,6.0,-2.0,-21.0,-28.0,-63.0,-33.0,0.0
17.0,26.0,0.0,-19.0,-28.0,-26.0,-35.0,-15.0,14.0,57.0,0.0
8.0,-5.0,-19.0,-30.0,-48.0,-42.0,-38.0,6.0,94.0,114.0,0.0
-19.0,-25.0,-18.0,-26.0,-42.0,-27.0,-31.0,18.0,95.0,67.0,0.0
-53.0,-35.0,-21.0,-10.0,-29.0,-4.0,-20.0,22.0,68.0,23.0,0.0
-60.0,-43.0,-15.0,-6.0,-11.0,-2.0,-10.0,7.0,44.0,2.0,0.0
-34.0,-39.0,-9.0,-3.0,2.0,1.0,-15.0,-15.0,16.0,-2.0,0.0
-30.0,-39.0,-9.0,3.0,0.0,-4.0,-18.0,-23.0,11.0,4.0,0.0
-1.0,-24.0,-10.0,-10.0,-3.0,4.0,2.0,3.0,44.0,43.0,0.0
24.0,-5.0,-21.0,-16.0,-9.0,-1.0,-4.0,12.0,63.0,91.0,0.0
39.0,17.0,-19.0,-11.0,-13.0,-5.0,-17.0,-10.0,40.0,86.0,0.0
38.0,10.0,-17.0,-18.0,-16.0,-6.0,-16.0,-13.0,12.0,63.0,0.0
31.0,-9.0,-14.0,-45.0,-18.0,-3.0,-14.0,-2.0,13.0,63.0,0.0
40.0,-5.0,-14.0,-47.0,-13.0,-15.0,-8.0,1.0,23.0,114.0,0.0
59.0,9.0,-13.0,-41.0,-14.0,-17.0,-14.0,-8.0,25.0,166.0,0.0
69.0,15.0,-3.0,-35.0,-16.0,-26.0,-33.0,-22.0,15.0,176.0,0.0
66.0,24.0,-1.0,-29.0,-21.0,-35.0,-43.0,-32.0,2.0,123.0,0.0
60.0,18.0,-11.0,-25.0,-23.0,-38.0,-31.0,-30.0,-1.0,64.0,0.0
44.0,3.0,-12.0,-28.0,-25.0,-42.0,-15.0,-7.0,14.0,22.0,0.0
30.0,0.0,-5.0,-18.0,-15.0,-26.0,0.0,12.0,22.0,-57.0,0.0
-1.0,11.0,-1.0,-7.0,0.0,-7.0,14.0,20.0,33.0,-97.0,0.0
-11.0,1.0,-8.0,-20.0,-6.0,-8.0,17.0,24.0,51.0,-57.0,0.0
16.0,-5.0,-19.0,-41.0,-17.0,-12.0,11.0,32.0,64.0,54.0,0.0
35.0,-15.0,-46.0,-52.0,-24.0,-12.0,-10.0,18.0,39.0,122.0,0.0
45.0,-8.0,-34.0,-51.0,-16.0,-5.0,-13.0,6.0,18.0,109.0,0.0
26.0,0.0,-10.0,-28.0,0.0,0.0,10.0,-2.0,-19.0,17.0,0.0
-7.0,0.0,6.0,-3.0,18.0,3.0,18.0,-15.0,-57.0,-61.0,0.0
-48.0,-3.0,15.0,19.0,38.0,16.0,10.0,-21.0,-79.0,-131.0,0.0
-95.0,-7.0,16.0,27.0,60.0,33.0,12.0,-21.0,-89.0,-180.0,0.0
-98.0,-9.0,25.0,54.0,63.0,41.0,16.0,-13.0,-99.0,-186.0,0.0
-69.0,-2.0,39.0,58.0,46.0,23.0,14.0,-15.0,-93.0,-152.0,0.0
-44.0,-5.0,20.0,42.0,32.0,16.0,18.0,-6.0,-72.0,-102.0,0.0
-19.0,-10.0,1.0,28.0,18.0,-2.0,3.0,2.0,-35.0,-62.0,0.0
-4.0,-25.0,-12.0,2.0,-2.0,-23.0,-10.0,11.0,30.0,-6.0,0.0
7.0,-10.0,-7.0,-11.0,-9.0,-22.0,1.0,16.0,22.0,21.0,0.0
22.0,-10.0,-3.0,7.0,-18.0,-18.0,-2.0,10.0,-11.0,21.0,0.0
11.0,-6.0,-11.0,7.0,-29.0,-16.0,-7.0,13.0,6.0,19.0,0.0
-11.0,-9.0,-4.0,2.0,-22.0,-12.0,-5.0,30.0,51.0,-1.0,0.0
-51.0,-20.0,-5.0,2.0,-3.0,16.0,19.0,47.0,58.0,-37.0,0.0
-65.0,-31.0,-7.0,-9.0,2.0,19.0,28.0,52.0,45.0,-45.0,0.0
-74.0,-39.0,-3.0,-8.0,7.0,14.0,20.0,50.0,34.0,-40.0,0.0
-72.0,-31.0,-8.0,-3.0,-11.0,0.0,3.0,39.0,37.0,-25.0,0.0
-38.0,-15.0,-5.0,-2.0,-19.0,-14.0,-5.0,17.0,30.0,-16.0,0.0
27.0,13.0,0.0,1.0,-24.0,-18.0,-5.0,0.0,7.0,10.0,0.0
71.0,34.0,13.0,10.0,-14.0,-25.0,-5.0,-16.0,-18.0,25.0,0.0
83.0,45.0,30.0,11.0,-15.0,-29.0,-16.0,-32.0,-41.0,29.0,0.0
62.0,37.0,32.0,-1.0,-15.0,-25.0,-19.0,-15.0,-8.0,29.0,0.0
30.0,10.0,12.0,-7.0,-8.0,-19.0,6.0,18.0,19.0,24.0,0.0
-1.0,-24.0,-2.0,-4.0,6.0,-8.0,25.0,32.0,27.0,3.0,0.0
-27.0,-40.0,-11.0,9.0,14.0,-1.0,27.0,36.0,56.0,-17.0,0.0
-20.0,-23.0,-7.0,2.0,5.0,-15.0,5.0,33.0,85.0,-9.0,0.0
-2.0,9.0,-6.0,0.0,-3.0,-20.0,-3.0,18.0,60.0,12.0,0.0
26.0,15.0,0.0,6.0,0.0,-11.0,-2.0,0.0,35.0,66.0,0.0
45.0,17.0,3.0,8.0,-6.0,-6.0,0.0,5.0,35.0,120.0,0.0
55.0,12.0,12.0,6.0,-15.0,-4.0,10.0,8.0,37.0,167.0,0.0
36.0,1.0,21.0,-4.0,-13.0,0.0,13.0,-3.0,20.0,124.0,0.0
-20.0,-20.0,4.0,-2.0,0.0,5.0,18.0,-7.0,-5.0,-65.0,0.0
-38.0,-7.0,11.0,11.0,14.0,17.0,21.0,12.0,-4.0,-131.0,0.0
-24.0,23.0,30.0,15.0,17.0,9.0,10.0,11.0,-25.0,-121.0,0.0
-19.0,45.0,42.0,3.0,5.0,-1.0,-14.0,-17.0,-64.0,-98.0,0.0
-9.0,32.0,29.0,6.0,7.0,-5.0,-17.0,-21.0,-68.0,-63.0,0.0
-19.0,3.0,23.0,4.0,13.0,0.0,-7.0,6.0,-16.0,-41.0,0.0
-28.0,-10.0,-3.0,-7.0,14.0,7.0,8.0,20.0,24.0,-31.0,0.0
12.0,-2.0,-11.0,-8.0,1.0,1.0,8.0,13.0,-4.0,-5.0,0.0
86.0,36.0,-2.0,-6.0,-3.0,-7.0,3.0,-7.0,-11.0,89.0,0.0
137.0,62.0,29.0,6.0,5.0,-9.0,-6.0,-13.0,-5.0,161.0,0.0
138.0,61.0,42.0,14.0,14.0,-4.0,-19.0,-27.0,-12.0,184.0,0.0
90.0,42.0,31.0,10.0,5.0,-6.0,-17.0,-22.0,-19.0,160.0,0.0
11.0,6.0,-4.0,-18.0,-22.0,-29.0,-20.0,-32.0,-40.0,3.0,0.0
-23.0,5.0,-9.0,-17.0,-17.0,-25.0,-22.0,-31.0,-22.0,-141.0,0.0
-22.0,-5.0,-13.0,-4.0,0.0,-4.0,4.0,14.0,56.0,-86.0,0.0
-15.0,-8.0,-8.0,7.0,21.0,5.0,22.0,39.0,100.0,3.0,0.0
0.0,7.0,17.0,22.0,19.0,-1.0,15.0,19.0,66.0,18.0,0.0
12.0,-1.0,9.0,7.0,9.0,-15.0,12.0,-7.0,38.0,28.0,0.0
-15.0,-39.0,-18.0,-6.0,-1.0,-28.0,2.0,-21.0,15.0,-2.0,0.0
-35.0,-38.0,-14.0,-10.0,-2.0,-27.0,0.0,-18.0,-1.0,-50.0,0.0
-42.0,-10.0,-11.0,-15.0,-1.0,-14.0,18.0,-16.0,1.0,-104.0,0.0
-50.0,1.0,-13.0,-17.0,7.0,2.0,17.0,4.0,15.0,-74.0,0.0
-62.0,-13.0,-17.0,-13.0,19.0,17.0,11.0,11.0,20.0,-63.0,0.0
-76.0,-29.0,-19.0,-14.0,13.0,15.0,15.0,6.0,-1.0,-87.0,0.0
-52.0,-26.0,-18.0,-20.0,2.0,13.0,8.0,-7.0,-7.0,-65.0,0.0
-33.0,-10.0,-13.0,-17.0,-7.0,12.0,11.0,-7.0,22.0,-34.0,0.0
-44.0,-7.0,-9.0,-20.0,-6.0,6.0,16.0,3.0,26.0,-38.0,0.0
-41.0,-14.0,-11.0,-4.0,5.0,0.0,20.0,-5.0,6.0,-48.0,0.0
-27.0,-3.0,-10.0,24.0,8.0,0.0,18.0,-9.0,-15.0,-49.0,0.0
-12.0,10.0,10.0,28.0,10.0,-10.0,14.0,-14.0,-17.0,-46.0,0.0
-14.0,5.0,21.0,17.0,18.0,-12.0,19.0,-19.0,-22.0,-43.0,0.0
-25.0,-6.0,3.0,1.0,20.0,-4.0,1.0,-24.0,-22.0,-44.0,0.0
-25.0,-2.0,-7.0,6.0,18.0,5.0,-13.0,-15.0,-27.0,-45.0,0.0
-23.0,0.0,-14.0,6.0,16.0,2.0,0.0,8.0,-16.0,-35.0,0.0
-15.0,0.0,-12.0,-2.0,10.0,-6.0,6.0,14.0,-16.0,-15.0,0.0
-1.0,2.0,-13.0,8.0,12.0,2.0,2.0,-6.0,-30.0,-9.0,0.0
5.0,-4.0,-17.0,5.0,11.0,-2.0,-1.0,-34.0,-57.0,-5.0,0.0
15.0,-4.0,-15.0,-6.0,12.0,-8.0,-16.0,-49.0,-58.0,21.0,0.0
38.0,6.0,-7.0,-9.0,5.0,-10.0,-13.0,-35.0,-37.0,58.0,0.0
51.0,7.0,-9.0,-12.0,-3.0,-13.0,6.0,-14.0,-7.0,76.0,0.0
45.0,9.0,-16.0,-15.0,-2.0,-8.0,7.0,-1.0,1.0,41.0,0.0
32.0,10.0,-1.0,-11.0,11.0,6.0,9.0,-17.0,-2.0,-11.0,0.0
10.0,14.0,0.0,1.0,21.0,13.0,9.0,-14.0,-2.0,-37.0,0.0
16.0,15.0,-5.0,3.0,22.0,21.0,10.0,0.0,-5.0,-25.0,0.0
39.0,17.0,-2.0,0.0,17.0,18.0,3.0,3.0,-2.0,0.0,0.0
36.0,3.0,-1.0,-17.0,13.0,6.0,7.0,9.0,-3.0,-4.0,0.0
39.0,14.0,0.0,-3.0,12.0,-4.0,7.0,-5.0,-16.0,-23.0,0.0
45.0,24.0,-1.0,-3.0,0.0,-14.0,3.0,-15.0,-31.0,-24.0,0.0
30.0,11.0,-9.0,-11.0,-13.0,-11.0,2.0,-19.0,-33.0,-12.0,0.0
17.0,-5.0,-19.0,-18.0,-17.0,-3.0,7.0,-21.0,-39.0,-24.0,0.0
18.0,-15.0,-23.0,-26.0,-12.0,-9.0,3.0,-18.0,-35.0,-11.0,0.0
32.0,-6.0,-26.0,-40.0,-2.0,-5.0,-3.0,-22.0,-38.0,5.0,0.0
33.0,8.0,-31.0,-36.0,2.0,0.0,-7.0,-27.0,-55.0,0.0,0.0
24.0,1.0,-36.0,-32.0,2.0,5.0,-3.0,-24.0,-28.0,4.0,0.0
18.0,-22.0,-28.0,-47.0,-6.0,6.0,10.0,-3.0,37.0,62.0,0.0
21.0,-16.0,-40.0,-49.0,-7.0,17.0,13.0,4.0,52.0,110.0,0.0
19.0,4.0,-41.0,-38.0,-5.0,12.0,4.0,8.0,30.0,89.0,0.0
48.0,6.0,-37.0,-43.0,-13.0,-1.0,5.0,33.0,49.0,137.0,0.0
95.0,14.0,-49.0,-50.0,-20.0,-14.0,-14.0,38.0,99.0,239.0,0.0
116.0,30.0,-37.0,-41.0,-22.0,-19.0,-22.0,33.0,134.0,215.0,0.0
115.0,25.0,-8.0,-40.0,-28.0,-23.0,-23.0,18.0,127.0,188.0,0.0
98.0,5.0,-13.0,-32.0,-13.0,-9.0,-15.0,13.0,95.0,188.0,0.0
43.0,-11.0,-15.0,-22.0,0.0,0.0,-6.0,-7.0,18.0,116.0,0.0
-43.0,-14.0,6.0,6.0,22.0,5.0,8.0,-5.0,-46.0,-63.0,0.0
-113.0,-8.0,27.0,25.0,52.0,39.0,31.0,-2.0,-90.0,-172.0,0.0
-131.0,-12.0,22.0,18.0,41.0,39.0,10.0,-26.0,-109.0,-151.0,0.0
-129.0,-25.0,6.0,-5.0,24.0,22.0,1.0,-42.0,-79.0,-116.0,0.0
-113.0,-30.0,4.0,-17.0,23.0,29.0,6.0,-23.0,-51.0,-137.0,0.0
-83.0,-23.0,11.0,-17.0,33.0,30.0,6.0,4.0,-29.0,-116.0,0.0
-71.0,-18.0,11.0,10.0,38.0,28.0,18.0,11.0,-24.0,-107.0,0.0
-67.0,-22.0,16.0,30.0,38.0,30.0,29.0,14.0,-30.0,-93.0,0.0
-38.0,-13.0,15.0,29.0,31.0,32.0,25.0,2.0,-28.0,-29.0,0.0
-2.0,1.0,14.0,37.0,18.0,34.0,12.0,-1.0,-15.0,36.0,0.0
23.0,2.0,13.0,37.0,11.0,31.0,-2.0,2.0,0.0,77.0,0.0
25.0,4.0,6.0,35.0,16.0,26.0,-9.0,-5.0,-4.0,75.0,0.0
14.0,0.0,0.0,39.0,12.0,18.0,-15.0,-16.0,-23.0,31.0,0.0
8.0,-13.0,8.0,38.0,7.0,7.0,-22.0,-14.0,-16.0,-29.0,0.0
0.0,-16.0,10.0,43.0,8.0,16.0,-16.0,-7.0,0.0,-66.0,0.0
-29.0,-23.0,12.0,46.0,14.0,21.0,5.0,8.0,11.0,-81.0,0.0
-50.0,-22.0,15.0,30.0,9.0,18.0,10.0,12.0,2.0,-95.0,0.0
-36.0,-12.0,8.0,26.0,-2.0,16.0,4.0,4.0,-1.0,-73.0,0.0
-15.0,-11.0,3.0,22.0,-12.0,6.0,-7.0,-5.0,-9.0,-44.0,0.0
0.0,-17.0,6.0,25.0,-11.0,0.0,-13.0,-10.0,-12.0,-31.0,0.0
22.0,-4.0,9.0,21.0,-19.0,-3.0,-18.0,-12.0,-17.0,-31.0,0.0
34.0,3.0,4.0,17.0,-21.0,2.0,-24.0,-17.0,-24.0,-30.0,0.0
35.0,-4.0,-4.0,0.0,-10.0,9.0,-19.0,-13.0,-18.0,-29.0,0.0
25.0,-11.0,-6.0,-17.0,-10.0,8.0,-5.0,1.0,-4.0,-22.0,0.0
12.0,-3.0,-3.0,-16.0,-2.0,6.0,-6.0,-1.0,-7.0,-12.0,0.0
21.0,4.0,-2.0,-11.0,2.0,0.0,-12.0,-4.0,-1.0,5.0,0.0
29.0,8.0,-7.0,-12.0,2.0,-1.0,-12.0,-2.0,3.0,35.0,0.0
29.0,5.0,-21.0,-11.0,1.0,-2.0,-17.0,-10.0,0.0,41.0,0.0
16.0,4.0,-13.0,-9.0,-3.0,-11.0,-23.0,-11.0,-14.0,23.0,0.0
-1.0,3.0,1.0,-9.0,-5.0,-17.0,-13.0,-12.0,-20.0,-5.0,0.0
-8.0,-2.0,0.0,0.0,-5.0,-19.0,-5.0,-12.0,6.0,-7.0,0.0
-1.0,-19.0,6.0,26.0,-4.0,-11.0,-17.0,-15.0,-2.0,7.0,0.0
-8.0,-36.0,8.0,32.0,-3.0,-7.0,-28.0,-9.0,-18.0,1.0,0.0
-9.0,-31.0,6.0,27.0,-10.0,-3.0,-26.0,-9.0,-16.0,-17.0,0.0
-3.0,-22.0,8.0,26.0,-6.0,-1.0,-29.0,-22.0,-23.0,-43.0,0.0
-4.0,-8.0,12.0,28.0,-1.0,8.0,-29.0,-32.0,-50.0,-50.0,0.0
-1.0,0.0,-1.0,26.0,-6.0,9.0,-12.0,-25.0,-55.0,-30.0,0.0
-6.0,-9.0,-13.0,22.0,-8.0,14.0,-1.0,-13.0,-52.0,-24.0,0.0
1.0,-2.0,-3.0,28.0,-7.0,18.0,-2.0,-7.0,-71.0,-37.0,0.0
22.0,11.0,-2.0,32.0,-9.0,19.0,-11.0,-22.0,-89.0,-58.0,0.0
46.0,17.0,-22.0,29.0,-20.0,16.0,-25.0,-42.0,-105.0,-56.0,0.0
66.0,23.0,-9.0,26.0,-22.0,10.0,-32.0,-37.0,-97.0,-22.0,0.0
83.0,30.0,-10.0,11.0,-32.0,-15.0,-43.0,-15.0,8.0,81.0,0.0
98.0,38.0,3.0,-9.0,-44.0,-34.0,-53.0,-4.0,96.0,192.0,0.0
72.0,17.0,8.0,2.0,-26.0,-23.0,-38.0,-15.0,48.0,195.0,0.0
54.0,-5.0,-6.0,6.0,-27.0,-18.0,-28.0,-17.0,4.0,188.0,0.0
37.0,-25.0,-33.0,-7.0,-44.0,-37.0,-40.0,1.0,27.0,136.0,0.0
22.0,-13.0,-26.0,7.0,-36.0,-30.0,-38.0,32.0,59.0,91.0,0.0
37.0,13.0,-5.0,25.0,-10.0,-21.0,-18.0,45.0,76.0,112.0,0.0
42.0,4.0,-11.0,22.0,0.0,-3.0,8.0,52.0,89.0,114.0,0.0
59.0,-2.0,-19.0,14.0,8.0,1.0,9.0,52.0,83.0,112.0,0.0
48.0,-18.0,-5.0,12.0,4.0,-3.0,-12.0,35.0,27.0,43.0,0.0
1.0,-39.0,-19.0,27.0,5.0,1.0,-14.0,16.0,-19.0,-90.0,0.0
-21.0,-35.0,-16.0,44.0,11.0,22.0,7.0,20.0,-14.0,-53.0,0.0
-12.0,-28.0,-3.0,37.0,5.0,26.0,7.0,27.0,16.0,67.0,0.0
-4.0,-21.0,-7.0,19.0,3.0,13.0,11.0,44.0,52.0,128.0,0.0
-29.0,-16.0,-22.0,19.0,-1.0,20.0,6.0,29.0,8.0,74.0,0.0
-53.0,-7.0,-21.0,19.0,-1.0,30.0,4.0,9.0,-41.0,-40.0,0.0
-91.0,-20.0,-19.0,10.0,-6.0,28.0,1.0,3.0,-69.0,-195.0,0.0
-94.0,-23.0,-14.0,14.0,6.0,33.0,14.0,15.0,-75.0,-276.0,0.0
-90.0,-24.0,3.0,20.0,26.0,38.0,30.0,27.0,-66.0,-254.0,0.0
-122.0,-38.0,-2.0,24.0,50.0,36.0,34.0,24.0,-75.0,-257.0,0.0
-118.0,-51.0,-22.0,28.0,35.0,28.0,17.0,19.0,-39.0,-223.0,0.0
-87.0,-45.0,-9.0,22.0,19.0,29.0,5.0,20.0,4.0,-158.0,0.0
-55.0,-43.0,-17.0,22.0,17.0,29.0,-11.0,12.0,0.0,-103.0,0.0
-40.0,-36.0,-24.0,12.0,16.0,22.0,-12.0,10.0,7.0,-71.0,0.0
-19.0,-17.0,-20.0,0.0,14.0,11.0,-4.0,9.0,16.0,-35.0,0.0
-5.0,-17.0,-32.0,-9.0,8.0,13.0,-5.0,9.0,10.0,-16.0,0.0
0.0,-14.0,-27.0,-10.0,1.0,9.0,-10.0,4.0,-4.0,-13.0,0.0
2.0,4.0,-8.0,-10.0,-8.0,3.0,-7.0,6.0,-17.0,-16.0,0.0
-6.0,0.0,-27.0,-4.0,-11.0,6.0,0.0,13.0,-5.0,-19.0,0.0
-26.0,-6.0,-40.0,-5.0,-11.0,7.0,11.0,17.0,-1.0,-23.0,0.0
-27.0,-4.0,-27.0,3.0,-15.0,9.0,16.0,15.0,-6.0,-19.0,0.0
-8.0,0.0,-7.0,5.0,-12.0,11.0,17.0,15.0,-6.0,-1.0,0.0
2.0,5.0,11.0,-7.0,-16.0,12.0,9.0,12.0,-4.0,18.0,0.0
0.0,-7.0,0.0,-3.0,-11.0,2.0,3.0,14.0,0.0,13.0,0.0
-9.0,-12.0,-28.0,-17.0,-9.0,-16.0,7.0,19.0,10.0,18.0,0.0
-5.0,-9.0,-34.0,-31.0,-20.0,-20.0,0.0,15.0,26.0,42.0,0.0
-9.0,-12.0,-22.0,-30.0,-25.0,-10.0,-8.0,7.0,13.0,46.0,0.0
-19.0,-13.0,-29.0,-20.0,-14.0,-19.0,-9.0,0.0,-2.0,24.0,0.0
-24.0,-17.0,-39.0,-8.0,-15.0,-18.0,-14.0,15.0,8.0,39.0,0.0
-18.0,-13.0,-29.0,-14.0,-25.0,-14.0,-7.0,38.0,23.0,51.0,0.0
-8.0,-7.0,-11.0,-21.0,-25.0,-11.0,-3.0,10.0,20.0,45.0,0.0
4.0,0.0,-8.0,-17.0,-32.0,-13.0,-8.0,-4.0,8.0,52.0,0.0
8.0,0.0,-8.0,-4.0,-36.0,-10.0,-12.0,1.0,6.0,55.0,0.0
15.0,-1.0,-22.0,-5.0,-40.0,-23.0,-9.0,1.0,13.0,56.0,0.0
36.0,-3.0,-16.0,-16.0,-41.0,-27.0,0.0,-8.0,23.0,60.0,0.0
49.0,0.0,-4.0,-15.0,-42.0,-20.0,11.0,-5.0,23.0,46.0,0.0
42.0,4.0,10.0,-2.0,-27.0,-9.0,4.0,-2.0,19.0,8.0,0.0
32.0,20.0,13.0,-1.0,-16.0,-1.0,1.0,-4.0,18.0,-38.0,0.0
15.0,35.0,3.0,0.0,-21.0,-7.0,-9.0,-5.0,26.0,-50.0,0.0
2.0,24.0,7.0,0.0,-24.0,0.0,-14.0,-1.0,38.0,-4.0,0.0
8.0,3.0,-25.0,-20.0,-26.0,-2.0,-17.0,-3.0,33.0,88.0,0.0
-13.0,-15.0,-32.0,-34.0,-30.0,-14.0,-9.0,-1.0,22.0,114.0,0.0
-27.0,-8.0,-22.0,-33.0,-17.0,-8.0,2.0,-2.0,10.0,57.0,0.0
-21.0,14.0,-17.0,-28.0,4.0,-2.0,-4.0,-2.0,-15.0,3.0,0.0
-18.0,39.0,3.0,-16.0,16.0,1.0,-1.0,-4.0,-30.0,-14.0,0.0
-54.0,24.0,-6.0,-20.0,17.0,15.0,9.0,8.0,-36.0,-29.0,0.0
-101.0,-10.0,-15.0,-32.0,25.0,21.0,22.0,4.0,-34.0,-45.0,0.0
-93.0,-24.0,-17.0,-21.0,17.0,17.0,25.0,-8.0,-24.0,-21.0,0.0
-51.0,-18.0,-9.0,-19.0,9.0,-6.0,2.0,-5.0,11.0,57.0,0.0
-20.0,-2.0,4.0,-19.0,13.0,-10.0,-6.0,16.0,25.0,77.0,0.0
-3.0,4.0,22.0,-9.0,24.0,5.0,2.0,14.0,0.0,41.0,0.0
8.0,13.0,30.0,-6.0,27.0,4.0,18.0,5.0,1.0,26.0,0.0
35.0,20.0,12.0,-6.0,23.0,2.0,11.0,15.0,27.0,49.0,0.0
59.0,23.0,18.0,-18.0,11.0,-2.0,-4.0,40.0,48.0,79.0,0.0
80.0,11.0,6.0,-28.0,-6.0,-19.0,-28.0,42.0,75.0,146.0,0.0
91.0,2.0,-14.0,-36.0,-21.0,-24.0,-34.0,16.0,68.0,207.0,0.0
52.0,11.0,-9.0,-48.0,-19.0,-27.0,-39.0,-13.0,10.0,130.0,0.0
12.0,19.0,6.0,-37.0,8.0,-15.0,-18.0,-15.0,-18.0,-23.0,0.0
-5.0,28.0,11.0,-10.0,26.0,-9.0,4.0,-21.0,-38.0,-94.0,0.0
-20.0,45.0,37.0,-1.0,38.0,-11.0,15.0,-36.0,-50.0,-105.0,0.0
-61.0,32.0,41.0,-7.0,46.0,-11.0,21.0,-29.0,-60.0,-117.0,0.0
-82.0,-4.0,38.0,7.0,42.0,-7.0,23.0,-19.0,-77.0,-128.0,0.0
-53.0,1.0,35.0,3.0,34.0,-3.0,18.0,-12.0,-80.0,-97.0,0.0
-51.0,5.0,10.0,1.0,28.0,-6.0,19.0,-21.0,-82.0,-98.0,0.0
-72.0,6.0,13.0,5.0,26.0,-3.0,15.0,-10.0,-86.0,-118.0,0.0
-46.0,10.0,17.0,-1.0,19.0,-7.0,12.0,-5.0,-95.0,-117.0,0.0
7.0,13.0,4.0,-11.0,13.0,-9.0,-7.0,-3.0,-84.0,-70.0,0.0
9.0,-8.0,-7.0,-16.0,6.0,-14.0,2.0,8.0,-39.0,-32.0,0.0
0.0,-20.0,-22.0,-28.0,0.0,-15.0,4.0,5.0,6.0,-1.0,0.0
21.0,-10.0,-3.0,-34.0,0.0,-12.0,-1.0,7.0,48.0,33.0,0.0
44.0,17.0,-2.0,-27.0,-9.0,-11.0,-5.0,18.0,64.0,52.0,0.0
18.0,32.0,7.0,-14.0,-5.0,-14.0,-6.0,24.0,50.0,38.0,0.0
-33.0,11.0,-4.0,-6.0,1.0,-6.0,-1.0,17.0,20.0,-25.0,0.0
-55.0,4.0,9.0,3.0,7.0,11.0,9.0,17.0,-15.0,-66.0,0.0
-62.0,-5.0,6.0,17.0,12.0,5.0,21.0,9.0,-37.0,-94.0,0.0
-65.0,-24.0,-20.0,25.0,15.0,-5.0,20.0,9.0,-39.0,-82.0,0.0
-61.0,-27.0,-27.0,16.0,4.0,-5.0,16.0,26.0,-19.0,-15.0,0.0
-48.0,-20.0,-28.0,8.0,-15.0,-5.0,8.0,23.0,29.0,78.0,0.0
-23.0,-13.0,-14.0,12.0,-8.0,0.0,-9.0,14.0,50.0,116.0,0.0
0.0,-17.0,-11.0,10.0,-5.0,4.0,-9.0,4.0,39.0,87.0,0.0
5.0,-13.0,-16.0,5.0,-14.0,-6.0,-2.0,-15.0,11.0,60.0,0.0
0.0,-8.0,-7.0,1.0,-13.0,-15.0,3.0,-34.0,-9.0,10.0,0.0
1.0,-1.0,-6.0,11.0,-3.0,-16.0,2.0,-34.0,15.0,23.0,0.0
26.0,10.0,12.0,17.0,1.0,-4.0,1.0,-16.0,45.0,86.0,0.0
37.0,5.0,14.0,15.0,6.0,2.0,7.0,-5.0,37.0,90.0,0.0
35.0,3.0,2.0,14.0,14.0,6.0,16.0,-14.0,2.0,92.0,0.0
32.0,12.0,-9.0,14.0,-3.0,5.0,-1.0,-23.0,-31.0,75.0,0.0
31.0,7.0,-15.0,10.0,-7.0,-3.0,-9.0,-29.0,-45.0,38.0,0.0
10.0,5.0,-14.0,16.0,4.0,-1.0,-5.0,-17.0,-38.0,9.0,0.0
0.0,6.0,-10.0,1.0,18.0,0.0,7.0,-10.0,-20.0,-3.0,0.0
-22.0,-8.0,-14.0,-7.0,23.0,0.0,14.0,-8.0,-32.0,-44.0,0.0
-45.0,-32.0,-29.0,-11.0,17.0,-2.0,24.0,-1.0,-9.0,-76.0,0.0
-38.0,-43.0,-27.0,-17.0,2.0,-14.0,25.0,24.0,76.0,0.0,0.0
-22.0,-21.0,-14.0,-10.0,1.0,-12.0,22.0,28.0,92.0,39.0,0.0
-7.0,-9.0,-11.0,-11.0,7.0,-2.0,23.0,19.0,64.0,40.0,0.0
-2.0,-8.0,-8.0,-9.0,4.0,-14.0,19.0,15.0,45.0,32.0,0.0
-1.0,-11.0,-9.0,-14.0,2.0,-22.0,19.0,4.0,36.0,-11.0,0.0
11.0,-1.0,-8.0,-11.0,3.0,-17.0,23.0,0.0,30.0,-36.0,0.0
4.0,-5.0,-7.0,3.0,11.0,-3.0,26.0,6.0,37.0,-16.0,0.0
-12.0,0.0,-1.0,34.0,8.0,5.0,35.0,17.0,37.0,7.0,0.0
-13.0,12.0,0.0,32.0,1.0,1.0,24.0,0.0,2.0,27.0,0.0
-9.0,11.0,-23.0,14.0,-6.0,-15.0,6.0,-38.0,-26.0,2.0,0.0
-21.0,2.0,-23.0,6.0,2.0,-4.0,12.0,-35.0,-34.0,-36.0,0.0
-28.0,-6.0,-18.0,13.0,5.0,6.0,22.0,-35.0,-47.0,-60.0,0.0
-16.0,-6.0,-14.0,9.0,-1.0,18.0,15.0,-36.0,-47.0,-58.0,0.0
-6.0,9.0,-2.0,4.0,0.0,18.0,7.0,-46.0,-37.0,-54.0,0.0
-8.0,19.0,-5.0,4.0,5.0,8.0,8.0,-41.0,-36.0,-44.0,0.0
-1.0,12.0,-22.0,-5.0,9.0,0.0,16.0,-29.0,-15.0,-20.0,0.0
-2.0,7.0,-22.0,-23.0,9.0,0.0,23.0,-20.0,4.0,-1.0,0.0
-1.0,12.0,-17.0,-25.0,10.0,-3.0,19.0,-20.0,11.0,10.0,0.0
9.0,9.0,-8.0,-16.0,14.0,4.0,14.0,-25.0,14.0,28.0,0.0
35.0,15.0,-3.0,-5.0,17.0,7.0,12.0,-19.0,23.0,67.0,0.0
48.0,35.0,5.0,6.0,6.0,1.0,4.0,-2.0,23.0,110.0,0.0
55.0,33.0,4.0,1.0,0.0,-3.0,-1.0,-13.0,13.0,146.0,0.0
36.0,20.0,-15.0,-12.0,-18.0,-7.0,-9.0,-29.0,-8.0,67.0,0.0
3.0,2.0,-13.0,-22.0,-13.0,-3.0,-4.0,-25.0,-26.0,-70.0,0.0
3.0,5.0,12.0,-25.0,-2.0,-1.0,9.0,-5.0,-23.0,-74.0,0.0
-3.0,25.0,20.0,-14.0,3.0,-8.0,2.0,-13.0,-41.0,-87.0,0.0
-10.0,34.0,24.0,-4.0,15.0,-2.0,0.0,-11.0,-36.0,-73.0,0.0
-13.0,11.0,3.0,-1.0,20.0,10.0,10.0,6.0,-4.0,-33.0,0.0
-5.0,-3.0,3.0,-8.0,2.0,7.0,10.0,14.0,-5.0,-16.0,0.0
15.0,1.0,10.0,-11.0,-8.0,7.0,-5.0,8.0,-15.0,6.0,0.0
23.0,15.0,7.0,-8.0,-7.0,-2.0,-15.0,-9.0,-10.0,16.0,0.0
15.0,25.0,18.0,-10.0,-4.0,-9.0,-21.0,-4.0,-8.0,6.0,0.0
19.0,19.0,8.0,-6.0,-9.0,-7.0,-12.0,-15.0,-2.0,14.0,0.0
16.0,17.0,5.0,2.0,-7.0,-5.0,-1.0,-13.0,4.0,24.0,0.0
1.0,22.0,-2.0,8.0,-1.0,-11.0,-10.0,-5.0,-20.0,-4.0,0.0
-10.0,16.0,-5.0,11.0,6.0,-8.0,2.0,2.0,-36.0,-47.0,0.0
-10.0,-3.0,17.0,4.0,0.0,-4.0,11.0,10.0,-19.0,-57.0,0.0
-9.0,-26.0,4.0,-10.0,-7.0,-14.0,-2.0,9.0,1.0,-34.0,0.0
20.0,-19.0,-14.0,-21.0,-18.0,-25.0,-16.0,-16.0,-9.0,1.0,0.0
69.0,2.0,-3.0,-1.0,-15.0,-28.0,-28.0,-41.0,-22.0,41.0,0.0
92.0,25.0,6.0,12.0,-18.0,-35.0,-27.0,-46.0,-7.0,91.0,0.0
84.0,30.0,7.0,8.0,-31.0,-35.0,-27.0,-43.0,-16.0,87.0,0.0
75.0,43.0,22.0,21.0,-17.0,-16.0,-14.0,-27.0,-15.0,81.0,0.0
77.0,30.0,23.0,24.0,-23.0,-2.0,-3.0,-3.0,46.0,113.0,0.0
82.0,27.0,6.0,9.0,-45.0,-6.0,3.0,16.0,109.0,212.0,0.0
51.0,19.0,8.0,-5.0,-34.0,-13.0,-5.0,9.0,119.0,321.0,0.0
-23.0,-33.0,-25.0,-30.0,-35.0,-17.0,-18.0,-10.0,71.0,310.0,0.0
-10.0,-30.0,-19.0,-32.0,-45.0,-23.0,-6.0,1.0,65.0,224.0,0.0
6.0,8.0,10.0,-7.0,-24.0,-11.0,13.0,46.0,71.0,131.0,0.0
-57.0,31.0,49.0,13.0,2.0,18.0,15.0,40.0,5.0,-46.0,0.0
-148.0,-3.0,66.0,26.0,29.0,46.0,46.0,36.0,-30.0,-197.0,0.0
-223.0,-65.0,46.0,21.0,30.0,68.0,62.0,35.0,-51.0,-261.0,0.0
-263.0,-90.0,38.0,24.0,43.0,80.0,70.0,40.0,-84.0,-344.0,0.0
-232.0,-71.0,46.0,48.0,46.0,78.0,69.0,35.0,-97.0,-351.0,0.0
-161.0,-39.0,47.0,51.0,38.0,58.0,56.0,14.0,-91.0,-272.0,0.0
-104.0,-21.0,32.0,32.0,23.0,35.0,35.0,-1.0,-73.0,-171.0,0.0
-81.0,-21.0,4.0,10.0,0.0,22.0,29.0,-4.0,-45.0,-115.0,0.0
-92.0,-37.0,-21.0,3.0,-8.0,18.0,38.0,10.0,-18.0,-111.0,0.0
-99.0,-57.0,-22.0,2.0,-6.0,24.0,36.0,18.0,17.0,-96.0,0.0
-73.0,-41.0,9.0,13.0,0.0,21.0,23.0,19.0,41.0,-54.0,0.0
-18.0,3.0,28.0,14.0,7.0,17.0,13.0,16.0,41.0,-12.0,0.0
18.0,17.0,7.0,21.0,2.0,8.0,2.0,25.0,30.0,-5.0,0.0
33.0,-4.0,8.0,12.0,-15.0,0.0,-12.0,28.0,30.0,47.0,0.0
38.0,-9.0,-9.0,-2.0,-27.0,10.0,-16.0,12.0,31.0,120.0,0.0
26.0,-10.0,-3.0,-9.0,-32.0,8.0,-26.0,5.0,-12.0,129.0,0.0
11.0,-11.0,-2.0,5.0,-18.0,8.0,-23.0,-7.0,-47.0,-8.0,0.0
20.0,1.0,17.0,30.0,0.0,22.0,-6.0,-8.0,-51.0,-80.0,0.0
46.0,21.0,34.0,41.0,13.0,18.0,-6.0,-14.0,-65.0,-108.0,0.0
41.0,20.0,33.0,26.0,0.0,10.0,-4.0,-18.0,-59.0,-103.0,0.0
45.0,19.0,27.0,9.0,-17.0,-1.0,-6.0,-7.0,-15.0,-35.0,0.0
50.0,29.0,25.0,14.0,-7.0,-3.0,-14.0,-2.0,17.0,40.0,0.0
55.0,32.0,25.0,12.0,1.0,-2.0,-14.0,-11.0,12.0,68.0,0.0
61.0,19.0,25.0,8.0,-13.0,-4.0,-16.0,-14.0,-2.0,79.0,0.0
46.0,0.0,-1.0,-9.0,-22.0,-7.0,-23.0,-30.0,-8.0,38.0,0.0
18.0,-13.0,4.0,-2.0,-21.0,-2.0,-23.0,-34.0,-2.0,-18.0,0.0
7.0,-13.0,-1.0,0.0,-13.0,3.0,-17.0,-19.0,28.0,5.0,0.0
4.0,-10.0,-10.0,0.0,-8.0,-7.0,-8.0,-4.0,63.0,51.0,0.0
2.0,-1.0,7.0,4.0,11.0,-10.0,-6.0,0.0,64.0,62.0,0.0
21.0,-4.0,13.0,-17.0,9.0,1.0,-1.0,10.0,55.0,49.0,0.0
23.0,-10.0,1.0,-16.0,1.0,14.0,0.0,15.0,63.0,42.0,0.0
31.0,-9.0,-9.0,-4.0,-2.0,17.0,-1.0,9.0,50.0,24.0,0.0
24.0,2.0,3.0,-3.0,-1.0,2.0,-3.0,4.0,35.0,24.0,0.0
6.0,16.0,20.0,-4.0,9.0,1.0,3.0,1.0,33.0,34.0,0.0
-1.0,24.0,10.0,1.0,12.0,8.0,0.0,-6.0,18.0,19.0,0.0
-1.0,34.0,-1.0,8.0,7.0,-2.0,-3.0,-5.0,6.0,19.0,0.0
2.0,33.0,12.0,14.0,13.0,-1.0,-4.0,-6.0,-6.0,6.0,0.0
-4.0,32.0,20.0,15.0,22.0,13.0,-2.0,-3.0,-16.0,16.0,0.0
12.0,22.0,15.0,7.0,17.0,11.0,-1.0,0.0,-11.0,64.0,0.0
27.0,15.0,-6.0,-6.0,15.0,1.0,-4.0,0.0,-6.0,71.0,0.0
18.0,21.0,-5.0,0.0,13.0,-14.0,-2.0,-9.0,-25.0,14.0,0.0
-8.0,23.0,14.0,10.0,19.0,-6.0,3.0,-2.0,-27.0,-3.0,0.0
-28.0,16.0,18.0,16.0,23.0,8.0,19.0,15.0,-24.0,-9.0,0.0
-26.0,25.0,9.0,14.0,26.0,12.0,21.0,5.0,-52.0,-16.0,0.0
1.0,37.0,18.0,-1.0,24.0,6.0,25.0,-15.0,-62.0,18.0,0.0
24.0,32.0,4.0,-3.0,15.0,-6.0,12.0,-14.0,-10.0,79.0,0.0
24.0,19.0,-15.0,-2.0,0.0,-18.0,3.0,-19.0,17.0,97.0,0.0
21.0,21.0,11.0,2.0,3.0,-1.0,4.0,-18.0,-23.0,62.0,0.0
1.0,22.0,8.0,0.0,13.0,7.0,1.0,-20.0,-42.0,-4.0,0.0
-19.0,0.0,-31.0,-11.0,2.0,0.0,-2.0,-3.0,-20.0,-29.0,0.0
-37.0,-14.0,-40.0,-6.0,-11.0,-4.0,-13.0,5.0,22.0,-10.0,0.0
-38.0,-4.0,-22.0,-4.0,-7.0,-8.0,-16.0,7.0,59.0,0.0,0.0
-5.0,2.0,0.0,-3.0,-13.0,-16.0,-15.0,19.0,79.0,43.0,0.0
6.0,0.0,-15.0,-3.0,-24.0,-27.0,-13.0,26.0,83.0,90.0,0.0
-4.0,-16.0,-23.0,-11.0,-26.0,-18.0,-9.0,22.0,60.0,101.0,0.0
-23.0,-32.0,-27.0,-7.0,-18.0,-4.0,4.0,25.0,39.0,76.0,0.0
-15.0,-26.0,-21.0,-5.0,-15.0,-2.0,0.0,11.0,11.0,50.0,0.0
0.0,-19.0,-18.0,-16.0,-15.0,-8.0,-11.0,-5.0,-25.0,-6.0,0.0
0.0,-14.0,-10.0,-30.0,-11.0,-17.0,-10.0,-11.0,-28.0,-33.0,0.0
9.0,-9.0,-14.0,-29.0,0.0,-15.0,0.0,-7.0,-39.0,-34.0,0.0
15.0,-18.0,-4.0,-27.0,-7.0,-1.0,2.0,-7.0,-46.0,-31.0,0.0
0.0,-32.0,-14.0,-23.0,-8.0,7.0,-2.0,-21.0,-60.0,-66.0,0.0
-29.0,-36.0,-7.0,-12.0,-4.0,6.0,9.0,-21.0,-72.0,-118.0,0.0
-34.0,-32.0,-6.0,0.0,1.0,13.0,16.0,-13.0,-64.0,-109.0,0.0
5.0,-26.0,3.0,-4.0,-7.0,-5.0,3.0,-8.0,-11.0,-71.0,0.0
43.0,-20.0,3.0,-10.0,-22.0,-15.0,-12.0,32.0,85.0,-6.0,0.0
61.0,-9.0,0.0,-11.0,-21.0,-14.0,2.0,61.0,124.0,50.0,0.0
78.0,14.0,18.0,-10.0,-6.0,-7.0,-1.0,30.0,53.0,14.0,0.0
75.0,50.0,29.0,-6.0,-15.0,-26.0,-23.0,-4.0,-3.0,-16.0,0.0
46.0,83.0,33.0,-12.0,-25.0,-42.0,-37.0,-15.0,-17.0,-21.0,0.0
9.0,91.0,26.0,-10.0,-31.0,-36.0,-31.0,-6.0,-6.0,-23.0,0.0
1.0,50.0,-10.0,-8.0,-28.0,-18.0,-20.0,-6.0,2.0,-7.0,0.0
-6.0,0.0,-17.0,-29.0,-38.0,-23.0,-21.0,11.0,35.0,38.0,0.0
-13.0,-14.0,-17.0,-43.0,-45.0,-25.0,-13.0,40.0,68.0,55.0,0.0
9.0,-2.0,-17.0,-43.0,-38.0,-27.0,-15.0,41.0,82.0,100.0,0.0
11.0,-20.0,-27.0,-47.0,-40.0,-29.0,-32.0,23.0,89.0,142.0,0.0
14.0,-9.0,-9.0,-18.0,-30.0,-29.0,-40.0,9.0,63.0,116.0,0.0
-6.0,17.0,29.0,16.0,2.0,-10.0,-26.0,-4.0,4.0,12.0,0.0
-38.0,13.0,36.0,20.0,20.0,-3.0,-2.0,4.0,-4.0,-32.0,0.0
-61.0,-1.0,32.0,22.0,21.0,9.0,10.0,22.0,20.0,-20.0,0.0
-54.0,0.0,31.0,20.0,22.0,18.0,13.0,32.0,21.0,-28.0,0.0
-36.0,14.0,30.0,36.0,14.0,10.0,1.0,22.0,4.0,-45.0,0.0
-34.0,34.0,21.0,43.0,8.0,3.0,-5.0,7.0,-4.0,-64.0,0.0
-35.0,37.0,1.0,35.0,3.0,2.0,-5.0,6.0,5.0,-51.0,0.0
-25.0,30.0,1.0,29.0,0.0,10.0,-4.0,6.0,-3.0,-46.0,0.0
-32.0,16.0,14.0,38.0,7.0,5.0,0.0,1.0,-11.0,-61.0,0.0
-53.0,-3.0,25.0,27.0,23.0,11.0,7.0,4.0,-13.0,-80.0,0.0
-44.0,-14.0,21.0,12.0,16.0,15.0,14.0,0.0,-7.0,-74.0,0.0
12.0,-12.0,0.0,1.0,-6.0,4.0,11.0,3.0,8.0,-27.0,0.0
29.0,-7.0,-16.0,12.0,-5.0,-4.0,0.0,-6.0,-2.0,-15.0,0.0
8.0,-26.0,-5.0,2.0,1.0,-10.0,-6.0,-7.0,-3.0,-24.0,0.0
7.0,-18.0,11.0,1.0,0.0,-17.0,-10.0,-7.0,10.0,-3.0,0.0
13.0,-15.0,21.0,6.0,0.0,-19.0,-11.0,-17.0,6.0,0.0,0.0
4.0,-18.0,21.0,8.0,5.0,-17.0,0.0,-27.0,-4.0,-16.0,0.0
-4.0,-21.0,6.0,10.0,7.0,-9.0,10.0,-21.0,-17.0,-14.0,0.0
35.0,-12.0,-16.0,0.0,5.0,-15.0,7.0,-3.0,3.0,64.0,0.0
86.0,1.0,0.0,13.0,0.0,-18.0,6.0,-10.0,31.0,149.0,0.0
101.0,4.0,12.0,3.0,-4.0,-9.0,11.0,-3.0,51.0,181.0,0.0
65.0,-14.0,7.0,0.0,-4.0,-5.0,16.0,7.0,32.0,198.0,0.0
10.0,-33.0,-12.0,-10.0,-11.0,-15.0,2.0,-3.0,4.0,134.0,0.0
-21.0,-35.0,-13.0,-13.0,-11.0,-18.0,-15.0,-20.0,-10.0,-32.0,0.0
-34.0,-12.0,12.0,9.0,7.0,5.0,1.0,-11.0,-9.0,-133.0,0.0
-64.0,-3.0,18.0,24.0,20.0,11.0,11.0,3.0,-23.0,-141.0,0.0
-66.0,-18.0,9.0,10.0,4.0,-1.0,10.0,2.0,-8.0,-80.0,0.0
-51.0,-19.0,-2.0,-4.0,6.0,0.0,-3.0,-28.0,-35.0,-74.0,0.0
-38.0,-11.0,9.0,2.0,24.0,3.0,-4.0,-42.0,-66.0,-82.0,0.0
-28.0,-2.0,20.0,-8.0,36.0,1.0,3.0,-41.0,-65.0,-84.0,0.0
-2.0,0.0,-1.0,-29.0,23.0,3.0,5.0,-11.0,-31.0,-56.0,0.0
-7.0,2.0,-15.0,-16.0,17.0,12.0,11.0,0.0,-32.0,-57.0,0.0
-36.0,-5.0,-12.0,0.0,12.0,18.0,23.0,8.0,-22.0,-59.0,0.0
-20.0,-3.0,-27.0,2.0,11.0,16.0,21.0,4.0,-6.0,-42.0,0.0
20.0,24.0,-14.0,11.0,12.0,18.0,18.0,-7.0,6.0,-37.0,0.0
19.0,32.0,-15.0,18.0,17.0,29.0,33.0,10.0,40.0,-34.0,0.0
3.0,2.0,-24.0,14.0,15.0,26.0,35.0,15.0,72.0,59.0,0.0
1.0,-17.0,-10.0,0.0,0.0,0.0,16.0,6.0,59.0,181.0,0.0
-1.0,-16.0,-28.0,-14.0,-5.0,-9.0,-2.0,-11.0,14.0,160.0,0.0
-12.0,-9.0,-20.0,-5.0,11.0,-5.0,-8.0,-15.0,-19.0,23.0,0.0
-14.0,-19.0,-22.0,1.0,5.0,-8.0,-19.0,-9.0,2.0,37.0,0.0
-4.0,-8.0,-10.0,4.0,3.0,-1.0,-41.0,-12.0,20.0,22.0,0.0
5.0,1.0,-6.0,5.0,8.0,0.0,-37.0,-12.0,6.0,-89.0,0.0
47.0,33.0,3.0,11.0,15.0,-1.0,-19.0,10.0,2.0,-71.0,0.0
56.0,48.0,18.0,22.0,16.0,-2.0,-15.0,6.0,-27.0,-41.0,0.0
14.0,22.0,-1.0,7.0,16.0,-15.0,-13.0,-9.0,-35.0,-22.0,0.0
-17.0,-10.0,-20.0,0.0,17.0,-10.0,2.0,-1.0,-18.0,-46.0,0.0
-10.0,-3.0,12.0,2.0,23.0,8.0,16.0,15.0,1.0,-58.0,0.0
-5.0,1.0,25.0,26.0,21.0,15.0,20.0,20.0,4.0,-46.0,0.0
-2.0,-5.0,19.0,18.0,20.0,8.0,3.0,12.0,14.0,-21.0,0.0
-1.0,1.0,21.0,17.0,22.0,7.0,-6.0,-3.0,-4.0,3.0,0.0
-10.0,3.0,12.0,30.0,17.0,10.0,-15.0,-37.0,-39.0,-22.0,0.0
-7.0,12.0,6.0,17.0,10.0,11.0,-26.0,-39.0,-22.0,-24.0,0.0
-10.0,1.0,-19.0,5.0,-4.0,10.0,-4.0,-10.0,6.0,4.0,0.0
-10.0,-2.0,-25.0,-8.0,-6.0,2.0,8.0,3.0,25.0,22.0,0.0
-17.0,-5.0,-38.0,-5.0,-9.0,9.0,18.0,25.0,47.0,31.0,0.0
-3.0,-8.0,-35.0,-10.0,-18.0,14.0,23.0,41.0,55.0,39.0,0.0
8.0,-4.0,-18.0,-4.0,-20.0,12.0,14.0,28.0,48.0,48.0,0.0
7.0,0.0,-19.0,-9.0,-16.0,11.0,5.0,19.0,41.0,48.0,0.0
10.0,6.0,-4.0,0.0,-15.0,10.0,-2.0,10.0,24.0,15.0,0.0
3.0,11.0,20.0,19.0,0.0,14.0,5.0,-6.0,-8.0,1.0,0.0
-9.0,4.0,33.0,19.0,11.0,13.0,6.0,-9.0,-29.0,-4.0,0.0
-7.0,1.0,33.0,8.0,13.0,15.0,6.0,-6.0,-46.0,-10.0,0.0
4.0,-2.0,24.0,-2.0,-2.0,2.0,0.0,-5.0,-34.0,3.0,0.0
18.0,-11.0,-4.0,0.0,-5.0,0.0,-7.0,-12.0,-28.0,9.0,0.0
13.0,-16.0,-24.0,3.0,-2.0,7.0,-1.0,-20.0,-30.0,2.0,0.0
22.0,16.0,-19.0,12.0,1.0,5.0,-10.0,-22.0,-40.0,-2.0,0.0
52.0,41.0,6.0,7.0,-12.0,2.0,-25.0,-22.0,-13.0,31.0,0.0
75.0,11.0,4.0,-16.0,-32.0,-8.0,-29.0,13.0,97.0,142.0,0.0
87.0,-13.0,8.0,-17.0,-28.0,-10.0,-17.0,24.0,119.0,200.0,0.0
101.0,13.0,-5.0,-14.0,-17.0,-15.0,-17.0,2.0,67.0,177.0,0.0
115.0,54.0,5.0,-3.0,-14.0,-11.0,-29.0,-17.0,29.0,127.0,0.0
82.0,56.0,12.0,11.0,-8.0,-6.0,-42.0,-12.0,24.0,51.0,0.0
57.0,39.0,8.0,6.0,-3.0,-8.0,-39.0,2.0,45.0,-1.0,0.0
52.0,27.0,-12.0,10.0,0.0,-4.0,-15.0,23.0,84.0,81.0,0.0
35.0,10.0,-24.0,8.0,0.0,0.0,-13.0,32.0,91.0,149.0,0.0
-11.0,-1.0,-21.0,6.0,10.0,9.0,-22.0,26.0,38.0,83.0,0.0
-62.0,-9.0,-7.0,14.0,24.0,20.0,-6.0,21.0,-6.0,2.0,0.0
-94.0,-16.0,-16.0,12.0,28.0,23.0,16.0,26.0,-15.0,-87.0,0.0
-108.0,-15.0,7.0,4.0,31.0,34.0,23.0,18.0,-28.0,-142.0,0.0
-99.0,3.0,24.0,1.0,38.0,33.0,16.0,6.0,-49.0,-163.0,0.0
-67.0,20.0,30.0,13.0,40.0,24.0,10.0,-3.0,-65.0,-153.0,0.0
-39.0,16.0,28.0,23.0,30.0,24.0,-1.0,-13.0,-65.0,-117.0,0.0
-27.0,-3.0,25.0,22.0,19.0,22.0,-2.0,-10.0,-54.0,-68.0,0.0
12.0,-9.0,15.0,16.0,13.0,17.0,5.0,9.0,-18.0,3.0,0.0
27.0,-4.0,15.0,16.0,7.0,13.0,8.0,16.0,21.0,64.0,0.0
20.0,-8.0,23.0,6.0,1.0,16.0,7.0,2.0,14.0,89.0,0.0
-6.0,-19.0,22.0,0.0,4.0,12.0,-8.0,-11.0,-13.0,61.0,0.0
-19.0,-21.0,19.0,-7.0,0.0,0.0,-17.0,-19.0,-22.0,-16.0,0.0
-13.0,-6.0,22.0,0.0,2.0,8.0,-8.0,5.0,-27.0,-75.0,0.0
0.0,10.0,18.0,7.0,9.0,12.0,0.0,12.0,-34.0,-88.0,0.0
-3.0,16.0,14.0,-5.0,7.0,4.0,2.0,1.0,-46.0,-88.0,0.0
12.0,13.0,-8.0,-27.0,-4.0,2.0,-9.0,-17.0,-56.0,-64.0,0.0
78.0,33.0,-19.0,-32.0,-10.0,-7.0,-17.0,-40.0,-64.0,-9.0,0.0
146.0,66.0,3.0,-39.0,-19.0,-24.0,-24.0,-41.0,-71.0,53.0,0.0
186.0,75.0,13.0,-41.0,-27.0,-32.0,-22.0,-32.0,-34.0,106.0,0.0
163.0,68.0,7.0,-37.0,-29.0,-35.0,-18.0,-22.0,-1.0,153.0,0.0
95.0,54.0,-1.0,-32.0,-25.0,-34.0,-24.0,-16.0,8.0,135.0,0.0
0.0,10.0,-25.0,-28.0,-27.0,-22.0,-4.0,20.0,29.0,61.0,0.0
-59.0,-30.0,-8.0,-1.0,-14.0,-6.0,17.0,39.0,12.0,11.0,0.0
-77.0,-47.0,3.0,27.0,0.0,19.0,28.0,37.0,-5.0,-50.0,0.0
-72.0,-18.0,19.0,39.0,11.0,32.0,43.0,39.0,1.0,-106.0,0.0
-56.0,15.0,15.0,42.0,7.0,23.0,32.0,16.0,0.0,-99.0,0.0
-59.0,0.0,0.0,26.0,0.0,2.0,7.0,-1.0,-25.0,-86.0,0.0
-69.0,-29.0,-31.0,20.0,-11.0,-10.0,6.0,-4.0,-19.0,-97.0,0.0
-67.0,-32.0,-23.0,14.0,-15.0,-4.0,15.0,5.0,11.0,-83.0,0.0
-80.0,-32.0,-33.0,21.0,0.0,11.0,17.0,17.0,25.0,-89.0,0.0
-87.0,-35.0,-29.0,24.0,12.0,7.0,11.0,-3.0,8.0,-96.0,0.0
-68.0,-33.0,-30.0,14.0,5.0,-5.0,12.0,-7.0,1.0,-59.0,0.0
-72.0,-30.0,0.0,13.0,2.0,-12.0,13.0,1.0,3.0,-46.0,0.0
-63.0,-34.0,21.0,10.0,1.0,-5.0,7.0,-6.0,25.0,-4.0,0.0
-34.0,-23.0,2.0,4.0,5.0,-9.0,0.0,-4.0,23.0,48.0,0.0
-9.0,-16.0,-20.0,4.0,5.0,-9.0,-4.0,-7.0,-14.0,27.0,0.0
-4.0,-19.0,-26.0,15.0,-3.0,-1.0,-3.0,-15.0,-40.0,-3.0,0.0
3.0,-18.0,-30.0,15.0,-8.0,0.0,1.0,-14.0,-51.0,11.0,0.0
17.0,-12.0,-29.0,9.0,-5.0,-8.0,1.0,-18.0,-47.0,13.0,0.0
22.0,-6.0,-5.0,12.0,7.0,-5.0,-5.0,-26.0,-68.0,8.0,0.0
21.0,-9.0,-14.0,-7.0,5.0,1.0,-7.0,-25.0,-69.0,0.0,0.0
8.0,-30.0,-22.0,-21.0,1.0,-1.0,-7.0,-24.0,-36.0,18.0,0.0
-2.0,-41.0,-47.0,-42.0,-28.0,-28.0,-18.0,-3.0,58.0,78.0,0.0
9.0,-37.0,-51.0,-44.0,-45.0,-41.0,-30.0,49.0,157.0,97.0,0.0
10.0,-19.0,-23.0,-15.0,-16.0,-27.0,-19.0,46.0,158.0,38.0,0.0
6.0,-4.0,0.0,-4.0,0.0,-8.0,-16.0,18.0,85.0,-14.0,0.0
11.0,12.0,29.0,0.0,7.0,-12.0,-23.0,-4.0,28.0,-17.0,0.0
23.0,26.0,33.0,4.0,0.0,-17.0,-19.0,-14.0,10.0,15.0,0.0
13.0,14.0,18.0,-1.0,0.0,-13.0,-12.0,-18.0,6.0,39.0,0.0
14.0,0.0,-3.0,-14.0,-3.0,-8.0,0.0,-3.0,7.0,37.0,0.0
14.0,-10.0,14.0,-15.0,-8.0,-8.0,-7.0,1.0,10.0,25.0,0.0
0.0,-14.0,28.0,6.0,2.0,-21.0,-10.0,-5.0,3.0,0.0,0.0
-11.0,-11.0,22.0,9.0,15.0,-27.0,-2.0,7.0,-11.0,-22.0,0.0
0.0,-3.0,25.0,10.0,7.0,-19.0,-1.0,14.0,-15.0,-6.0,0.0
12.0,-10.0,30.0,4.0,0.0,-11.0,3.0,-4.0,-17.0,10.0,0.0
12.0,-15.0,29.0,9.0,3.0,0.0,7.0,-4.0,-14.0,-2.0,0.0
8.0,-12.0,26.0,8.0,7.0,6.0,13.0,-4.0,-13.0,1.0,0.0
1.0,-24.0,12.0,8.0,14.0,11.0,15.0,2.0,0.0,-5.0,0.0
-6.0,-29.0,1.0,11.0,3.0,7.0,7.0,-9.0,0.0,-9.0,0.0
4.0,-13.0,-12.0,5.0,-10.0,-6.0,-5.0,-17.0,-5.0,1.0,0.0
1.0,-20.0,2.0,3.0,-4.0,-8.0,1.0,-13.0,-21.0,17.0,0.0
3.0,-24.0,19.0,12.0,2.0,-4.0,15.0,6.0,-22.0,19.0,0.0
21.0,-14.0,27.0,1.0,0.0,-2.0,16.0,9.0,-23.0,18.0,0.0
28.0,0.0,18.0,-7.0,5.0,3.0,19.0,8.0,-22.0,2.0,0.0
33.0,0.0,18.0,-5.0,5.0,6.0,27.0,3.0,-28.0,-17.0,0.0
26.0,12.0,22.0,-7.0,7.0,5.0,22.0,10.0,-51.0,-26.0,0.0
19.0,25.0,32.0,-2.0,16.0,13.0,20.0,6.0,-45.0,-31.0,0.0
18.0,37.0,24.0,3.0,10.0,17.0,25.0,-2.0,-37.0,-61.0,0.0
17.0,37.0,15.0,5.0,8.0,22.0,28.0,-9.0,-50.0,-82.0,0.0
0.0,13.0,9.0,2.0,-8.0,11.0,28.0,-8.0,-50.0,-65.0,0.0
-11.0,-5.0,-9.0,-7.0,-15.0,-1.0,7.0,-1.0,16.0,0.0,0.0
2.0,-1.0,-30.0,-29.0,-27.0,-9.0,-3.0,3.0,53.0,39.0,0.0
19.0,4.0,-20.0,-36.0,-27.0,-13.0,-3.0,5.0,62.0,48.0,0.0
24.0,16.0,4.0,-21.0,-18.0,-3.0,6.0,12.0,55.0,32.0,0.0
10.0,17.0,19.0,-12.0,-12.0,26.0,9.0,5.0,25.0,0.0,0.0
11.0,22.0,18.0,-7.0,-11.0,32.0,7.0,1.0,15.0,-14.0,0.0
13.0,18.0,6.0,-3.0,-4.0,25.0,6.0,-11.0,10.0,-19.0,0.0
8.0,10.0,3.0,3.0,-2.0,17.0,0.0,-11.0,2.0,-17.0,0.0
6.0,-1.0,1.0,2.0,-13.0,9.0,0.0,-13.0,2.0,-2.0,0.0
10.0,-11.0,-16.0,-7.0,-21.0,-5.0,-8.0,-2.0,20.0,48.0,0.0
14.0,0.0,-9.0,4.0,-16.0,-8.0,-3.0,-2.0,22.0,55.0,0.0
15.0,17.0,12.0,12.0,-9.0,-3.0,-6.0,-3.0,10.0,20.0,0.0
12.0,16.0,13.0,11.0,-6.0,-6.0,-13.0,-2.0,6.0,17.0,0.0
13.0,14.0,5.0,5.0,-16.0,-13.0,-8.0,-6.0,9.0,28.0,0.0
0.0,4.0,8.0,13.0,-13.0,-17.0,2.0,-3.0,-6.0,-3.0,0.0
-14.0,6.0,9.0,6.0,1.0,-5.0,14.0,-13.0,-16.0,-47.0,0.0
-12.0,14.0,18.0,1.0,6.0,0.0,11.0,-23.0,-36.0,-70.0,0.0
-11.0,10.0,17.0,0.0,3.0,-2.0,7.0,-32.0,-60.0,-92.0,0.0
-8.0,4.0,1.0,4.0,-3.0,-3.0,9.0,-25.0,-65.0,-72.0,0.0
7.0,0.0,-21.0,1.0,-11.0,-5.0,2.0,-10.0,-51.0,-27.0,0.0
33.0,1.0,-27.0,0.0,-21.0,-8.0,1.0,-17.0,-40.0,0.0,0.0
48.0,8.0,-4.0,-6.0,-18.0,-24.0,-7.0,-15.0,-19.0,14.0,0.0
52.0,33.0,12.0,-5.0,-11.0,-23.0,-4.0,-1.0,35.0,43.0,0.0
41.0,48.0,21.0,0.0,-6.0,-8.0,-2.0,9.0,57.0,44.0,0.0
-1.0,19.0,12.0,1.0,3.0,-9.0,-11.0,17.0,53.0,4.0,0.0
-44.0,0.0,13.0,1.0,8.0,-3.0,2.0,33.0,49.0,-29.0,0.0
-33.0,-5.0,9.0,-2.0,4.0,-7.0,8.0,47.0,37.0,-10.0,0.0
-6.0,-6.0,6.0,-8.0,3.0,-1.0,13.0,37.0,23.0,31.0,0.0
10.0,-9.0,9.0,-34.0,4.0,0.0,15.0,29.0,25.0,63.0,0.0
35.0,-5.0,4.0,-57.0,-2.0,-7.0,6.0,23.0,43.0,120.0,0.0
25.0,-7.0,-4.0,-48.0,-8.0,-13.0,5.0,22.0,39.0,80.0,0.0
-7.0,-18.0,3.0,-31.0,-8.0,-9.0,-9.0,19.0,17.0,-63.0,0.0
10.0,-1.0,3.0,-27.0,1.0,-18.0,-19.0,11.0,1.0,-35.0,0.0
35.0,-1.0,-27.0,-33.0,1.0,-19.0,-28.0,-1.0,-4.0,47.0,0.0
52.0,8.0,-31.0,-24.0,-2.0,-18.0,-30.0,-15.0,-2.0,77.0,0.0
62.0,20.0,-4.0,-14.0,5.0,-6.0,-24.0,-1.0,5.0,107.0,0.0
59.0,19.0,6.0,-13.0,9.0,10.0,-9.0,6.0,0.0,72.0,0.0
44.0,13.0,-12.0,-10.0,5.0,17.0,-2.0,5.0,5.0,30.0,0.0
-8.0,-8.0,-35.0,-18.0,-2.0,17.0,2.0,11.0,6.0,19.0,0.0
-70.0,-43.0,-23.0,-14.0,10.0,22.0,4.0,3.0,-30.0,-81.0,0.0
-84.0,-29.0,-24.0,2.0,22.0,36.0,21.0,11.0,-59.0,-225.0,0.0
-99.0,-16.0,-7.0,16.0,32.0,47.0,40.0,24.0,-74.0,-271.0,0.0
-121.0,-15.0,6.0,17.0,29.0,52.0,34.0,14.0,-83.0,-271.0,0.0
-105.0,-12.0,0.0,-11.0,25.0,41.0,26.0,9.0,-61.0,-224.0,0.0
-73.0,-8.0,-28.0,-22.0,9.0,25.0,19.0,21.0,-27.0,-151.0,0.0
-48.0,-8.0,-36.0,-26.0,-3.0,17.0,10.0,25.0,10.0,-78.0,0.0
-32.0,-11.0,-48.0,-29.0,-3.0,3.0,-2.0,12.0,32.0,12.0,0.0
-25.0,-8.0,-56.0,-26.0,-1.0,-7.0,-12.0,1.0,7.0,32.0,0.0
-46.0,-15.0,-40.0,-16.0,4.0,-10.0,-18.0,-8.0,-35.0,-17.0,0.0
-44.0,-13.0,-24.0,-3.0,15.0,1.0,-7.0,-13.0,-38.0,-55.0,0.0
-21.0,0.0,-20.0,3.0,18.0,10.0,-5.0,-17.0,-35.0,-67.0,0.0
-21.0,15.0,-4.0,9.0,20.0,21.0,-5.0,-22.0,-63.0,-84.0,0.0
-32.0,24.0,19.0,10.0,18.0,25.0,-8.0,-34.0,-80.0,-107.0,0.0
-18.0,21.0,24.0,0.0,9.0,18.0,-8.0,-31.0,-81.0,-97.0,0.0
-13.0,4.0,-3.0,0.0,-5.0,2.0,-13.0,-23.0,-40.0,-50.0,0.0
-26.0,-8.0,-36.0,-28.0,-26.0,-24.0,-26.0,-10.0,6.0,-14.0,0.0
-11.0,-11.0,-44.0,-25.0,-23.0,-30.0,-29.0,-14.0,1.0,4.0,0.0
21.0,-5.0,-39.0,-13.0,-8.0,-24.0,-29.0,-14.0,19.0,62.0,0.0
86.0,-7.0,-45.0,-14.0,-20.0,-26.0,-20.0,2.0,94.0,235.0,0.0
138.0,8.0,-35.0,-17.0,-23.0,-19.0,-18.0,19.0,135.0,349.0,0.0
131.0,28.0,-13.0,-8.0,-11.0,-5.0,-19.0,23.0,108.0,329.0,0.0
90.0,32.0,-7.0,1.0,-3.0,2.0,-14.0,15.0,75.0,267.0,0.0
8.0,-9.0,-41.0,-5.0,-11.0,0.0,-2.0,15.0,25.0,83.0,0.0
-48.0,-20.0,-19.0,16.0,2.0,11.0,0.0,23.0,-29.0,-168.0,0.0
-84.0,-8.0,14.0,44.0,17.0,26.0,0.0,15.0,-52.0,-270.0,0.0
-85.0,9.0,8.0,43.0,16.0,23.0,-4.0,3.0,-69.0,-264.0,0.0
-48.0,3.0,3.0,26.0,15.0,10.0,-18.0,0.0,-68.0,-187.0,0.0
-10.0,2.0,-6.0,14.0,14.0,4.0,-21.0,-8.0,-71.0,-121.0,0.0
-21.0,0.0,-9.0,5.0,-3.0,-2.0,-17.0,-21.0,-42.0,-92.0,0.0
-42.0,-26.0,-21.0,8.0,-14.0,-16.0,-11.0,-4.0,22.0,21.0,0.0
-17.0,-34.0,-18.0,3.0,-9.0,-25.0,-3.0,17.0,63.0,94.0,0.0
0.0,-20.0,-7.0,12.0,-2.0,-16.0,15.0,27.0,48.0,65.0,0.0
9.0,-2.0,-7.0,12.0,-1.0,-2.0,12.0,26.0,29.0,62.0,0.0
4.0,0.0,11.0,21.0,-2.0,4.0,-9.0,4.0,1.0,51.0,0.0
-25.0,-16.0,5.0,15.0,-4.0,1.0,-5.0,-4.0,-10.0,-6.0,0.0
-36.0,-29.0,-4.0,1.0,-7.0,4.0,25.0,21.0,15.0,-47.0,0.0
-18.0,-27.0,-2.0,3.0,-11.0,14.0,34.0,40.0,52.0,-14.0,0.0
-5.0,-23.0,-6.0,2.0,-13.0,-1.0,26.0,37.0,47.0,5.0,0.0
0.0,-21.0,-6.0,-2.0,-4.0,-3.0,20.0,27.0,20.0,10.0,0.0
-11.0,-9.0,16.0,5.0,-3.0,-7.0,29.0,8.0,-8.0,0.0,0.0
-23.0,-12.0,6.0,3.0,-3.0,-1.0,22.0,-9.0,-46.0,-52.0,0.0
-17.0,-17.0,20.0,11.0,0.0,15.0,25.0,-8.0,-59.0,-113.0,0.0
-21.0,-18.0,39.0,18.0,12.0,11.0,36.0,0.0,-60.0,-133.0,0.0
-21.0,-23.0,32.0,11.0,9.0,8.0,31.0,-12.0,-64.0,-88.0,0.0
0.0,-6.0,6.0,0.0,11.0,4.0,27.0,-27.0,-61.0,-15.0,0.0
23.0,2.0,1.0,-9.0,-6.0,-4.0,9.0,-27.0,-59.0,29.0,0.0
49.0,-4.0,0.0,-36.0,-24.0,-17.0,2.0,-22.0,-14.0,70.0,0.0
86.0,8.0,-14.0,-53.0,-28.0,-40.0,-16.0,-5.0,94.0,140.0,0.0
105.0,22.0,11.0,-42.0,-26.0,-43.0,-21.0,-2.0,120.0,120.0,0.0
97.0,47.0,34.0,-32.0,-11.0,-24.0,-10.0,-15.0,79.0,78.0,0.0
62.0,47.0,12.0,-35.0,-12.0,-12.0,-9.0,-22.0,55.0,68.0,0.0
22.0,35.0,5.0,-27.0,-7.0,-11.0,-4.0,-17.0,19.0,19.0,0.0
-27.0,0.0,17.0,-7.0,12.0,3.0,10.0,-10.0,-13.0,-41.0,0.0
-85.0,-35.0,2.0,-6.0,33.0,10.0,12.0,1.0,-32.0,-82.0,0.0
-113.0,-54.0,-9.0,-13.0,19.0,-7.0,3.0,2.0,-24.0,-91.0,0.0
-122.0,-64.0,-14.0,-6.0,12.0,-13.0,-10.0,16.0,21.0,-58.0,0.0
-106.0,-52.0,-4.0,1.0,18.0,-16.0,-8.0,39.0,63.0,2.0,0.0
-46.0,-19.0,16.0,12.0,20.0,-8.0,-10.0,35.0,65.0,39.0,0.0
4.0,2.0,-4.0,9.0,17.0,0.0,-13.0,26.0,34.0,39.0,0.0
15.0,3.0,-1.0,15.0,29.0,0.0,-8.0,13.0,2.0,13.0,0.0
8.0,-1.0,-6.0,13.0,37.0,-1.0,-1.0,2.0,-7.0,-17.0,0.0
9.0,0.0,6.0,6.0,37.0,-1.0,-9.0,-9.0,-33.0,-50.0,0.0
18.0,3.0,20.0,3.0,34.0,-2.0,-10.0,-2.0,-46.0,-49.0,0.0
36.0,23.0,24.0,11.0,27.0,9.0,-1.0,-5.0,-31.0,-51.0,0.0
31.0,42.0,10.0,12.0,22.0,4.0,0.0,-12.0,-31.0,-35.0,0.0
20.0,52.0,1.0,-3.0,11.0,-2.0,-13.0,-13.0,-25.0,-1.0,0.0
10.0,33.0,10.0,-12.0,1.0,9.0,-4.0,-1.0,1.0,13.0,0.0
20.0,20.0,-5.0,-19.0,9.0,11.0,6.0,4.0,21.0,47.0,0.0
45.0,12.0,-3.0,-22.0,19.0,10.0,-1.0,0.0,21.0,77.0,0.0
42.0,10.0,5.0,-16.0,1.0,24.0,-10.0,3.0,23.0,76.0,0.0
52.0,21.0,-5.0,-18.0,-11.0,19.0,-20.0,-2.0,32.0,69.0,0.0
73.0,29.0,10.0,-16.0,-12.0,1.0,-19.0,0.0,33.0,96.0,0.0
67.0,47.0,24.0,-14.0,-8.0,-9.0,-27.0,-16.0,-8.0,107.0,0.0
42.0,48.0,23.0,-4.0,-9.0,-11.0,-29.0,-34.0,-50.0,39.0,0.0
17.0,29.0,23.0,-2.0,8.0,-1.0,-24.0,-32.0,-67.0,-34.0,0.0
-3.0,22.0,9.0,15.0,14.0,7.0,-23.0,-32.0,-70.0,-62.0,0.0
-14.0,22.0,10.0,26.0,9.0,0.0,-22.0,-35.0,-68.0,-70.0,0.0
-14.0,27.0,22.0,15.0,6.0,-11.0,-25.0,-31.0,-46.0,-43.0,0.0
-1.0,19.0,15.0,7.0,-4.0,-16.0,-26.0,-25.0,-18.0,5.0,0.0
9.0,16.0,19.0,20.0,-12.0,-21.0,-19.0,-13.0,0.0,24.0,0.0
11.0,15.0,17.0,15.0,-8.0,-24.0,-10.0,1.0,27.0,23.0,0.0
5.0,8.0,1.0,5.0,-8.0,-23.0,-5.0,13.0,39.0,16.0,0.0
-18.0,-12.0,-21.0,1.0,-2.0,-14.0,23.0,18.0,40.0,1.0,0.0
-12.0,-10.0,-22.0,3.0,-2.0,-4.0,18.0,14.0,23.0,-14.0,0.0
13.0,2.0,-27.0,4.0,-4.0,-2.0,18.0,16.0,20.0,8.0,0.0
26.0,4.0,-20.0,-10.0,-3.0,-6.0,19.0,15.0,13.0,48.0,0.0
31.0,-1.0,-19.0,-17.0,-2.0,-17.0,13.0,0.0,-15.0,84.0,0.0
26.0,-2.0,0.0,-11.0,1.0,-17.0,-2.0,-4.0,-43.0,53.0,0.0
31.0,10.0,-4.0,-12.0,12.0,0.0,-2.0,-11.0,-64.0,-6.0,0.0
39.0,23.0,13.0,4.0,29.0,12.0,8.0,-35.0,-89.0,-32.0,0.0
50.0,32.0,22.0,20.0,28.0,13.0,13.0,-39.0,-103.0,-22.0,0.0
42.0,8.0,10.0,8.0,14.0,0.0,8.0,-35.0,-83.0,1.0,0.0
7.0,-21.0,-19.0,-12.0,-3.0,-3.0,1.0,-18.0,-36.0,11.0,0.0
-2.0,-30.0,-26.0,-20.0,-7.0,-11.0,-6.0,0.0,4.0,15.0,0.0
5.0,-6.0,-20.0,2.0,-7.0,-5.0,0.0,-9.0,8.0,8.0,0.0
0.0,1.0,0.0,23.0,-10.0,9.0,14.0,-16.0,-4.0,-3.0,0.0
-16.0,-12.0,-23.0,16.0,-20.0,6.0,20.0,0.0,-1.0,31.0,0.0
-29.0,-14.0,-28.0,1.0,-15.0,-4.0,16.0,-1.0,-3.0,45.0,0.0
-27.0,-13.0,-34.0,-2.0,-9.0,-5.0,8.0,-8.0,13.0,10.0,0.0
-21.0,-16.0,-33.0,7.0,-3.0,-5.0,-3.0,7.0,43.0,31.0,0.0
-12.0,-19.0,-22.0,17.0,1.0,11.0,6.0,15.0,55.0,72.0,0.0
-4.0,-16.0,-5.0,21.0,0.0,17.0,12.0,14.0,27.0,43.0,0.0
-2.0,-14.0,2.0,12.0,-11.0,5.0,-2.0,5.0,15.0,18.0,0.0
5.0,-24.0,-6.0,-19.0,-13.0,1.0,-20.0,5.0,8.0,1.0,0.0
19.0,-15.0,12.0,-35.0,-8.0,-4.0,-19.0,13.0,-2.0,-13.0,0.0
30.0,-10.0,5.0,-27.0,-5.0,-9.0,-19.0,3.0,-3.0,-5.0,0.0
46.0,-2.0,16.0,-27.0,3.0,-3.0,-23.0,-9.0,0.0,32.0,0.0
54.0,17.0,26.0,-33.0,11.0,-3.0,-21.0,-14.0,9.0,83.0,0.0
48.0,8.0,31.0,-22.0,4.0,-17.0,-19.0,-7.0,16.0,108.0,0.0
39.0,-2.0,23.0,-16.0,-6.0,-23.0,-35.0,-7.0,11.0,91.0,0.0
28.0,-2.0,21.0,-18.0,-9.0,-27.0,-33.0,-6.0,31.0,55.0,0.0
20.0,19.0,35.0,-6.0,-2.0,-14.0,-24.0,18.0,49.0,35.0,0.0
5.0,22.0,33.0,-12.0,7.0,-2.0,-13.0,15.0,31.0,-4.0,0.0
-17.0,12.0,29.0,-16.0,12.0,8.0,-12.0,7.0,0.0,-34.0,0.0
-26.0,18.0,28.0,-10.0,9.0,12.0,-7.0,2.0,-13.0,-40.0,0.0
-27.0,6.0,20.0,-5.0,1.0,21.0,2.0,9.0,-14.0,-46.0,0.0
-15.0,-3.0,-9.0,-9.0,3.0,33.0,7.0,10.0,-14.0,-20.0,0.0
13.0,-4.0,1.0,5.0,4.0,41.0,0.0,1.0,-31.0,11.0,0.0
25.0,-1.0,8.0,20.0,11.0,42.0,-6.0,-12.0,-52.0,14.0,0.0
12.0,2.0,12.0,35.0,18.0,33.0,-5.0,-7.0,-52.0,21.0,0.0
-13.0,-3.0,22.0,28.0,15.0,25.0,-8.0,-8.0,-50.0,-5.0,0.0
-25.0,-16.0,23.0,18.0,15.0,16.0,-14.0,-4.0,-63.0,-66.0,0.0
-27.0,-3.0,22.0,14.0,16.0,18.0,-20.0,8.0,-72.0,-92.0,0.0
-15.0,13.0,21.0,-3.0,16.0,14.0,-17.0,8.0,-39.0,-78.0,0.0
-14.0,-1.0,12.0,-17.0,5.0,3.0,-19.0,28.0,58.0,-16.0,0.0
-14.0,-14.0,-15.0,-25.0,-12.0,-10.0,-28.0,43.0,173.0,58.0,0.0
-21.0,8.0,0.0,-9.0,-14.0,-2.0,-27.0,13.0,140.0,52.0,0.0
-33.0,13.0,16.0,10.0,3.0,2.0,-14.0,0.0,61.0,2.0,0.0
-13.0,12.0,6.0,9.0,6.0,0.0,-14.0,11.0,43.0,14.0,0.0
19.0,3.0,-7.0,-7.0,1.0,-3.0,-15.0,19.0,53.0,76.0,0.0
34.0,0.0,-25.0,-6.0,0.0,-5.0,-10.0,13.0,46.0,88.0,0.0
13.0,6.0,-6.0,3.0,4.0,0.0,6.0,5.0,12.0,45.0,0.0
16.0,29.0,5.0,24.0,8.0,3.0,1.0,-8.0,-23.0,4.0,0.0
52.0,39.0,10.0,34.0,8.0,3.0,-5.0,-17.0,-15.0,59.0,0.0
53.0,24.0,18.0,30.0,0.0,5.0,-5.0,-4.0,22.0,131.0,0.0
34.0,1.0,18.0,2.0,-9.0,5.0,-2.0,12.0,24.0,152.0,0.0
-14.0,-22.0,1.0,-15.0,-2.0,7.0,0.0,5.0,-7.0,36.0,0.0
-58.0,-24.0,-22.0,-8.0,6.0,14.0,0.0,-4.0,-39.0,-116.0,0.0
-17.0,-19.0,-18.0,-6.0,3.0,14.0,2.0,-5.0,-6.0,-37.0,0.0
47.0,9.0,-23.0,-10.0,-5.0,4.0,0.0,7.0,41.0,121.0,0.0
78.0,31.0,-9.0,7.0,-9.0,-14.0,-3.0,1.0,57.0,216.0,0.0
69.0,33.0,2.0,16.0,-11.0,-25.0,-10.0,-11.0,37.0,245.0,0.0
-2.0,4.0,-26.0,-5.0,-12.0,-27.0,-12.0,-20.0,-14.0,93.0,0.0
-63.0,-23.0,-15.0,7.0,-1.0,0.0,15.0,9.0,-18.0,-111.0,0.0
-92.0,-23.0,-14.0,31.0,8.0,35.0,51.0,23.0,8.0,-169.0,0.0
-107.0,-25.0,-8.0,40.0,10.0,40.0,46.0,13.0,0.0,-113.0,0.0
-87.0,-32.0,-10.0,28.0,0.0,19.0,15.0,8.0,-33.0,4.0,0.0
-51.0,-35.0,-43.0,0.0,-17.0,-13.0,-19.0,-24.0,-71.0,-6.0,0.0
-31.0,-26.0,-38.0,-3.0,-7.0,-12.0,-19.0,-27.0,-100.0,-114.0,0.0
-19.0,-18.0,0.0,18.0,12.0,0.0,0.0,8.0,-58.0,-128.0,0.0
-21.0,-22.0,25.0,32.0,9.0,18.0,7.0,25.0,0.0,-93.0,0.0
-24.0,-20.0,23.0,27.0,4.0,10.0,6.0,17.0,12.0,-97.0,0.0
-30.0,-10.0,17.0,27.0,11.0,2.0,5.0,6.0,-8.0,-88.0,0.0
-41.0,-27.0,4.0,28.0,7.0,0.0,6.0,6.0,-20.0,-60.0,0.0
-50.0,-38.0,-14.0,19.0,8.0,1.0,6.0,13.0,-1.0,-20.0,0.0
-62.0,-36.0,-7.0,19.0,14.0,4.0,16.0,31.0,31.0,-29.0,0.0
-52.0,-25.0,9.0,28.0,11.0,-1.0,23.0,39.0,48.0,-38.0,0.0
-14.0,-18.0,-1.0,19.0,9.0,-10.0,18.0,36.0,42.0,-15.0,0.0
17.0,-1.0,-6.0,0.0,2.0,-14.0,9.0,21.0,34.0,33.0,0.0
30.0,9.0,-1.0,-16.0,-4.0,-17.0,-8.0,-4.0,12.0,45.0,0.0
35.0,14.0,5.0,-4.0,3.0,-22.0,-9.0,-10.0,6.0,6.0,0.0
44.0,17.0,-8.0,15.0,8.0,-24.0,-12.0,-4.0,12.0,15.0,0.0
28.0,13.0,8.0,-1.0,12.0,-18.0,-17.0,-13.0,13.0,53.0,0.0
-3.0,-13.0,14.0,-32.0,2.0,-25.0,-28.0,-34.0,-16.0,34.0,0.0
-16.0,-29.0,10.0,-37.0,-1.0,-18.0,-15.0,-22.0,-19.0,-29.0,0.0
-9.0,-34.0,-6.0,-41.0,-3.0,-19.0,-4.0,-14.0,-15.0,-54.0,0.0
5.0,-18.0,0.0,-35.0,2.0,-21.0,-7.0,-5.0,-8.0,-35.0,0.0
4.0,-4.0,14.0,-24.0,8.0,-25.0,-8.0,-3.0,6.0,-17.0,0.0
-7.0,-5.0,20.0,-15.0,10.0,-21.0,-7.0,-11.0,8.0,-14.0,0.0
1.0,-13.0,12.0,-14.0,10.0,-25.0,0.0,-5.0,25.0,-16.0,0.0
-11.0,-19.0,19.0,-16.0,7.0,-17.0,21.0,7.0,33.0,-53.0,0.0
-30.0,-23.0,12.0,-14.0,15.0,-10.0,24.0,16.0,21.0,-59.0,0.0
-40.0,-14.0,-15.0,-11.0,9.0,-20.0,11.0,4.0,10.0,-47.0,0.0
-33.0,-7.0,2.0,-5.0,4.0,-25.0,9.0,-9.0,-7.0,-63.0,0.0
-4.0,-2.0,20.0,-1.0,7.0,-24.0,8.0,-5.0,-15.0,-76.0,0.0
19.0,0.0,19.0,13.0,4.0,-28.0,-1.0,-12.0,-16.0,-65.0,0.0
22.0,-9.0,21.0,27.0,0.0,-18.0,-1.0,-21.0,-22.0,-18.0,0.0
4.0,-42.0,4.0,12.0,-1.0,-7.0,-2.0,-28.0,-43.0,35.0,0.0
-8.0,-41.0,5.0,-2.0,-7.0,-9.0,-23.0,-26.0,-67.0,0.0,0.0
-1.0,-30.0,3.0,6.0,-2.0,-7.0,-13.0,-30.0,-74.0,-53.0,0.0
-12.0,-32.0,-13.0,19.0,10.0,6.0,17.0,-21.0,-73.0,-74.0,0.0
-14.0,-39.0,-6.0,20.0,2.0,4.0,11.0,-22.0,-75.0,-76.0,0.0
-8.0,-49.0,-14.0,11.0,-7.0,0.0,6.0,-23.0,-65.0,-42.0,0.0
0.0,-38.0,-28.0,3.0,-19.0,-18.0,-4.0,-18.0,-25.0,39.0,0.0
17.0,-20.0,-15.0,-10.0,-38.0,-36.0,-29.0,-5.0,42.0,138.0,0.0
51.0,-9.0,-25.0,-5.0,-40.0,-46.0,-37.0,24.0,103.0,208.0,0.0
87.0,5.0,-15.0,-2.0,-19.0,-48.0,-20.0,35.0,142.0,213.0,0.0
97.0,10.0,12.0,1.0,-13.0,-44.0,-16.0,28.0,123.0,214.0,0.0
77.0,10.0,24.0,1.0,-19.0,-45.0,-10.0,-2.0,79.0,178.0,0.0
44.0,19.0,22.0,0.0,-23.0,-38.0,-12.0,-23.0,33.0,48.0,0.0
13.0,21.0,21.0,0.0,-6.0,-27.0,-6.0,-13.0,0.0,-68.0,0.0
-20.0,16.0,20.0,9.0,11.0,-1.0,-2.0,-4.0,-7.0,-120.0,0.0
-55.0,0.0,17.0,11.0,20.0,11.0,9.0,5.0,-11.0,-144.0,0.0
-66.0,-8.0,6.0,-2.0,24.0,9.0,4.0,7.0,-20.0,-114.0,0.0
-38.0,1.0,-20.0,-15.0,15.0,15.0,0.0,1.0,-15.0,-66.0,0.0
-21.0,14.0,-26.0,-25.0,11.0,15.0,-7.0,-6.0,-3.0,-19.0,0.0
-20.0,3.0,-28.0,-32.0,7.0,17.0,-11.0,-4.0,11.0,6.0,0.0
-14.0,4.0,-11.0,-23.0,10.0,21.0,-5.0,-3.0,16.0,5.0,0.0
-17.0,5.0,-21.0,-15.0,16.0,34.0,3.0,10.0,6.0,-1.0,0.0
-17.0,0.0,-22.0,-11.0,22.0,38.0,6.0,8.0,-11.0,-19.0,0.0
-6.0,-3.0,-28.0,-4.0,15.0,15.0,14.0,12.0,-18.0,-16.0,0.0
0.0,-7.0,-20.0,-16.0,1.0,1.0,11.0,4.0,-17.0,-9.0,0.0
5.0,-17.0,-28.0,-29.0,-20.0,-22.0,-4.0,1.0,6.0,2.0,0.0
12.0,-2.0,-25.0,-28.0,-22.0,-19.0,-9.0,5.0,26.0,37.0,0.0
18.0,8.0,-25.0,-23.0,-2.0,-5.0,-1.0,1.0,18.0,62.0,0.0
13.0,-1.0,-19.0,-26.0,-8.0,4.0,-5.0,1.0,-10.0,50.0,0.0
-15.0,-16.0,-18.0,-25.0,-10.0,2.0,-14.0,-14.0,-40.0,-1.0,0.0
-20.0,-8.0,-22.0,-30.0,-14.0,1.0,-9.0,-35.0,-61.0,-75.0,0.0
-1.0,2.0,-13.0,-39.0,-8.0,1.0,-5.0,-26.0,-21.0,-61.0,0.0
10.0,0.0,-10.0,-40.0,-7.0,2.0,0.0,-12.0,21.0,-21.0,0.0
12.0,3.0,-6.0,-41.0,-12.0,14.0,13.0,0.0,15.0,0.0,0.0
11.0,-5.0,-6.0,-41.0,-9.0,23.0,14.0,-6.0,6.0,-5.0,0.0
5.0,-12.0,-3.0,-28.0,-7.0,25.0,20.0,-14.0,-12.0,-21.0,0.0
-19.0,-7.0,16.0,-12.0,-1.0,17.0,27.0,-5.0,-21.0,-46.0,0.0
-31.0,-17.0,16.0,20.0,4.0,9.0,21.0,-3.0,-6.0,-52.0,0.0
-12.0,2.0,9.0,32.0,10.0,15.0,22.0,-3.0,37.0,6.0,0.0
44.0,31.0,15.0,22.0,15.0,3.0,11.0,-1.0,65.0,96.0,0.0
93.0,40.0,10.0,4.0,12.0,-5.0,-3.0,1.0,57.0,157.0,0.0
106.0,40.0,21.0,0.0,0.0,-7.0,-10.0,-8.0,44.0,168.0,0.0
104.0,38.0,22.0,-2.0,-17.0,-17.0,-14.0,-14.0,24.0,150.0,0.0
61.0,25.0,3.0,-20.0,-18.0,-14.0,-8.0,-18.0,8.0,67.0,0.0
28.0,25.0,13.0,-27.0,-16.0,-12.0,-2.0,-12.0,-9.0,-39.0,0.0
-13.0,13.0,22.0,-11.0,-7.0,2.0,4.0,-6.0,-25.0,-84.0,0.0
-41.0,-1.0,26.0,0.0,9.0,15.0,20.0,0.0,-20.0,-98.0,0.0
-32.0,-11.0,20.0,-1.0,-1.0,20.0,16.0,2.0,3.0,-59.0,0.0
-18.0,-10.0,-10.0,-22.0,-10.0,13.0,5.0,9.0,18.0,-17.0,0.0
-15.0,-17.0,-21.0,-24.0,-8.0,-2.0,17.0,24.0,39.0,4.0,0.0
-14.0,-15.0,-27.0,-32.0,-14.0,-3.0,20.0,20.0,44.0,28.0,0.0
-9.0,-4.0,-32.0,-36.0,-20.0,0.0,17.0,15.0,37.0,73.0,0.0
-2.0,5.0,-28.0,-37.0,-10.0,-4.0,16.0,9.0,22.0,51.0,0.0
0.0,17.0,10.0,-9.0,9.0,3.0,17.0,1.0,-8.0,-31.0,0.0
-11.0,13.0,23.0,12.0,27.0,11.0,21.0,-8.0,-30.0,-96.0,0.0
-25.0,4.0,17.0,18.0,33.0,23.0,16.0,-2.0,-32.0,-101.0,0.0
-27.0,5.0,1.0,18.0,33.0,23.0,18.0,7.0,-22.0,-69.0,0.0
-17.0,10.0,9.0,27.0,37.0,19.0,12.0,10.0,-38.0,-38.0,0.0
-4.0,19.0,10.0,23.0,22.0,6.0,16.0,10.0,-34.0,-21.0,0.0
11.0,23.0,-2.0,9.0,5.0,1.0,17.0,-1.0,-30.0,-19.0,0.0
19.0,27.0,-7.0,1.0,-1.0,5.0,11.0,-20.0,-65.0,-47.0,0.0
26.0,33.0,7.0,4.0,3.0,9.0,4.0,-28.0,-64.0,-56.0,0.0
9.0,19.0,0.0,-2.0,-8.0,1.0,-1.0,-22.0,-2.0,-40.0,0.0
29.0,13.0,-13.0,-14.0,-8.0,-8.0,0.0,-15.0,8.0,-25.0,0.0
81.0,34.0,7.0,-13.0,-11.0,-12.0,-9.0,-26.0,-24.0,0.0,0.0
107.0,14.0,-15.0,-4.0,-36.0,-24.0,-6.0,-27.0,-10.0,59.0,0.0
83.0,-10.0,-49.0,-17.0,-57.0,-40.0,-21.0,-17.0,6.0,99.0,0.0
55.0,-1.0,-29.0,-7.0,-49.0,-37.0,-28.0,-17.0,15.0,88.0,0.0
37.0,13.0,-9.0,9.0,-35.0,-24.0,-13.0,-5.0,47.0,110.0,0.0
16.0,-5.0,-24.0,3.0,-22.0,-10.0,11.0,22.0,90.0,139.0,0.0
4.0,-22.0,-23.0,-1.0,-21.0,2.0,29.0,51.0,115.0,180.0,0.0
-13.0,-26.0,-15.0,-14.0,-30.0,11.0,30.0,52.0,108.0,151.0,0.0
-78.0,-39.0,-41.0,-9.0,-34.0,13.0,19.0,33.0,61.0,-74.0,0.0
-93.0,-40.0,-32.0,-3.0,-26.0,5.0,23.0,17.0,27.0,-193.0,0.0
-65.0,-26.0,-12.0,16.0,-16.0,0.0,26.0,5.0,4.0,-158.0,0.0
-52.0,-29.0,5.0,37.0,-7.0,-7.0,24.0,15.0,1.0,-124.0,0.0
-50.0,-37.0,9.0,38.0,0.0,0.0,21.0,24.0,5.0,-97.0,0.0
-53.0,-32.0,0.0,31.0,10.0,15.0,26.0,26.0,17.0,-68.0,0.0
-49.0,-40.0,7.0,21.0,15.0,15.0,33.0,19.0,19.0,-39.0,0.0
-31.0,-46.0,4.0,19.0,8.0,17.0,23.0,14.0,18.0,-9.0,0.0
-24.0,-45.0,5.0,10.0,6.0,12.0,17.0,17.0,11.0,2.0,0.0
-24.0,-35.0,13.0,9.0,7.0,21.0,13.0,5.0,-2.0,-1.0,0.0
-24.0,-33.0,-2.0,15.0,12.0,27.0,12.0,-1.0,-2.0,-19.0,0.0
-4.0,-27.0,2.0,21.0,14.0,11.0,8.0,11.0,-4.0,-31.0,0.0
0.0,-16.0,-1.0,20.0,16.0,11.0,3.0,9.0,4.0,0.0,0.0
-9.0,-22.0,-2.0,14.0,4.0,11.0,-9.0,0.0,16.0,62.0,0.0
-17.0,-24.0,-17.0,1.0,5.0,3.0,-6.0,-6.0,-4.0,105.0,0.0
-19.0,-4.0,8.0,6.0,11.0,11.0,2.0,-12.0,-40.0,54.0,0.0
-17.0,17.0,28.0,17.0,19.0,4.0,6.0,-18.0,-45.0,-15.0,0.0
-24.0,11.0,37.0,27.0,11.0,4.0,11.0,-6.0,-37.0,-30.0,0.0
-25.0,0.0,7.0,20.0,11.0,2.0,-7.0,-19.0,-43.0,-12.0,0.0
0.0,8.0,8.0,7.0,3.0,-8.0,-25.0,-30.0,-50.0,7.0,0.0
19.0,17.0,20.0,1.0,-4.0,-14.0,-15.0,-25.0,-38.0,44.0,0.0
19.0,18.0,26.0,17.0,-1.0,-8.0,-11.0,-22.0,-29.0,47.0,0.0
8.0,17.0,37.0,14.0,2.0,-7.0,-1.0,-30.0,-28.0,37.0,0.0
8.0,0.0,34.0,8.0,2.0,-3.0,5.0,-21.0,-17.0,40.0,0.0
-15.0,-1.0,16.0,11.0,9.0,4.0,1.0,-3.0,-3.0,57.0,0.0
-20.0,7.0,-8.0,23.0,0.0,-1.0,-3.0,-21.0,-19.0,47.0,0.0
0.0,2.0,9.0,23.0,-6.0,-8.0,0.0,-35.0,-32.0,14.0,0.0
13.0,25.0,14.0,21.0,-3.0,-9.0,5.0,-17.0,-37.0,-27.0,0.0
73.0,50.0,11.0,8.0,5.0,0.0,-3.0,-4.0,-16.0,3.0,0.0
103.0,55.0,-5.0,1.0,0.0,2.0,-14.0,-11.0,1.0,70.0,0.0
118.0,50.0,-9.0,5.0,0.0,-5.0,-23.0,-18.0,22.0,208.0,0.0
139.0,48.0,-23.0,-4.0,-18.0,-19.0,-39.0,-25.0,23.0,261.0,0.0
116.0,49.0,-13.0,-11.0,-21.0,-17.0,-27.0,-8.0,31.0,242.0,0.0
49.0,37.0,-25.0,0.0,-17.0,-9.0,-14.0,1.0,31.0,295.0,0.0
-30.0,-6.0,-41.0,-5.0,-11.0,-14.0,-13.0,-14.0,-17.0,226.0,0.0
-93.0,-14.0,-23.0,-5.0,-2.0,0.0,-6.0,-33.0,-78.0,-64.0,0.0
-139.0,4.0,25.0,11.0,32.0,32.0,-3.0,-52.0,-150.0,-348.0,0.0
-187.0,-16.0,35.0,30.0,55.0,57.0,20.0,-33.0,-171.0,-490.0,0.0
-172.0,-45.0,35.0,30.0,56.0,61.0,47.0,2.0,-127.0,-409.0,0.0
-123.0,-37.0,31.0,19.0,38.0,46.0,42.0,18.0,-81.0,-272.0,0.0
-63.0,-20.0,29.0,27.0,18.0,20.0,36.0,16.0,-24.0,-134.0,0.0
-52.0,-7.0,31.0,25.0,19.0,12.0,25.0,17.0,-16.0,-103.0,0.0
-62.0,-9.0,26.0,24.0,18.0,9.0,10.0,3.0,0.0,-98.0,0.0
-48.0,-11.0,22.0,22.0,4.0,-5.0,2.0,9.0,56.0,-45.0,0.0
-19.0,7.0,25.0,12.0,0.0,-5.0,9.0,13.0,89.0,4.0,0.0
-3.0,9.0,20.0,9.0,2.0,-1.0,0.0,8.0,65.0,25.0,0.0
-14.0,2.0,6.0,4.0,9.0,7.0,0.0,18.0,38.0,11.0,0.0
-12.0,1.0,-29.0,3.0,8.0,5.0,-5.0,22.0,23.0,7.0,0.0
20.0,14.0,-33.0,-2.0,-12.0,-6.0,-22.0,19.0,39.0,30.0,0.0
15.0,12.0,-33.0,-11.0,-23.0,-16.0,-15.0,27.0,55.0,36.0,0.0
0.0,-5.0,-34.0,-9.0,-20.0,-2.0,-11.0,30.0,36.0,40.0,0.0
-17.0,-13.0,-20.0,-5.0,-5.0,-1.0,-15.0,23.0,20.0,27.0,0.0
-34.0,-13.0,-30.0,-1.0,-6.0,0.0,-21.0,19.0,-1.0,18.0,0.0
-64.0,-19.0,-34.0,2.0,-15.0,6.0,-11.0,16.0,-13.0,6.0,0.0
-48.0,-27.0,-15.0,8.0,-11.0,3.0,-5.0,18.0,-10.0,11.0,0.0
-18.0,-18.0,-17.0,13.0,-2.0,-3.0,-3.0,24.0,0.0,25.0,0.0
6.0,-6.0,-10.0,13.0,0.0,-7.0,-11.0,18.0,6.0,27.0,0.0
26.0,1.0,-8.0,11.0,-6.0,-11.0,-8.0,13.0,0.0,13.0,0.0
32.0,14.0,5.0,12.0,-8.0,0.0,-7.0,12.0,-6.0,6.0,0.0
31.0,14.0,12.0,7.0,0.0,1.0,-14.0,-4.0,-10.0,0.0,0.0
17.0,11.0,16.0,12.0,1.0,5.0,-18.0,-10.0,-14.0,-20.0,0.0
29.0,23.0,34.0,11.0,0.0,15.0,-11.0,-6.0,-15.0,-43.0,0.0
26.0,22.0,34.0,5.0,-1.0,10.0,-11.0,-1.0,-9.0,-47.0,0.0
26.0,12.0,20.0,-20.0,-10.0,5.0,-12.0,15.0,-2.0,-20.0,0.0
32.0,16.0,-6.0,-36.0,-15.0,0.0,-13.0,22.0,3.0,11.0,0.0
39.0,3.0,3.0,-34.0,-19.0,4.0,-15.0,8.0,2.0,47.0,0.0
36.0,-3.0,14.0,-38.0,-17.0,-1.0,-8.0,-11.0,-12.0,26.0,0.0
41.0,4.0,18.0,-41.0,-20.0,-6.0,-7.0,-7.0,-28.0,-21.0,0.0
37.0,6.0,27.0,-25.0,-30.0,-6.0,-19.0,-19.0,-43.0,-48.0,0.0
28.0,9.0,25.0,-16.0,-14.0,4.0,-14.0,-30.0,-50.0,-70.0,0.0
27.0,26.0,24.0,-6.0,-14.0,13.0,-7.0,-20.0,-44.0,-58.0,0.0
37.0,32.0,17.0,-5.0,-12.0,4.0,-18.0,-19.0,-26.0,-11.0,0.0
51.0,25.0,-8.0,-14.0,-21.0,-9.0,-20.0,-15.0,0.0,54.0,0.0
75.0,25.0,-11.0,-24.0,-30.0,-25.0,-22.0,-24.0,16.0,93.0,0.0
97.0,40.0,-1.0,-21.0,-30.0,-31.0,-20.0,-26.0,15.0,129.0,0.0
109.0,47.0,18.0,1.0,-34.0,-24.0,-16.0,-34.0,8.0,162.0,0.0
105.0,39.0,20.0,21.0,-30.0,-22.0,-20.0,-36.0,12.0,165.0,0.0
68.0,19.0,21.0,10.0,-21.0,-14.0,-14.0,-16.0,21.0,140.0,0.0
0.0,-12.0,5.0,4.0,-16.0,-10.0,-12.0,-10.0,4.0,63.0,0.0
-50.0,-40.0,-22.0,7.0,-10.0,-6.0,0.0,0.0,-8.0,-48.0,0.0
-49.0,-39.0,-10.0,16.0,0.0,-8.0,11.0,10.0,-19.0,-122.0,0.0
-18.0,-11.0,10.0,29.0,13.0,-9.0,11.0,13.0,-18.0,-139.0,0.0
-23.0,0.0,19.0,35.0,17.0,1.0,10.0,0.0,-30.0,-146.0,0.0
-34.0,-8.0,19.0,30.0,18.0,-1.0,-9.0,-13.0,-46.0,-152.0,0.0
-27.0,-2.0,18.0,28.0,14.0,1.0,-22.0,5.0,-18.0,-101.0,0.0
-19.0,-7.0,17.0,29.0,10.0,0.0,-22.0,2.0,5.0,-35.0,0.0
-1.0,-3.0,14.0,27.0,19.0,4.0,-3.0,3.0,1.0,-11.0,0.0
23.0,6.0,8.0,30.0,20.0,1.0,-6.0,-6.0,-6.0,-3.0,0.0
12.0,-15.0,-16.0,21.0,4.0,-4.0,-2.0,-15.0,-12.0,4.0,0.0
-22.0,-12.0,-12.0,7.0,-5.0,-5.0,-2.0,-7.0,13.0,22.0,0.0
-61.0,1.0,4.0,15.0,13.0,8.0,4.0,3.0,5.0,-11.0,0.0
-75.0,-4.0,14.0,16.0,25.0,32.0,18.0,9.0,-3.0,-33.0,0.0
-61.0,-18.0,18.0,-12.0,24.0,31.0,17.0,0.0,-16.0,-38.0,0.0
-43.0,-11.0,14.0,-21.0,18.0,25.0,7.0,-10.0,-21.0,-21.0,0.0
-17.0,8.0,9.0,-5.0,13.0,24.0,-3.0,-13.0,-24.0,-5.0,0.0
-23.0,8.0,-4.0,-18.0,1.0,0.0,-8.0,-13.0,33.0,10.0,0.0
-36.0,-3.0,-28.0,-27.0,-4.0,-3.0,-7.0,0.0,91.0,17.0,0.0
-15.0,-5.0,-19.0,-28.0,6.0,0.0,-13.0,-4.0,72.0,12.0,0.0
-3.0,-7.0,4.0,-19.0,14.0,-4.0,-8.0,-14.0,37.0,-2.0,0.0
-1.0,-3.0,4.0,-11.0,20.0,-3.0,6.0,-13.0,10.0,-15.0,0.0
6.0,0.0,12.0,-14.0,25.0,-6.0,7.0,-15.0,0.0,-14.0,0.0
14.0,-2.0,14.0,1.0,24.0,0.0,-5.0,-22.0,-16.0,-3.0,0.0
30.0,6.0,13.0,7.0,19.0,-2.0,-3.0,-22.0,-26.0,0.0,0.0
45.0,21.0,13.0,6.0,13.0,3.0,2.0,-18.0,-28.0,22.0,0.0
49.0,18.0,6.0,6.0,11.0,6.0,-11.0,-23.0,-26.0,27.0,0.0
18.0,-2.0,-22.0,-5.0,12.0,4.0,-13.0,-24.0,-10.0,17.0,0.0
15.0,0.0,-31.0,-14.0,5.0,-4.0,-11.0,-17.0,-8.0,25.0,0.0
32.0,18.0,-23.0,-17.0,10.0,-9.0,-9.0,-24.0,-41.0,11.0,0.0
25.0,15.0,-32.0,-23.0,5.0,-11.0,-4.0,-29.0,-59.0,-18.0,0.0
7.0,2.0,-27.0,-21.0,-3.0,-15.0,3.0,-10.0,-43.0,-37.0,0.0
13.0,9.0,-23.0,-9.0,-6.0,-22.0,5.0,-5.0,-8.0,-20.0,0.0
33.0,17.0,-10.0,-13.0,0.0,-19.0,3.0,-14.0,3.0,7.0,0.0
9.0,-9.0,-25.0,-17.0,-9.0,-18.0,-14.0,-14.0,0.0,-12.0,0.0
-24.0,-19.0,-37.0,-23.0,-8.0,-8.0,-22.0,-1.0,-8.0,-32.0,0.0
-19.0,-12.0,-27.0,-15.0,-3.0,-6.0,-9.0,10.0,21.0,-20.0,0.0
11.0,17.0,0.0,-7.0,5.0,-8.0,-14.0,19.0,102.0,62.0,0.0
34.0,34.0,9.0,1.0,3.0,0.0,-14.0,21.0,111.0,130.0,0.0
22.0,16.0,-9.0,11.0,3.0,11.0,-18.0,10.0,39.0,85.0,0.0
14.0,3.0,-10.0,1.0,8.0,1.0,-16.0,10.0,10.0,50.0,0.0
30.0,10.0,-16.0,-10.0,-5.0,-8.0,-22.0,3.0,12.0,93.0,0.0
36.0,15.0,-8.0,-2.0,-13.0,-9.0,-17.0,-1.0,6.0,96.0,0.0
22.0,6.0,-8.0,10.0,-4.0,-1.0,-7.0,5.0,4.0,61.0,0.0
22.0,0.0,-16.0,5.0,-2.0,6.0,-4.0,8.0,6.0,57.0,0.0
16.0,-5.0,1.0,5.0,6.0,10.0,3.0,10.0,5.0,90.0,0.0
12.0,-13.0,2.0,6.0,-1.0,13.0,8.0,26.0,25.0,107.0,0.0
33.0,-12.0,-14.0,4.0,-13.0,2.0,2.0,41.0,35.0,151.0,0.0
25.0,-18.0,-24.0,-2.0,-13.0,-3.0,2.0,25.0,21.0,130.0,0.0
-8.0,-15.0,-26.0,-5.0,-4.0,2.0,8.0,5.0,-19.0,-50.0,0.0
-11.0,0.0,-13.0,3.0,-6.0,15.0,22.0,3.0,-27.0,-112.0,0.0
5.0,17.0,-4.0,12.0,1.0,18.0,17.0,1.0,-32.0,-105.0,0.0
3.0,16.0,-9.0,6.0,1.0,13.0,3.0,1.0,-34.0,-110.0,0.0
5.0,-4.0,-28.0,-14.0,-25.0,-3.0,-8.0,0.0,0.0,-53.0,0.0
15.0,-16.0,-31.0,-38.0,-42.0,-24.0,-15.0,0.0,31.0,57.0,0.0
24.0,-12.0,-16.0,-34.0,-45.0,-21.0,-20.0,-1.0,39.0,91.0,0.0
16.0,-14.0,-13.0,-20.0,-38.0,-7.0,-3.0,5.0,17.0,9.0,0.0
0.0,-13.0,14.0,-12.0,-17.0,0.0,0.0,13.0,-11.0,-53.0,0.0
-3.0,-5.0,28.0,3.0,0.0,-1.0,-10.0,-13.0,-41.0,-73.0,0.0
0.0,-7.0,34.0,13.0,7.0,2.0,0.0,-16.0,-41.0,-37.0,0.0
-17.0,-23.0,8.0,8.0,11.0,2.0,0.0,-1.0,-22.0,12.0,0.0
-26.0,-35.0,0.0,3.0,8.0,2.0,11.0,5.0,-24.0,20.0,0.0
-22.0,-37.0,-2.0,-13.0,-3.0,-7.0,16.0,-1.0,-32.0,-9.0,0.0
-15.0,-25.0,-10.0,-15.0,-9.0,-21.0,7.0,-17.0,-51.0,-71.0,0.0
4.0,-9.0,18.0,-15.0,4.0,-13.0,-3.0,-13.0,-32.0,-66.0,0.0
-1.0,4.0,16.0,2.0,20.0,-6.0,2.0,-3.0,-21.0,-57.0,0.0
-18.0,-3.0,23.0,2.0,16.0,-14.0,-5.0,1.0,-8.0,-5.0,0.0
-34.0,-27.0,-10.0,-15.0,-1.0,-14.0,-6.0,21.0,46.0,84.0,0.0
-34.0,-46.0,-30.0,-26.0,-14.0,-18.0,0.0,6.0,60.0,78.0,0.0
-43.0,-39.0,-12.0,-12.0,-5.0,-9.0,6.0,-6.0,6.0,-56.0,0.0
-64.0,-27.0,20.0,-8.0,10.0,9.0,16.0,11.0,-28.0,-117.0,0.0
-64.0,-17.0,23.0,-18.0,18.0,9.0,1.0,7.0,-31.0,-104.0,0.0
-32.0,4.0,31.0,-24.0,13.0,1.0,1.0,-1.0,-17.0,-72.0,0.0
-2.0,22.0,15.0,-21.0,5.0,-10.0,2.0,-3.0,-7.0,-32.0,0.0
3.0,13.0,-7.0,-21.0,2.0,-18.0,-9.0,1.0,0.0,23.0,0.0
18.0,5.0,10.0,-13.0,0.0,-21.0,-6.0,-8.0,3.0,56.0,0.0
10.0,-2.0,10.0,-1.0,-11.0,-29.0,-16.0,-3.0,17.0,69.0,0.0
0.0,-9.0,-8.0,-9.0,-21.0,-40.0,-19.0,2.0,32.0,57.0,0.0
8.0,12.0,9.0,0.0,-18.0,-24.0,-21.0,-10.0,15.0,21.0,0.0
16.0,42.0,30.0,17.0,-15.0,-12.0,-15.0,-18.0,8.0,6.0,0.0
10.0,64.0,42.0,15.0,-6.0,0.0,-7.0,-13.0,15.0,-19.0,0.0
7.0,52.0,55.0,15.0,0.0,14.0,-4.0,-4.0,1.0,-46.0,0.0
-8.0,35.0,63.0,33.0,1.0,12.0,0.0,-12.0,-16.0,-72.0,0.0
-25.0,36.0,42.0,37.0,2.0,2.0,-1.0,-30.0,-46.0,-90.0,0.0
-24.0,28.0,30.0,29.0,-1.0,-1.0,3.0,-19.0,-38.0,-64.0,0.0
-25.0,9.0,18.0,31.0,-1.0,10.0,2.0,-6.0,-7.0,-35.0,0.0
-34.0,-6.0,15.0,37.0,2.0,17.0,0.0,-8.0,-23.0,-52.0,0.0
-28.0,0.0,9.0,30.0,-6.0,13.0,-3.0,-17.0,-33.0,-49.0,0.0
0.0,2.0,6.0,14.0,-7.0,8.0,-9.0,-24.0,-26.0,-5.0,0.0
11.0,3.0,5.0,11.0,-7.0,1.0,-14.0,-10.0,-15.0,-7.0,0.0
-2.0,7.0,8.0,12.0,-1.0,0.0,-22.0,-4.0,-17.0,-52.0,0.0
-16.0,3.0,13.0,28.0,11.0,4.0,-9.0,-10.0,-23.0,-78.0,0.0
-26.0,3.0,7.0,26.0,11.0,0.0,10.0,-13.0,-10.0,-59.0,0.0
-20.0,8.0,9.0,33.0,4.0,-3.0,5.0,-8.0,-8.0,-36.0,0.0
-10.0,12.0,6.0,29.0,3.0,-11.0,-8.0,-10.0,-17.0,-28.0,0.0
6.0,16.0,8.0,26.0,-3.0,-4.0,-2.0,-14.0,-7.0,-5.0,0.0
16.0,21.0,9.0,19.0,-12.0,-4.0,16.0,-7.0,30.0,37.0,0.0
13.0,16.0,11.0,10.0,-9.0,-17.0,21.0,2.0,56.0,72.0,0.0
5.0,8.0,4.0,-3.0,-11.0,-24.0,23.0,3.0,42.0,99.0,0.0
-8.0,1.0,-1.0,0.0,-9.0,-11.0,24.0,-12.0,8.0,65.0,0.0
-15.0,1.0,0.0,2.0,-5.0,7.0,16.0,-22.0,-20.0,8.0,0.0
-22.0,3.0,6.0,5.0,3.0,16.0,16.0,-35.0,-47.0,-57.0,0.0
-38.0,0.0,12.0,17.0,19.0,25.0,14.0,-35.0,-68.0,-100.0,0.0
-49.0,-14.0,6.0,18.0,15.0,25.0,29.0,-31.0,-56.0,-100.0,0.0
-28.0,-16.0,3.0,31.0,3.0,17.0,26.0,-19.0,-47.0,-68.0,0.0
-6.0,-5.0,5.0,26.0,-3.0,23.0,25.0,-16.0,-38.0,-31.0,0.0
-3.0,-1.0,8.0,21.0,5.0,20.0,31.0,-23.0,-40.0,-33.0,0.0
8.0,10.0,9.0,15.0,4.0,-5.0,16.0,-11.0,-41.0,-25.0,0.0
12.0,-1.0,0.0,8.0,-20.0,-16.0,-3.0,1.0,27.0,30.0,0.0
-2.0,-26.0,-10.0,-2.0,-31.0,-19.0,-4.0,12.0,75.0,67.0,0.0
0.0,-11.0,-2.0,-14.0,-33.0,-31.0,2.0,5.0,21.0,34.0,0.0
12.0,8.0,5.0,-12.0,-31.0,-32.0,-9.0,-5.0,-12.0,-5.0,0.0
16.0,15.0,3.0,9.0,-18.0,-20.0,-19.0,-9.0,-24.0,-21.0,0.0
0.0,10.0,2.0,10.0,-22.0,-20.0,-25.0,-19.0,-55.0,-25.0,0.0
-13.0,-3.0,1.0,13.0,-19.0,-28.0,-15.0,-29.0,-67.0,-19.0,0.0
-28.0,-22.0,0.0,3.0,-8.0,-25.0,-1.0,-24.0,-59.0,-25.0,0.0
-52.0,-41.0,-4.0,-9.0,-1.0,-5.0,8.0,0.0,-51.0,-47.0,0.0
-64.0,-51.0,-16.0,-18.0,-4.0,2.0,10.0,14.0,-11.0,-34.0,0.0
-35.0,-38.0,-34.0,-9.0,-21.0,-10.0,-1.0,26.0,43.0,-1.0,0.0
-17.0,-24.0,-20.0,-1.0,-13.0,-18.0,-4.0,30.0,45.0,1.0,0.0
0.0,-9.0,-12.0,-5.0,-16.0,-12.0,12.0,15.0,10.0,-16.0,0.0
-1.0,-14.0,-30.0,-1.0,-22.0,-10.0,4.0,0.0,-2.0,-5.0,0.0
0.0,-34.0,-37.0,-17.0,-25.0,-18.0,1.0,2.0,17.0,20.0,0.0
12.0,-11.0,-37.0,-13.0,-27.0,-24.0,-6.0,2.0,16.0,26.0,0.0
10.0,-2.0,-8.0,-13.0,-36.0,-22.0,1.0,9.0,13.0,22.0,0.0
5.0,6.0,-11.0,-10.0,-29.0,-12.0,-4.0,22.0,31.0,21.0,0.0
6.0,13.0,-30.0,-14.0,-14.0,-17.0,-21.0,14.0,41.0,45.0,0.0
23.0,10.0,-22.0,-7.0,-5.0,-19.0,-22.0,16.0,68.0,125.0,0.0
32.0,2.0,-28.0,7.0,-3.0,-16.0,-4.0,36.0,75.0,166.0,0.0
26.0,-19.0,-21.0,-1.0,-9.0,-18.0,7.0,22.0,49.0,136.0,0.0
24.0,-26.0,-33.0,-23.0,-17.0,-35.0,5.0,10.0,5.0,82.0,0.0
14.0,-17.0,-21.0,-16.0,-15.0,-33.0,-7.0,-9.0,-44.0,6.0,0.0
5.0,-20.0,9.0,-8.0,-9.0,-24.0,-4.0,-10.0,-49.0,-49.0,0.0
4.0,-21.0,21.0,-12.0,5.0,-14.0,1.0,-8.0,-48.0,-55.0,0.0
-7.0,-17.0,-7.0,-25.0,16.0,-10.0,6.0,1.0,-54.0,-36.0,0.0
14.0,-9.0,-33.0,-35.0,9.0,-10.0,2.0,8.0,-41.0,13.0,0.0
39.0,-8.0,-28.0,-58.0,-7.0,-17.0,-11.0,28.0,22.0,58.0,0.0
46.0,0.0,-19.0,-72.0,-24.0,-31.0,-15.0,41.0,92.0,90.0,0.0
51.0,3.0,-32.0,-72.0,-34.0,-27.0,-11.0,36.0,104.0,101.0,0.0
55.0,7.0,-20.0,-59.0,-17.0,-10.0,2.0,22.0,81.0,72.0,0.0
53.0,8.0,-5.0,-27.0,-2.0,-1.0,1.0,14.0,51.0,14.0,0.0
43.0,14.0,10.0,5.0,5.0,5.0,0.0,28.0,33.0,-24.0,0.0
39.0,14.0,16.0,12.0,0.0,4.0,2.0,26.0,33.0,-17.0,0.0
17.0,7.0,11.0,6.0,0.0,-7.0,-7.0,1.0,26.0,-22.0,0.0
-18.0,-18.0,-8.0,1.0,-2.0,-8.0,-8.0,-9.0,13.0,-21.0,0.0
-61.0,-37.0,-9.0,-3.0,-3.0,3.0,13.0,0.0,4.0,-91.0,0.0
-93.0,-56.0,-16.0,-10.0,11.0,19.0,30.0,6.0,-19.0,-154.0,0.0
-80.0,-58.0,-4.0,-18.0,13.0,9.0,33.0,-8.0,-2.0,-111.0,0.0
-22.0,-31.0,-6.0,-20.0,10.0,8.0,34.0,-11.0,16.0,-40.0,0.0
12.0,-17.0,3.0,8.0,0.0,10.0,17.0,0.0,-1.0,8.0,0.0
17.0,-9.0,5.0,19.0,-3.0,1.0,7.0,-5.0,-11.0,31.0,0.0
0.0,-12.0,-21.0,8.0,-10.0,-2.0,2.0,-15.0,-35.0,-35.0,0.0
-13.0,-14.0,-19.0,5.0,-9.0,6.0,7.0,-21.0,-50.0,-151.0,0.0
-9.0,-21.0,-19.0,-2.0,-3.0,19.0,10.0,-16.0,-34.0,-62.0,0.0
-17.0,-29.0,-10.0,-11.0,-2.0,24.0,3.0,-6.0,-16.0,30.0,0.0
-18.0,-24.0,-11.0,1.0,4.0,23.0,10.0,10.0,27.0,34.0,0.0
-30.0,-11.0,-7.0,-1.0,6.0,26.0,14.0,34.0,62.0,21.0,0.0
-44.0,-7.0,-11.0,0.0,0.0,27.0,8.0,33.0,70.0,1.0,0.0
-47.0,-9.0,11.0,6.0,2.0,29.0,15.0,37.0,58.0,-4.0,0.0
-45.0,-9.0,22.0,0.0,2.0,33.0,17.0,40.0,58.0,2.0,0.0
-35.0,-11.0,25.0,-16.0,4.0,37.0,18.0,40.0,46.0,1.0,0.0
-23.0,0.0,35.0,-14.0,-3.0,30.0,13.0,19.0,24.0,-7.0,0.0
-24.0,9.0,32.0,-4.0,-10.0,15.0,5.0,6.0,14.0,0.0,0.0
-31.0,6.0,30.0,8.0,-5.0,21.0,-6.0,7.0,-6.0,-2.0,0.0
-23.0,10.0,29.0,7.0,3.0,26.0,-18.0,-6.0,-9.0,-21.0,0.0
-22.0,4.0,27.0,0.0,10.0,22.0,-26.0,-10.0,-19.0,-30.0,0.0
-25.0,0.0,25.0,8.0,11.0,10.0,-13.0,-11.0,-18.0,-27.0,0.0
-22.0,-15.0,22.0,21.0,14.0,23.0,-1.0,-3.0,-18.0,-8.0,0.0
-31.0,-27.0,0.0,12.0,3.0,27.0,-1.0,9.0,19.0,22.0,0.0
-20.0,-25.0,-20.0,-27.0,-15.0,6.0,-13.0,11.0,83.0,70.0,0.0
7.0,-6.0,-20.0,-37.0,-28.0,4.0,-15.0,2.0,71.0,75.0,0.0
35.0,-2.0,-19.0,-22.0,-12.0,8.0,-12.0,-3.0,15.0,62.0,0.0
38.0,-5.0,0.0,-12.0,10.0,12.0,-10.0,0.0,-16.0,39.0,0.0
26.0,12.0,-16.0,-16.0,3.0,14.0,-7.0,-5.0,-50.0,10.0,0.0
30.0,26.0,-4.0,-4.0,-7.0,10.0,-16.0,-11.0,-61.0,8.0,0.0
62.0,46.0,8.0,12.0,-10.0,-3.0,-18.0,-16.0,-46.0,75.0,0.0
119.0,57.0,16.0,12.0,0.0,-7.0,-21.0,-6.0,2.0,165.0,0.0
148.0,46.0,25.0,8.0,0.0,-9.0,-22.0,31.0,83.0,224.0,0.0
133.0,23.0,21.0,7.0,7.0,-14.0,-20.0,35.0,164.0,323.0,0.0
44.0,-11.0,-11.0,4.0,5.0,-19.0,-30.0,-2.0,111.0,270.0,0.0
-65.0,-50.0,-44.0,-8.0,-5.0,-19.0,-39.0,-33.0,-8.0,-3.0,0.0
-106.0,-55.0,-33.0,0.0,4.0,0.0,-23.0,-11.0,-9.0,-177.0,0.0
-109.0,-31.0,-15.0,26.0,22.0,26.0,-6.0,15.0,8.0,-204.0,0.0
-136.0,-24.0,-4.0,53.0,39.0,49.0,12.0,24.0,-33.0,-245.0,0.0
-127.0,-18.0,18.0,50.0,35.0,49.0,23.0,13.0,-47.0,-237.0,0.0
-88.0,-15.0,8.0,31.0,29.0,47.0,21.0,15.0,-31.0,-173.0,0.0
-69.0,-22.0,12.0,23.0,22.0,47.0,11.0,23.0,-15.0,-120.0,0.0
-44.0,-9.0,3.0,22.0,13.0,53.0,12.0,30.0,-11.0,-90.0,0.0
-2.0,7.0,0.0,23.0,-2.0,32.0,6.0,26.0,-6.0,-63.0,0.0
14.0,0.0,8.0,23.0,-11.0,15.0,-4.0,26.0,-9.0,-43.0,0.0
22.0,-4.0,19.0,6.0,-2.0,8.0,-7.0,15.0,-2.0,-15.0,0.0
34.0,7.0,27.0,-2.0,5.0,-3.0,-7.0,11.0,28.0,43.0,0.0
32.0,15.0,32.0,-5.0,7.0,0.0,1.0,4.0,20.0,57.0,0.0
11.0,16.0,14.0,1.0,1.0,3.0,1.0,8.0,-4.0,28.0,0.0
-6.0,9.0,-3.0,2.0,-5.0,-1.0,-12.0,1.0,-23.0,22.0,0.0
-11.0,2.0,-17.0,7.0,-9.0,-10.0,-10.0,-10.0,-11.0,34.0,0.0
-9.0,-5.0,-10.0,6.0,-6.0,-12.0,-2.0,-1.0,-8.0,34.0,0.0
-7.0,6.0,-9.0,6.0,-5.0,-13.0,2.0,-14.0,-30.0,-7.0,0.0
-20.0,9.0,-3.0,15.0,10.0,-17.0,-2.0,-29.0,-64.0,-84.0,0.0
-30.0,17.0,11.0,32.0,18.0,-14.0,-6.0,-24.0,-51.0,-106.0,0.0
-7.0,8.0,7.0,17.0,2.0,-21.0,-13.0,-1.0,0.0,-49.0,0.0
11.0,-7.0,5.0,-3.0,-7.0,-27.0,-9.0,17.0,30.0,26.0,0.0
32.0,-11.0,2.0,-1.0,1.0,-18.0,0.0,29.0,54.0,83.0,0.0
46.0,6.0,-16.0,0.0,16.0,-12.0,21.0,51.0,64.0,107.0,0.0
48.0,19.0,-10.0,0.0,10.0,-3.0,29.0,44.0,39.0,79.0,0.0
42.0,40.0,12.0,-4.0,20.0,-1.0,29.0,18.0,3.0,19.0,0.0
27.0,53.0,34.0,-3.0,30.0,-4.0,32.0,4.0,-18.0,-40.0,0.0
16.0,29.0,21.0,-11.0,22.0,-6.0,29.0,13.0,-8.0,-51.0,0.0
0.0,20.0,-11.0,-38.0,7.0,-5.0,15.0,21.0,15.0,-22.0,0.0
-18.0,7.0,-17.0,-25.0,21.0,-6.0,12.0,20.0,10.0,-19.0,0.0
-38.0,1.0,0.0,-15.0,23.0,-5.0,19.0,21.0,-3.0,-22.0,0.0
-23.0,24.0,0.0,-17.0,9.0,-19.0,9.0,15.0,-10.0,-19.0,0.0
-15.0,24.0,-12.0,-6.0,2.0,-16.0,0.0,15.0,18.0,-29.0,0.0
-7.0,9.0,-23.0,5.0,-6.0,-15.0,-13.0,17.0,40.0,-34.0,0.0
2.0,2.0,-28.0,16.0,-8.0,-13.0,-16.0,1.0,16.0,-23.0,0.0
10.0,2.0,-15.0,13.0,-5.0,-17.0,-12.0,-9.0,6.0,2.0,0.0
10.0,0.0,-12.0,6.0,-16.0,-18.0,-5.0,7.0,33.0,26.0,0.0
20.0,10.0,-18.0,8.0,-17.0,-12.0,5.0,16.0,33.0,34.0,0.0
40.0,18.0,-19.0,6.0,-18.0,1.0,6.0,-3.0,21.0,49.0,0.0
56.0,10.0,-19.0,13.0,-10.0,4.0,21.0,-9.0,5.0,72.0,0.0
64.0,11.0,-16.0,3.0,-3.0,4.0,37.0,-15.0,4.0,84.0,0.0
75.0,31.0,-6.0,2.0,-7.0,3.0,22.0,-25.0,-19.0,57.0,0.0
61.0,51.0,15.0,16.0,8.0,2.0,15.0,-30.0,-38.0,-19.0,0.0
28.0,26.0,22.0,22.0,17.0,3.0,16.0,-2.0,-33.0,-76.0,0.0
19.0,13.0,22.0,21.0,17.0,5.0,17.0,12.0,-32.0,-84.0,0.0
22.0,4.0,0.0,-1.0,6.0,-4.0,2.0,-9.0,-36.0,-75.0,0.0
29.0,17.0,-19.0,-16.0,-9.0,-29.0,-24.0,-29.0,-31.0,-36.0,0.0
40.0,47.0,-20.0,-12.0,-5.0,-31.0,-25.0,-34.0,-35.0,-15.0,0.0
35.0,36.0,-10.0,-4.0,11.0,-20.0,-8.0,-14.0,-15.0,-21.0,0.0
14.0,-4.0,-15.0,-28.0,-1.0,-11.0,23.0,28.0,47.0,39.0,0.0
28.0,-38.0,-40.0,-48.0,-15.0,-10.0,37.0,58.0,118.0,116.0,0.0
36.0,-36.0,-41.0,-49.0,-13.0,-18.0,23.0,44.0,115.0,175.0,0.0
34.0,-29.0,-52.0,-44.0,-22.0,-28.0,11.0,10.0,60.0,213.0,0.0
36.0,-6.0,-46.0,-42.0,-21.0,-16.0,16.0,-10.0,10.0,163.0,0.0
14.0,9.0,-35.0,-26.0,-10.0,1.0,23.0,-9.0,-41.0,14.0,0.0
4.0,21.0,-1.0,15.0,8.0,18.0,40.0,-12.0,-47.0,-60.0,0.0
-34.0,14.0,0.0,43.0,22.0,31.0,46.0,0.0,-21.0,-32.0,0.0
-73.0,-14.0,-2.0,44.0,7.0,28.0,36.0,-6.0,-25.0,-69.0,0.0
-67.0,-15.0,2.0,47.0,7.0,26.0,34.0,-9.0,-22.0,-89.0,0.0
-36.0,-4.0,0.0,46.0,13.0,17.0,29.0,-1.0,-10.0,-56.0,0.0
-32.0,-8.0,15.0,38.0,11.0,8.0,27.0,0.0,-3.0,2.0,0.0
-44.0,-4.0,2.0,32.0,17.0,13.0,24.0,-2.0,-18.0,33.0,0.0
-33.0,-2.0,-6.0,29.0,23.0,6.0,25.0,-11.0,-26.0,31.0,0.0
-20.0,-6.0,-12.0,24.0,20.0,-4.0,20.0,-25.0,-34.0,-25.0,0.0
-32.0,9.0,5.0,14.0,20.0,1.0,24.0,-17.0,-30.0,-70.0,0.0
-42.0,20.0,13.0,17.0,22.0,9.0,25.0,-2.0,-34.0,-76.0,0.0
-39.0,11.0,3.0,21.0,30.0,11.0,18.0,-5.0,-39.0,-62.0,0.0
-19.0,2.0,29.0,23.0,34.0,14.0,14.0,-10.0,-48.0,-49.0,0.0
-10.0,5.0,45.0,23.0,28.0,21.0,20.0,-11.0,-64.0,-40.0,0.0
-2.0,16.0,41.0,14.0,26.0,17.0,17.0,-27.0,-70.0,-33.0,0.0
3.0,16.0,33.0,13.0,17.0,1.0,6.0,-32.0,-69.0,-37.0,0.0
9.0,10.0,26.0,5.0,11.0,-1.0,5.0,-20.0,-69.0,-25.0,0.0
11.0,13.0,23.0,9.0,1.0,4.0,10.0,-14.0,-51.0,-6.0,0.0
32.0,22.0,21.0,11.0,-2.0,1.0,13.0,-20.0,-43.0,11.0,0.0
44.0,20.0,-8.0,12.0,-3.0,-2.0,-2.0,-15.0,-14.0,37.0,0.0
36.0,6.0,-26.0,1.0,-13.0,-16.0,-19.0,6.0,83.0,82.0,0.0
51.0,13.0,-26.0,-15.0,-14.0,-20.0,-17.0,17.0,117.0,109.0,0.0
62.0,21.0,0.0,-23.0,7.0,-6.0,-7.0,-3.0,55.0,86.0,0.0
59.0,23.0,-11.0,-25.0,15.0,-1.0,0.0,-12.0,4.0,53.0,0.0
71.0,22.0,-11.0,-23.0,14.0,-4.0,-10.0,-22.0,-1.0,43.0,0.0
86.0,40.0,-15.0,-22.0,7.0,-5.0,-20.0,-22.0,7.0,89.0,0.0
88.0,58.0,-26.0,-28.0,-13.0,-19.0,-30.0,-12.0,38.0,155.0,0.0
95.0,52.0,-47.0,-41.0,-17.0,-15.0,-35.0,-8.0,36.0,148.0,0.0
98.0,51.0,-40.0,-30.0,-1.0,-7.0,-24.0,-2.0,21.0,115.0,0.0
77.0,46.0,-23.0,-8.0,7.0,10.0,-3.0,11.0,22.0,85.0,0.0
19.0,37.0,-3.0,13.0,9.0,26.0,5.0,3.0,-2.0,7.0,0.0
-54.0,4.0,-19.0,24.0,15.0,37.0,9.0,-7.0,-51.0,-93.0,0.0
-70.0,-17.0,-24.0,23.0,15.0,40.0,20.0,12.0,-32.0,-100.0,0.0
-42.0,-15.0,-3.0,30.0,6.0,28.0,22.0,29.0,23.0,-62.0,0.0
-20.0,-16.0,-13.0,42.0,-8.0,30.0,21.0,23.0,32.0,-56.0,0.0
-9.0,-21.0,-28.0,33.0,-4.0,27.0,17.0,9.0,21.0,-50.0,0.0
-15.0,-4.0,-30.0,17.0,-4.0,26.0,22.0,8.0,23.0,-4.0,0.0
-21.0,-6.0,-27.0,10.0,-13.0,25.0,15.0,13.0,19.0,24.0,0.0
-14.0,0.0,-14.0,15.0,-22.0,14.0,22.0,19.0,57.0,31.0,0.0
-12.0,-2.0,-2.0,35.0,-4.0,25.0,29.0,27.0,87.0,43.0,0.0
-8.0,5.0,19.0,36.0,9.0,34.0,25.0,32.0,60.0,20.0,0.0
0.0,8.0,48.0,40.0,10.0,35.0,22.0,13.0,38.0,-7.0,0.0
8.0,12.0,46.0,39.0,6.0,29.0,12.0,6.0,31.0,-3.0,0.0
11.0,5.0,20.0,26.0,0.0,21.0,11.0,-5.0,26.0,-1.0,0.0
1.0,0.0,9.0,30.0,7.0,22.0,7.0,-11.0,10.0,-4.0,0.0
7.0,11.0,26.0,24.0,16.0,25.0,1.0,-7.0,-2.0,0.0,0.0
25.0,22.0,39.0,6.0,3.0,14.0,-4.0,5.0,2.0,3.0,0.0
31.0,27.0,41.0,-12.0,-6.0,11.0,-6.0,2.0,0.0,-7.0,0.0
36.0,19.0,45.0,-3.0,-1.0,14.0,-4.0,-1.0,-5.0,-21.0,0.0
29.0,9.0,45.0,15.0,2.0,19.0,-8.0,4.0,-6.0,-24.0,0.0
34.0,2.0,45.0,22.0,4.0,24.0,-11.0,-6.0,-17.0,-24.0,0.0
37.0,0.0,37.0,-5.0,1.0,23.0,-14.0,-5.0,-24.0,-27.0,0.0
26.0,-15.0,26.0,-21.0,1.0,14.0,-12.0,-7.0,-17.0,-27.0,0.0
8.0,-34.0,15.0,-34.0,-13.0,-2.0,-10.0,2.0,7.0,21.0,0.0
-1.0,-44.0,-10.0,-39.0,-23.0,-11.0,-11.0,-3.0,23.0,78.0,0.0
2.0,-33.0,-9.0,-31.0,-16.0,0.0,-8.0,8.0,22.0,67.0,0.0
23.0,-17.0,17.0,-14.0,1.0,10.0,4.0,9.0,10.0,28.0,0.0
37.0,-1.0,28.0,-11.0,9.0,20.0,0.0,-5.0,-3.0,4.0,0.0
31.0,1.0,29.0,-6.0,-1.0,11.0,-6.0,-14.0,-10.0,-7.0,0.0
12.0,-5.0,26.0,33.0,-10.0,0.0,-5.0,-21.0,-18.0,-5.0,0.0
23.0,-10.0,21.0,42.0,-13.0,3.0,0.0,-3.0,-18.0,1.0,0.0
36.0,-4.0,22.0,27.0,-18.0,-1.0,3.0,-1.0,-21.0,0.0,0.0
35.0,-2.0,22.0,20.0,-25.0,1.0,0.0,-24.0,-32.0,4.0,0.0
39.0,10.0,23.0,-1.0,-16.0,-6.0,-3.0,-38.0,-38.0,0.0,0.0
23.0,11.0,21.0,-4.0,-8.0,-16.0,-9.0,-46.0,-23.0,-17.0,0.0
4.0,-18.0,10.0,-3.0,-12.0,-20.0,-25.0,-27.0,21.0,20.0,0.0
-7.0,-34.0,4.0,-9.0,-15.0,-5.0,-4.0,11.0,74.0,71.0,0.0
-13.0,-18.0,9.0,-23.0,-6.0,20.0,8.0,22.0,57.0,32.0,0.0
-7.0,-1.0,17.0,-19.0,1.0,19.0,-1.0,11.0,29.0,9.0,0.0
0.0,9.0,8.0,-21.0,-3.0,5.0,-2.0,-4.0,20.0,7.0,0.0
7.0,7.0,13.0,-6.0,-11.0,2.0,-5.0,-9.0,-1.0,4.0,0.0
17.0,3.0,13.0,-5.0,-22.0,8.0,-13.0,0.0,-4.0,20.0,0.0
23.0,20.0,13.0,-13.0,-18.0,2.0,-18.0,-1.0,0.0,38.0,0.0
33.0,32.0,18.0,-14.0,-15.0,-7.0,-12.0,-5.0,7.0,60.0,0.0
23.0,7.0,8.0,-5.0,-17.0,-3.0,0.0,0.0,13.0,53.0,0.0
-4.0,2.0,6.0,-15.0,-13.0,5.0,6.0,1.0,3.0,14.0,0.0
-29.0,3.0,6.0,-2.0,-4.0,9.0,1.0,-19.0,-21.0,-13.0,0.0
-33.0,14.0,8.0,5.0,-12.0,5.0,-13.0,-36.0,-28.0,-36.0,0.0
-32.0,13.0,6.0,4.0,-16.0,6.0,-12.0,-26.0,-28.0,-39.0,0.0
-41.0,-11.0,5.0,-1.0,-17.0,6.0,-7.0,-26.0,-31.0,-32.0,0.0
-45.0,-17.0,4.0,-9.0,-6.0,14.0,-8.0,-35.0,-44.0,-40.0,0.0
-32.0,-22.0,10.0,-4.0,-2.0,25.0,-14.0,-45.0,-42.0,-49.0,0.0
-18.0,-9.0,9.0,-1.0,1.0,17.0,-14.0,-34.0,-16.0,-39.0,0.0
-16.0,15.0,7.0,-14.0,-7.0,7.0,-17.0,-17.0,29.0,-17.0,0.0
-30.0,15.0,3.0,-14.0,-17.0,0.0,-5.0,5.0,71.0,14.0,0.0
-39.0,-13.0,6.0,7.0,-13.0,0.0,0.0,19.0,75.0,31.0,0.0
-58.0,-24.0,1.0,22.0,-3.0,7.0,7.0,26.0,56.0,5.0,0.0
-57.0,-12.0,-6.0,27.0,0.0,1.0,20.0,16.0,48.0,-13.0,0.0
-45.0,-2.0,-8.0,25.0,13.0,0.0,12.0,6.0,35.0,-8.0,0.0
-31.0,-2.0,1.0,25.0,17.0,1.0,13.0,-5.0,26.0,-3.0,0.0
-13.0,1.0,8.0,20.0,19.0,0.0,15.0,-3.0,40.0,-1.0,0.0
11.0,2.0,9.0,19.0,16.0,3.0,10.0,1.0,37.0,2.0,0.0
24.0,5.0,6.0,21.0,11.0,7.0,2.0,6.0,24.0,8.0,0.0
9.0,-6.0,1.0,11.0,13.0,-7.0,-9.0,20.0,6.0,11.0,0.0
1.0,-1.0,3.0,2.0,13.0,-19.0,-11.0,15.0,-8.0,4.0,0.0
17.0,10.0,6.0,1.0,12.0,-28.0,-11.0,2.0,-44.0,-7.0,0.0
33.0,12.0,3.0,-1.0,4.0,-22.0,-6.0,-4.0,-45.0,18.0,0.0
61.0,1.0,7.0,-15.0,0.0,-33.0,-1.0,2.0,-23.0,42.0,0.0
54.0,-7.0,9.0,-13.0,-3.0,-41.0,0.0,-12.0,-28.0,30.0,0.0
35.0,-2.0,3.0,-4.0,-5.0,-38.0,3.0,-17.0,-38.0,22.0,0.0
32.0,0.0,0.0,0.0,8.0,-24.0,2.0,-15.0,-44.0,48.0,0.0
39.0,3.0,0.0,0.0,13.0,-26.0,-3.0,-18.0,-44.0,47.0,0.0
73.0,14.0,-4.0,-3.0,-15.0,-47.0,-25.0,-26.0,0.0,93.0,0.0
124.0,31.0,-4.0,-12.0,-44.0,-58.0,-42.0,-14.0,74.0,225.0,0.0
137.0,25.0,-4.0,-22.0,-41.0,-50.0,-33.0,-1.0,98.0,274.0,0.0
112.0,18.0,3.0,-23.0,-35.0,-53.0,-26.0,-8.0,81.0,220.0,0.0
98.0,25.0,15.0,-13.0,-24.0,-48.0,-21.0,6.0,79.0,272.0,0.0
17.0,0.0,10.0,-8.0,-7.0,-19.0,-9.0,11.0,29.0,208.0,0.0
-89.0,-41.0,5.0,-7.0,11.0,17.0,12.0,12.0,-41.0,-56.0,0.0
-100.0,-38.0,7.0,10.0,30.0,30.0,18.0,8.0,-65.0,-129.0,0.0
-82.0,-29.0,6.0,24.0,13.0,23.0,0.0,-14.0,-91.0,-167.0,0.0
-77.0,-41.0,16.0,31.0,7.0,20.0,4.0,-14.0,-100.0,-249.0,0.0
-88.0,-46.0,32.0,25.0,14.0,15.0,12.0,-4.0,-93.0,-284.0,0.0
-107.0,-37.0,21.0,13.0,4.0,9.0,2.0,-3.0,-88.0,-273.0,0.0
-100.0,-37.0,-3.0,-2.0,-8.0,-6.0,3.0,4.0,-5.0,-185.0,0.0
-78.0,-51.0,-19.0,-6.0,-14.0,-6.0,-5.0,17.0,43.0,-101.0,0.0
-35.0,-33.0,-5.0,5.0,-4.0,9.0,-3.0,19.0,4.0,-98.0,0.0
-19.0,-15.0,8.0,29.0,8.0,18.0,2.0,11.0,-37.0,-116.0,0.0
-43.0,-6.0,10.0,27.0,14.0,15.0,15.0,-5.0,-64.0,-132.0,0.0
-72.0,1.0,8.0,33.0,33.0,22.0,12.0,-18.0,-77.0,-157.0,0.0
-80.0,0.0,-4.0,29.0,18.0,24.0,15.0,5.0,-19.0,-103.0,0.0
-75.0,-21.0,-20.0,6.0,-1.0,9.0,18.0,45.0,76.0,0.0,0.0
-74.0,-20.0,-14.0,6.0,-3.0,1.0,21.0,65.0,129.0,78.0,0.0
-58.0,0.0,-5.0,0.0,-11.0,-7.0,10.0,34.0,86.0,114.0,0.0
-40.0,-4.0,-7.0,-8.0,-19.0,-25.0,-10.0,2.0,8.0,61.0,0.0
-55.0,-23.0,1.0,0.0,-10.0,-15.0,-6.0,-2.0,-41.0,-80.0,0.0
-83.0,-32.0,10.0,13.0,16.0,3.0,6.0,1.0,-58.0,-132.0,0.0
-80.0,-34.0,6.0,10.0,27.0,3.0,17.0,8.0,-53.0,-122.0,0.0
-48.0,-21.0,4.0,5.0,21.0,-1.0,10.0,12.0,-46.0,-83.0,0.0
-43.0,-14.0,0.0,-2.0,9.0,-4.0,-2.0,14.0,-49.0,-60.0,0.0
-35.0,-1.0,-2.0,-7.0,1.0,-13.0,-4.0,6.0,-62.0,-63.0,0.0
-27.0,5.0,2.0,-4.0,7.0,-19.0,-5.0,-7.0,-70.0,-54.0,0.0
-16.0,11.0,0.0,-6.0,14.0,-16.0,1.0,-17.0,-29.0,-10.0,0.0
-8.0,11.0,-4.0,-16.0,-1.0,-21.0,4.0,-9.0,27.0,111.0,0.0
1.0,0.0,-11.0,-26.0,-17.0,-27.0,-3.0,-8.0,32.0,147.0,0.0
11.0,-4.0,0.0,-12.0,-2.0,-19.0,-14.0,-9.0,4.0,70.0,0.0
13.0,1.0,3.0,-7.0,-5.0,-18.0,-22.0,-9.0,-20.0,37.0,0.0
8.0,-7.0,-13.0,-15.0,-24.0,-24.0,-25.0,2.0,-4.0,53.0,0.0
28.0,-11.0,-16.0,-24.0,-31.0,-28.0,-25.0,14.0,30.0,78.0,0.0
78.0,17.0,-6.0,-30.0,-35.0,-42.0,-26.0,8.0,46.0,112.0,0.0
142.0,50.0,3.0,-23.0,-37.0,-42.0,-25.0,-5.0,52.0,223.0,0.0
189.0,72.0,13.0,-11.0,-25.0,-43.0,-31.0,-1.0,49.0,289.0,0.0
188.0,74.0,6.0,-6.0,-16.0,-48.0,-48.0,3.0,42.0,302.0,0.0
130.0,45.0,-10.0,-14.0,-23.0,-44.0,-45.0,0.0,58.0,323.0,0.0
22.0,-27.0,-32.0,-37.0,-30.0,-44.0,-37.0,-18.0,38.0,212.0,0.0
-68.0,-46.0,-43.0,-28.0,-6.0,-32.0,-22.0,-21.0,-18.0,-80.0,0.0
-81.0,-26.0,-17.0,3.0,24.0,-6.0,23.0,16.0,-11.0,-201.0,0.0
-57.0,-13.0,8.0,13.0,38.0,19.0,37.0,28.0,-20.0,-205.0,0.0
-30.0,0.0,21.0,16.0,26.0,19.0,25.0,22.0,-31.0,-169.0,0.0
-16.0,2.0,21.0,12.0,18.0,14.0,19.0,-3.0,-43.0,-142.0,0.0
-11.0,-9.0,24.0,-1.0,10.0,6.0,11.0,-19.0,-20.0,-101.0,0.0
-6.0,-13.0,10.0,-10.0,-4.0,-8.0,-2.0,-21.0,24.0,7.0,0.0
-31.0,-13.0,3.0,-28.0,-12.0,-17.0,-9.0,-13.0,29.0,62.0,0.0
-79.0,-37.0,1.0,-9.0,1.0,-10.0,7.0,-5.0,-2.0,-33.0,0.0
-92.0,-35.0,8.0,3.0,28.0,13.0,29.0,15.0,4.0,-112.0,0.0
-75.0,-15.0,7.0,9.0,28.0,18.0,26.0,29.0,17.0,-105.0,0.0
-65.0,-3.0,4.0,12.0,22.0,14.0,24.0,28.0,16.0,-71.0,0.0
-61.0,3.0,21.0,15.0,19.0,6.0,19.0,19.0,17.0,-37.0,0.0
-60.0,3.0,44.0,22.0,36.0,13.0,7.0,19.0,-8.0,-48.0,0.0
-48.0,-7.0,21.0,19.0,27.0,10.0,2.0,7.0,-35.0,-85.0,0.0
-22.0,-11.0,5.0,-17.0,9.0,9.0,-1.0,1.0,-28.0,-81.0,0.0
-2.0,-3.0,-3.0,-35.0,0.0,7.0,-6.0,9.0,-25.0,-38.0,0.0
7.0,-3.0,13.0,-20.0,0.0,5.0,-7.0,1.0,-36.0,-27.0,0.0
1.0,15.0,31.0,-14.0,-1.0,4.0,-7.0,-11.0,-51.0,-38.0,0.0
-3.0,25.0,26.0,-18.0,10.0,0.0,-4.0,-18.0,-60.0,-48.0,0.0
-14.0,8.0,26.0,-25.0,7.0,4.0,14.0,-10.0,-34.0,-38.0,0.0
-19.0,-7.0,8.0,-34.0,-1.0,17.0,25.0,0.0,-14.0,-31.0,0.0
-25.0,-11.0,1.0,-31.0,0.0,31.0,12.0,-7.0,-22.0,-53.0,0.0
-17.0,0.0,-1.0,-25.0,1.0,36.0,-3.0,-23.0,-49.0,-87.0,0.0
-13.0,-1.0,17.0,-11.0,-4.0,35.0,-10.0,-20.0,-51.0,-69.0,0.0
-12.0,-18.0,17.0,0.0,-10.0,39.0,-2.0,12.0,-19.0,-27.0,0.0
-5.0,-34.0,0.0,7.0,-3.0,29.0,6.0,25.0,17.0,9.0,0.0
-2.0,-28.0,-9.0,1.0,3.0,24.0,-1.0,23.0,44.0,54.0,0.0
12.0,2.0,-4.0,8.0,7.0,12.0,-16.0,35.0,101.0,69.0,0.0
19.0,14.0,9.0,6.0,4.0,7.0,-10.0,33.0,107.0,82.0,0.0
21.0,19.0,26.0,4.0,-5.0,0.0,-10.0,4.0,52.0,68.0,0.0
21.0,34.0,9.0,25.0,-4.0,12.0,-17.0,-6.0,-2.0,28.0,0.0
21.0,37.0,-8.0,23.0,-7.0,11.0,-18.0,4.0,-11.0,17.0,0.0
13.0,25.0,-16.0,5.0,-11.0,10.0,-9.0,13.0,2.0,20.0,0.0
19.0,30.0,-11.0,4.0,-8.0,15.0,-7.0,8.0,-10.0,-4.0,0.0
36.0,41.0,-10.0,18.0,-2.0,21.0,-1.0,10.0,-25.0,-41.0,0.0
40.0,37.0,-14.0,18.0,-7.0,4.0,0.0,12.0,-1.0,-19.0,0.0
40.0,34.0,-13.0,4.0,-17.0,3.0,4.0,17.0,45.0,44.0,0.0
20.0,13.0,-15.0,0.0,-17.0,13.0,2.0,19.0,78.0,117.0,0.0
10.0,5.0,-17.0,-1.0,-15.0,15.0,1.0,18.0,59.0,111.0,0.0
27.0,15.0,-17.0,-6.0,-17.0,0.0,4.0,13.0,40.0,70.0,0.0
41.0,15.0,-19.0,-10.0,-24.0,-6.0,-4.0,1.0,36.0,70.0,0.0
47.0,8.0,-21.0,-21.0,-9.0,19.0,-8.0,13.0,24.0,53.0,0.0
15.0,0.0,-17.0,-17.0,4.0,29.0,15.0,26.0,16.0,31.0,0.0
-22.0,-6.0,-8.0,-8.0,11.0,36.0,16.0,15.0,-13.0,-2.0,0.0
-35.0,-5.0,-9.0,-19.0,16.0,24.0,4.0,10.0,-38.0,-38.0,0.0
-35.0,-7.0,-5.0,-31.0,16.0,10.0,0.0,8.0,-54.0,-60.0,0.0
-22.0,-12.0,-3.0,-27.0,13.0,11.0,0.0,6.0,-69.0,-90.0,0.0
-21.0,-11.0,2.0,-19.0,20.0,12.0,0.0,8.0,-71.0,-79.0,0.0
-17.0,-4.0,-5.0,-1.0,9.0,3.0,-11.0,4.0,-39.0,-42.0,0.0
-42.0,-5.0,-9.0,-2.0,-11.0,-11.0,-16.0,8.0,23.0,-15.0,0.0
-53.0,-16.0,-8.0,-14.0,-13.0,-3.0,-8.0,12.0,44.0,5.0,0.0
-48.0,-7.0,-4.0,-13.0,0.0,7.0,8.0,6.0,25.0,-18.0,0.0
-42.0,-1.0,1.0,-1.0,3.0,10.0,16.0,3.0,20.0,-22.0,0.0
-38.0,2.0,1.0,-3.0,0.0,6.0,15.0,7.0,6.0,-10.0,0.0
-24.0,1.0,-2.0,-7.0,-2.0,10.0,17.0,-2.0,-7.0,-20.0,0.0
-17.0,-1.0,-2.0,0.0,-7.0,15.0,16.0,-6.0,-9.0,-28.0,0.0
-17.0,0.0,-2.0,11.0,1.0,17.0,6.0,3.0,-6.0,-36.0,0.0
-8.0,0.0,2.0,0.0,4.0,9.0,12.0,3.0,-4.0,-28.0,0.0
-1.0,6.0,1.0,-2.0,6.0,1.0,2.0,7.0,-4.0,-23.0,0.0
-11.0,12.0,-3.0,-2.0,2.0,7.0,-3.0,4.0,-6.0,-21.0,0.0
-12.0,10.0,-9.0,-8.0,-1.0,0.0,3.0,-3.0,-1.0,-20.0,0.0
-9.0,8.0,-10.0,-9.0,1.0,-6.0,-3.0,1.0,9.0,-16.0,0.0
0.0,-6.0,-6.0,-6.0,10.0,-17.0,-4.0,9.0,8.0,-7.0,0.0
8.0,-13.0,0.0,-12.0,5.0,-11.0,-4.0,11.0,0.0,-9.0,0.0
15.0,-8.0,1.0,1.0,12.0,1.0,-5.0,0.0,0.0,1.0,0.0
25.0,5.0,-4.0,0.0,15.0,1.0,-18.0,-10.0,-7.0,17.0,0.0
18.0,11.0,4.0,2.0,12.0,-5.0,-21.0,-7.0,-19.0,21.0,0.0
-1.0,9.0,8.0,2.0,13.0,-17.0,-19.0,-7.0,-18.0,20.0,0.0
5.0,20.0,-1.0,5.0,4.0,-21.0,-21.0,-16.0,-18.0,12.0,0.0
22.0,29.0,-4.0,10.0,-8.0,-27.0,-13.0,-22.0,-35.0,-20.0,0.0
24.0,22.0,-4.0,13.0,-3.0,-15.0,3.0,-6.0,-24.0,-52.0,0.0
11.0,15.0,-1.0,19.0,9.0,-4.0,13.0,5.0,-16.0,-73.0,0.0
22.0,15.0,-5.0,42.0,11.0,-6.0,9.0,-4.0,-37.0,-79.0,0.0
51.0,39.0,-3.0,57.0,12.0,-14.0,9.0,-9.0,-40.0,-34.0,0.0
73.0,55.0,1.0,49.0,10.0,-13.0,11.0,-13.0,-43.0,15.0,0.0
73.0,29.0,-4.0,42.0,7.0,-19.0,0.0,-15.0,-38.0,50.0,0.0
53.0,8.0,-17.0,23.0,-8.0,-19.0,-5.0,-13.0,-20.0,44.0,0.0
21.0,16.0,-12.0,21.0,0.0,-23.0,-16.0,-10.0,-29.0,-46.0,0.0
17.0,37.0,3.0,26.0,19.0,-14.0,-20.0,0.0,-28.0,-40.0,0.0
35.0,39.0,0.0,37.0,19.0,1.0,-1.0,42.0,60.0,114.0,0.0
35.0,21.0,-5.0,21.0,6.0,11.0,14.0,65.0,142.0,270.0,0.0
19.0,0.0,-35.0,8.0,-4.0,-1.0,1.0,49.0,129.0,297.0,0.0
-5.0,-27.0,-52.0,-13.0,-11.0,-12.0,-26.0,12.0,37.0,148.0,0.0
-15.0,-55.0,-68.0,-14.0,-2.0,-13.0,-25.0,-4.0,-27.0,-19.0,0.0
15.0,-34.0,-55.0,-5.0,2.0,-8.0,-21.0,-11.0,-39.0,-23.0,0.0
57.0,-7.0,-17.0,1.0,6.0,-9.0,-27.0,-25.0,-37.0,-1.0,0.0
81.0,17.0,-10.0,-1.0,4.0,-11.0,-40.0,-34.0,-41.0,-12.0,0.0
75.0,41.0,-21.0,0.0,-2.0,-10.0,-39.0,-24.0,-20.0,-2.0,0.0
17.0,15.0,-7.0,2.0,6.0,-6.0,-14.0,4.0,19.0,9.0,0.0
-68.0,-15.0,7.0,17.0,34.0,17.0,3.0,13.0,21.0,-58.0,0.0
-134.0,-29.0,17.0,32.0,49.0,39.0,15.0,20.0,-4.0,-146.0,0.0
-138.0,-35.0,14.0,42.0,56.0,54.0,30.0,33.0,-12.0,-174.0,0.0
-126.0,-35.0,13.0,35.0,44.0,52.0,26.0,39.0,-14.0,-148.0,0.0
-115.0,-33.0,14.0,22.0,30.0,30.0,17.0,17.0,-24.0,-123.0,0.0
-86.0,-33.0,3.0,6.0,29.0,15.0,15.0,4.0,-17.0,-103.0,0.0
-59.0,-26.0,-1.0,0.0,27.0,-1.0,4.0,5.0,-19.0,-85.0,0.0
-28.0,-10.0,16.0,0.0,31.0,-7.0,-5.0,-9.0,-14.0,-57.0,0.0
-10.0,5.0,10.0,0.0,22.0,-6.0,-4.0,-19.0,-20.0,-43.0,0.0
1.0,9.0,-14.0,-3.0,9.0,-4.0,0.0,-19.0,-16.0,-26.0,0.0
4.0,9.0,-14.0,-9.0,5.0,-15.0,1.0,-4.0,-9.0,-18.0,0.0
6.0,17.0,0.0,-13.0,14.0,-10.0,5.0,-10.0,-15.0,-21.0,0.0
0.0,12.0,9.0,-3.0,26.0,-6.0,7.0,-18.0,-14.0,-16.0,0.0
9.0,11.0,5.0,4.0,12.0,-3.0,3.0,-9.0,-3.0,2.0,0.0
32.0,10.0,-3.0,-8.0,-1.0,-11.0,-6.0,1.0,15.0,43.0,0.0
34.0,13.0,6.0,-7.0,-3.0,-6.0,-3.0,5.0,29.0,74.0,0.0
27.0,9.0,-1.0,-8.0,-2.0,-12.0,-8.0,-1.0,18.0,99.0,0.0
19.0,15.0,-21.0,-10.0,-5.0,-22.0,-16.0,-16.0,-4.0,65.0,0.0
28.0,25.0,7.0,3.0,-1.0,-24.0,-16.0,-20.0,-17.0,13.0,0.0
10.0,23.0,14.0,17.0,5.0,-11.0,-6.0,-21.0,-25.0,3.0,0.0
-8.0,9.0,6.0,25.0,15.0,0.0,-1.0,-19.0,-35.0,-13.0,0.0
5.0,13.0,3.0,26.0,17.0,-2.0,-7.0,-21.0,-37.0,-11.0,0.0
29.0,26.0,2.0,14.0,7.0,-7.0,-28.0,-21.0,-37.0,-11.0,0.0
44.0,40.0,10.0,14.0,9.0,-9.0,-37.0,-24.0,-42.0,-23.0,0.0
35.0,37.0,14.0,13.0,22.0,15.0,-11.0,-13.0,-43.0,-15.0,0.0
44.0,40.0,12.0,13.0,21.0,13.0,4.0,-13.0,-63.0,-20.0,0.0
88.0,49.0,11.0,9.0,15.0,7.0,6.0,-27.0,-84.0,-15.0,0.0
130.0,50.0,10.0,3.0,17.0,10.0,2.0,-32.0,-99.0,58.0,0.0
146.0,42.0,9.0,5.0,14.0,9.0,-5.0,-35.0,-94.0,166.0,0.0
147.0,27.0,2.0,-10.0,0.0,0.0,-17.0,-53.0,-99.0,248.0,0.0
117.0,21.0,-7.0,-16.0,-2.0,-10.0,-33.0,-65.0,-119.0,146.0,0.0
94.0,21.0,-26.0,-15.0,-8.0,-17.0,-37.0,-25.0,-54.0,147.0,0.0
62.0,0.0,-48.0,-46.0,-47.0,-44.0,-52.0,20.0,107.0,221.0,0.0
-11.0,-26.0,-60.0,-60.0,-47.0,-44.0,-53.0,56.0,203.0,73.0,0.0
-67.0,-45.0,-32.0,-28.0,-6.0,-5.0,-4.0,89.0,214.0,-19.0,0.0
-108.0,-62.0,-39.0,-9.0,10.0,14.0,19.0,112.0,217.0,29.0,0.0
-145.0,-72.0,-45.0,-9.0,4.0,10.0,16.0,90.0,174.0,46.0,0.0
-144.0,-77.0,-42.0,-7.0,0.0,10.0,17.0,57.0,118.0,-8.0,0.0
-131.0,-72.0,-44.0,-6.0,-9.0,8.0,9.0,44.0,77.0,-88.0,0.0
-122.0,-51.0,-37.0,-5.0,3.0,16.0,0.0,41.0,46.0,-142.0,0.0
-107.0,-26.0,-15.0,17.0,16.0,24.0,5.0,31.0,28.0,-151.0,0.0
-108.0,-19.0,-25.0,16.0,17.0,30.0,20.0,32.0,7.0,-135.0,0.0
-85.0,-24.0,-26.0,18.0,2.0,22.0,13.0,23.0,2.0,-117.0,0.0
-61.0,-28.0,-23.0,13.0,-3.0,17.0,7.0,8.0,-4.0,-100.0,0.0
-46.0,-26.0,-19.0,1.0,-7.0,5.0,9.0,-8.0,-11.0,-64.0,0.0
-33.0,-22.0,-23.0,9.0,-2.0,-1.0,16.0,-8.0,-11.0,-48.0,0.0
-26.0,-5.0,-22.0,14.0,-8.0,-4.0,23.0,1.0,0.0,-43.0,0.0
-14.0,3.0,-5.0,15.0,-9.0,-2.0,20.0,13.0,10.0,-38.0,0.0
-20.0,10.0,-2.0,5.0,-9.0,1.0,20.0,18.0,3.0,-25.0,0.0
-36.0,2.0,11.0,3.0,-9.0,19.0,10.0,20.0,-7.0,-44.0,0.0
-43.0,-15.0,12.0,0.0,-3.0,15.0,2.0,5.0,-10.0,-48.0,0.0
-31.0,-9.0,-4.0,0.0,-10.0,3.0,-11.0,-5.0,-10.0,-39.0,0.0
-10.0,11.0,8.0,8.0,-2.0,1.0,-19.0,-11.0,-25.0,-34.0,0.0
0.0,16.0,26.0,13.0,11.0,-5.0,-15.0,-5.0,-25.0,-21.0,0.0
9.0,14.0,38.0,5.0,8.0,-10.0,-9.0,0.0,-5.0,-6.0,0.0
-1.0,9.0,41.0,0.0,-1.0,-5.0,-12.0,0.0,-6.0,3.0,0.0
7.0,2.0,31.0,-4.0,-4.0,1.0,-8.0,4.0,-5.0,13.0,0.0
18.0,9.0,22.0,-12.0,-1.0,0.0,3.0,4.0,-6.0,27.0,0.0
19.0,21.0,-1.0,-13.0,4.0,-3.0,-1.0,2.0,-12.0,33.0,0.0
24.0,24.0,-5.0,-18.0,2.0,-3.0,-11.0,5.0,-17.0,35.0,0.0
29.0,23.0,10.0,-23.0,-12.0,-14.0,-2.0,2.0,-13.0,26.0,0.0
22.0,24.0,10.0,-20.0,-14.0,-18.0,0.0,-13.0,-16.0,8.0,0.0
18.0,21.0,14.0,-12.0,-7.0,-13.0,0.0,-21.0,-30.0,-13.0,0.0
22.0,24.0,-3.0,-26.0,-4.0,-16.0,1.0,-23.0,-34.0,-4.0,0.0
12.0,16.0,-26.0,-46.0,-10.0,-12.0,2.0,-13.0,-21.0,-15.0,0.0
3.0,11.0,-28.0,-37.0,-9.0,-3.0,23.0,-6.0,-15.0,-8.0,0.0
7.0,8.0,0.0,-32.0,1.0,-3.0,10.0,-11.0,-67.0,-27.0,0.0
4.0,20.0,15.0,-30.0,13.0,0.0,-2.0,-30.0,-102.0,-51.0,0.0
4.0,15.0,9.0,-30.0,12.0,0.0,0.0,-37.0,-115.0,-62.0,0.0
18.0,15.0,-2.0,-25.0,8.0,-6.0,10.0,-21.0,-107.0,-46.0,0.0
27.0,26.0,10.0,-27.0,5.0,-21.0,21.0,-20.0,-86.0,-35.0,0.0
21.0,14.0,25.0,-20.0,10.0,-27.0,17.0,-32.0,-63.0,-30.0,0.0
48.0,10.0,29.0,-31.0,2.0,-37.0,8.0,-10.0,6.0,58.0,0.0
91.0,18.0,25.0,-44.0,-10.0,-47.0,0.0,-7.0,43.0,135.0,0.0
100.0,34.0,26.0,-42.0,-10.0,-41.0,11.0,-29.0,5.0,121.0,0.0
90.0,28.0,24.0,-52.0,-13.0,-52.0,3.0,-42.0,-4.0,150.0,0.0
94.0,14.0,8.0,-65.0,-34.0,-72.0,-21.0,-33.0,47.0,207.0,0.0
128.0,39.0,22.0,-59.0,-43.0,-66.0,-27.0,-23.0,97.0,237.0,0.0
131.0,54.0,32.0,-51.0,-45.0,-44.0,-25.0,-14.0,116.0,282.0,0.0
85.0,26.0,16.0,-50.0,-42.0,-29.0,-17.0,-2.0,111.0,233.0,0.0
29.0,0.0,8.0,-40.0,-29.0,-20.0,-8.0,-9.0,62.0,106.0,0.0
1.0,-9.0,17.0,-24.0,-11.0,-7.0,-2.0,-6.0,29.0,-22.0,0.0
-44.0,-1.0,23.0,-4.0,1.0,3.0,5.0,-10.0,13.0,-154.0,0.0
-94.0,0.0,24.0,13.0,16.0,16.0,19.0,8.0,12.0,-211.0,0.0
-119.0,-14.0,18.0,40.0,29.0,35.0,27.0,23.0,6.0,-183.0,0.0
-106.0,-28.0,14.0,49.0,29.0,47.0,30.0,25.0,4.0,-136.0,0.0
-76.0,-34.0,8.0,36.0,19.0,53.0,24.0,26.0,25.0,-72.0,0.0
-60.0,-38.0,0.0,23.0,11.0,48.0,22.0,18.0,19.0,-32.0,0.0
-43.0,-19.0,-2.0,10.0,0.0,34.0,16.0,10.0,21.0,-16.0,0.0
-21.0,1.0,10.0,5.0,-7.0,17.0,-3.0,3.0,21.0,-30.0,0.0
-18.0,16.0,16.0,6.0,-8.0,12.0,-14.0,3.0,15.0,-29.0,0.0
-13.0,7.0,14.0,7.0,-8.0,11.0,-12.0,6.0,26.0,1.0,0.0
-9.0,11.0,5.0,0.0,0.0,6.0,-15.0,-3.0,27.0,17.0,0.0
-18.0,11.0,6.0,0.0,-2.0,1.0,-17.0,-17.0,11.0,18.0,0.0
-21.0,8.0,3.0,-3.0,-10.0,4.0,-7.0,-6.0,8.0,0.0,0.0
-9.0,12.0,6.0,7.0,-20.0,9.0,-8.0,-4.0,15.0,-11.0,0.0
-15.0,6.0,8.0,10.0,-22.0,5.0,-17.0,-19.0,-6.0,-26.0,0.0
-17.0,-9.0,-5.0,-2.0,-18.0,-2.0,-13.0,-25.0,-11.0,0.0,0.0
2.0,-7.0,-1.0,-6.0,-9.0,-1.0,-4.0,-23.0,-6.0,29.0,0.0
19.0,5.0,8.0,-15.0,0.0,-4.0,-7.0,-9.0,-5.0,49.0,0.0
34.0,1.0,6.0,-13.0,-4.0,2.0,-8.0,-9.0,-1.0,46.0,0.0
33.0,3.0,-2.0,-13.0,3.0,4.0,-5.0,-7.0,-8.0,16.0,0.0
26.0,5.0,2.0,-13.0,7.0,4.0,-8.0,2.0,-12.0,-1.0,0.0
10.0,5.0,4.0,-8.0,7.0,4.0,-18.0,1.0,-17.0,-31.0,0.0
-4.0,7.0,3.0,-9.0,21.0,0.0,-11.0,1.0,-19.0,-56.0,0.0
6.0,11.0,5.0,3.0,20.0,-8.0,-1.0,-5.0,-15.0,-69.0,0.0
15.0,21.0,10.0,20.0,13.0,-5.0,5.0,-4.0,-25.0,-84.0,0.0
9.0,17.0,0.0,18.0,4.0,3.0,8.0,0.0,-32.0,-92.0,0.0
10.0,-3.0,4.0,10.0,9.0,-16.0,8.0,-2.0,-13.0,-61.0,0.0
39.0,10.0,11.0,12.0,7.0,-16.0,-4.0,5.0,41.0,-11.0,0.0
60.0,25.0,13.0,22.0,9.0,-7.0,-8.0,7.0,69.0,32.0,0.0
56.0,22.0,3.0,27.0,11.0,-8.0,-1.0,0.0,40.0,46.0,0.0
43.0,4.0,-3.0,19.0,2.0,-10.0,1.0,-2.0,-3.0,42.0,0.0
35.0,5.0,-1.0,10.0,6.0,-13.0,-6.0,-16.0,-33.0,11.0,0.0
33.0,17.0,4.0,23.0,1.0,1.0,-8.0,-27.0,-65.0,-41.0,0.0
34.0,16.0,10.0,22.0,-3.0,8.0,-3.0,-31.0,-86.0,-68.0,0.0
46.0,23.0,33.0,16.0,0.0,15.0,9.0,-25.0,-87.0,-97.0,0.0
58.0,19.0,33.0,15.0,7.0,14.0,8.0,-23.0,-87.0,-107.0,0.0
42.0,8.0,5.0,5.0,6.0,3.0,-4.0,-27.0,-77.0,-67.0,0.0
29.0,4.0,-14.0,-6.0,-13.0,-20.0,-15.0,-18.0,-27.0,18.0,0.0
1.0,-16.0,-13.0,-15.0,-24.0,-33.0,-4.0,0.0,48.0,79.0,0.0
-25.0,-33.0,-11.0,-8.0,-19.0,-28.0,-5.0,7.0,74.0,72.0,0.0
-15.0,-8.0,-3.0,12.0,-9.0,-14.0,-12.0,11.0,43.0,22.0,0.0
-11.0,0.0,5.0,5.0,0.0,-12.0,-11.0,27.0,64.0,17.0,0.0
-19.0,-7.0,8.0,-7.0,-5.0,-29.0,-3.0,40.0,108.0,28.0,0.0
8.0,2.0,6.0,-13.0,-11.0,-32.0,-3.0,26.0,94.0,15.0,0.0
46.0,17.0,0.0,-11.0,-4.0,-34.0,-14.0,15.0,53.0,19.0,0.0
68.0,10.0,-11.0,-18.0,-2.0,-28.0,-8.0,10.0,33.0,46.0,0.0
69.0,-12.0,-16.0,-17.0,-25.0,-26.0,-17.0,3.0,44.0,103.0,0.0
51.0,-31.0,-18.0,-16.0,-33.0,-17.0,-10.0,20.0,47.0,136.0,0.0
41.0,-31.0,-4.0,-11.0,-15.0,-4.0,0.0,39.0,39.0,103.0,0.0
5.0,-29.0,1.0,4.0,-2.0,4.0,-1.0,37.0,12.0,45.0,0.0
-13.0,-22.0,0.0,14.0,-1.0,3.0,-6.0,24.0,0.0,2.0,0.0
-16.0,-20.0,0.0,20.0,0.0,6.0,3.0,37.0,15.0,0.0,0.0
-14.0,-20.0,0.0,30.0,4.0,5.0,23.0,36.0,13.0,-20.0,0.0
-32.0,-21.0,1.0,17.0,6.0,10.0,16.0,24.0,-7.0,-55.0,0.0
-28.0,-26.0,0.0,1.0,3.0,8.0,3.0,16.0,-10.0,-46.0,0.0
-3.0,-34.0,3.0,5.0,-11.0,-1.0,1.0,13.0,-15.0,-3.0,0.0
2.0,-36.0,17.0,3.0,-1.0,-11.0,9.0,6.0,-14.0,7.0,0.0
-5.0,-25.0,13.0,-4.0,11.0,-2.0,26.0,4.0,-17.0,-10.0,0.0
-24.0,-23.0,-1.0,-8.0,19.0,15.0,34.0,14.0,-23.0,-27.0,0.0
-23.0,-10.0,0.0,-7.0,17.0,26.0,37.0,10.0,-21.0,-34.0,0.0
8.0,2.0,6.0,-15.0,3.0,14.0,14.0,-14.0,-37.0,-38.0,0.0
34.0,13.0,11.0,-12.0,-1.0,-11.0,-5.0,-31.0,-47.0,-36.0,0.0
21.0,4.0,5.0,-16.0,-3.0,-14.0,-7.0,-11.0,-19.0,-28.0,0.0
16.0,-10.0,-10.0,-25.0,-15.0,-2.0,-5.0,24.0,51.0,33.0,0.0
36.0,-10.0,-17.0,-31.0,-18.0,-4.0,-17.0,21.0,67.0,128.0,0.0
33.0,-7.0,-9.0,-30.0,-11.0,-3.0,-28.0,-11.0,3.0,116.0,0.0
-6.0,12.0,9.0,11.0,5.0,6.0,-27.0,-28.0,-47.0,12.0,0.0
-12.0,28.0,9.0,25.0,-1.0,12.0,-15.0,-30.0,-63.0,-42.0,0.0
-5.0,3.0,6.0,25.0,-5.0,13.0,-1.0,-8.0,-4.0,-27.0,0.0
-2.0,-8.0,0.0,26.0,-2.0,14.0,1.0,-8.0,30.0,-10.0,0.0
-5.0,-14.0,-10.0,24.0,0.0,14.0,-3.0,3.0,40.0,69.0,0.0
-22.0,-36.0,-21.0,11.0,0.0,17.0,5.0,10.0,41.0,138.0,0.0
-39.0,-43.0,-13.0,-9.0,3.0,6.0,12.0,-9.0,-18.0,39.0,0.0
-49.0,-35.0,2.0,-2.0,11.0,3.0,-1.0,-26.0,-55.0,-93.0,0.0
-44.0,-24.0,9.0,13.0,10.0,14.0,14.0,-6.0,-40.0,-100.0,0.0
-28.0,-15.0,5.0,17.0,13.0,24.0,19.0,-2.0,-31.0,-68.0,0.0
-1.0,-7.0,5.0,20.0,10.0,12.0,7.0,-18.0,-43.0,-37.0,0.0
21.0,-9.0,-2.0,4.0,-5.0,0.0,0.0,-16.0,-35.0,-2.0,0.0
31.0,-11.0,-18.0,-14.0,-22.0,-13.0,-9.0,-11.0,-25.0,44.0,0.0
39.0,1.0,-5.0,-13.0,-19.0,-9.0,-2.0,-10.0,-18.0,80.0,0.0
46.0,13.0,2.0,-7.0,-14.0,-2.0,-2.0,6.0,-3.0,133.0,0.0
26.0,23.0,4.0,-1.0,-1.0,-2.0,-1.0,6.0,13.0,163.0,0.0
0.0,10.0,6.0,-7.0,-4.0,-3.0,-8.0,7.0,-10.0,121.0,0.0
-10.0,-9.0,-7.0,-22.0,-12.0,-10.0,-15.0,9.0,-3.0,99.0,0.0
-59.0,-36.0,-14.0,-18.0,-13.0,1.0,-7.0,23.0,28.0,-44.0,0.0
-89.0,-31.0,-5.0,-4.0,19.0,22.0,14.0,37.0,30.0,-157.0,0.0
-85.0,-26.0,1.0,8.0,30.0,27.0,4.0,39.0,19.0,-128.0,0.0
-71.0,-14.0,2.0,14.0,16.0,27.0,-1.0,29.0,16.0,-86.0,0.0
-51.0,-3.0,1.0,14.0,14.0,23.0,0.0,25.0,10.0,-45.0,0.0
-26.0,-9.0,2.0,0.0,0.0,8.0,-6.0,23.0,14.0,4.0,0.0
18.0,-5.0,0.0,-19.0,-7.0,-12.0,-21.0,11.0,19.0,55.0,0.0
75.0,0.0,1.0,-22.0,-15.0,-26.0,-24.0,-5.0,15.0,123.0,0.0
158.0,24.0,1.0,-11.0,-29.0,-34.0,-29.0,-22.0,30.0,277.0,0.0
202.0,41.0,0.0,-12.0,-28.0,-36.0,-19.0,-25.0,46.0,352.0,0.0
189.0,55.0,1.0,-10.0,-22.0,-23.0,-27.0,-47.0,20.0,310.0,0.0
109.0,44.0,0.0,-17.0,-23.0,-24.0,-37.0,-44.0,-18.0,215.0,0.0
-33.0,-7.0,1.0,-24.0,-17.0,-23.0,-25.0,-24.0,-21.0,-20.0,0.0
-146.0,-42.0,10.0,4.0,19.0,18.0,10.0,-3.0,-43.0,-275.0,0.0
-186.0,-45.0,27.0,35.0,47.0,55.0,53.0,22.0,-48.0,-336.0,0.0
-172.0,-39.0,17.0,26.0,47.0,54.0,57.0,26.0,-51.0,-314.0,0.0
-123.0,-24.0,8.0,33.0,35.0,37.0,41.0,3.0,-54.0,-256.0,0.0
-89.0,-19.0,11.0,31.0,31.0,28.0,34.0,-16.0,-68.0,-189.0,0.0
-67.0,-14.0,30.0,23.0,21.0,27.0,16.0,-5.0,-73.0,-152.0,0.0
-42.0,-14.0,12.0,5.0,10.0,22.0,-2.0,-9.0,-47.0,-110.0,0.0
-16.0,-12.0,0.0,-3.0,13.0,10.0,-4.0,-18.0,-23.0,-70.0,0.0
17.0,0.0,1.0,4.0,15.0,4.0,-3.0,-13.0,19.0,-43.0,0.0
41.0,16.0,1.0,7.0,9.0,3.0,-7.0,10.0,52.0,0.0,0.0
23.0,5.0,-14.0,-3.0,-4.0,-3.0,-2.0,-3.0,36.0,6.0,0.0
-5.0,-7.0,-18.0,-5.0,-4.0,-5.0,-3.0,-21.0,22.0,11.0,0.0
-5.0,-8.0,-10.0,-9.0,-14.0,-9.0,-5.0,-30.0,2.0,58.0,0.0
-10.0,0.0,-13.0,-7.0,-9.0,-8.0,-4.0,-36.0,-41.0,43.0,0.0
-23.0,10.0,-7.0,0.0,1.0,-7.0,-2.0,-49.0,-75.0,-36.0,0.0
-31.0,6.0,2.0,13.0,8.0,0.0,-1.0,-51.0,-94.0,-66.0,0.0
-14.0,8.0,5.0,23.0,22.0,12.0,14.0,-28.0,-95.0,-55.0,0.0
7.0,11.0,-1.0,19.0,19.0,6.0,16.0,-21.0,-95.0,-52.0,0.0
17.0,12.0,1.0,16.0,9.0,0.0,7.0,-29.0,-102.0,-44.0,0.0
24.0,14.0,5.0,5.0,-6.0,-25.0,-3.0,-27.0,-53.0,29.0,0.0
38.0,16.0,-3.0,-9.0,-23.0,-42.0,-16.0,-11.0,10.0,118.0,0.0
45.0,0.0,-11.0,-18.0,-30.0,-45.0,-30.0,20.0,84.0,184.0,0.0
27.0,-4.0,-13.0,-12.0,-33.0,-35.0,-38.0,22.0,94.0,161.0,0.0
14.0,-4.0,-21.0,-9.0,-26.0,-33.0,-23.0,14.0,50.0,60.0,0.0
22.0,1.0,-37.0,-2.0,-19.0,-32.0,-14.0,17.0,29.0,41.0,0.0
20.0,-1.0,-37.0,0.0,-17.0,-26.0,-4.0,13.0,32.0,48.0,0.0
18.0,-9.0,-26.0,2.0,-13.0,-27.0,-13.0,14.0,44.0,62.0,0.0
64.0,-3.0,-26.0,-5.0,-6.0,-35.0,-19.0,13.0,46.0,119.0,0.0
97.0,12.0,-29.0,-20.0,-12.0,-45.0,-16.0,13.0,47.0,153.0,0.0
104.0,14.0,-24.0,-21.0,-13.0,-46.0,-9.0,19.0,35.0,151.0,0.0
94.0,27.0,-36.0,-17.0,-17.0,-51.0,-19.0,1.0,29.0,153.0,0.0
42.0,22.0,-46.0,-18.0,-18.0,-52.0,-15.0,-21.0,19.0,118.0,0.0
-22.0,-11.0,-36.0,0.0,-6.0,-24.0,10.0,-7.0,16.0,46.0,0.0
-76.0,-13.0,-2.0,24.0,14.0,6.0,40.0,26.0,25.0,-27.0,0.0
-107.0,-14.0,7.0,36.0,36.0,26.0,51.0,36.0,7.0,-87.0,0.0
-125.0,-18.0,14.0,22.0,40.0,35.0,55.0,32.0,-5.0,-123.0,0.0
-111.0,-25.0,-8.0,21.0,34.0,24.0,48.0,26.0,-10.0,-126.0,0.0
-80.0,-25.0,-14.0,0.0,15.0,25.0,39.0,17.0,-17.0,-108.0,0.0
-27.0,-20.0,-1.0,-13.0,-4.0,17.0,28.0,14.0,-15.0,-70.0,0.0
12.0,-15.0,1.0,-20.0,-7.0,6.0,9.0,10.0,-6.0,-23.0,0.0
9.0,-16.0,1.0,-20.0,-3.0,5.0,8.0,-3.0,-2.0,4.0,0.0
-9.0,-8.0,-26.0,-24.0,2.0,5.0,13.0,-6.0,0.0,1.0,0.0
-8.0,-2.0,-14.0,-18.0,2.0,9.0,20.0,3.0,-5.0,-16.0,0.0
4.0,-5.0,0.0,-18.0,-1.0,8.0,25.0,-4.0,-8.0,-27.0,0.0
6.0,-13.0,-22.0,-17.0,-9.0,1.0,23.0,-1.0,-11.0,-16.0,0.0
-12.0,-21.0,-34.0,1.0,-7.0,10.0,19.0,-4.0,0.0,-21.0,0.0
-35.0,-19.0,-27.0,15.0,1.0,20.0,21.0,-11.0,-13.0,-50.0,0.0
-38.0,-13.0,-17.0,20.0,-3.0,22.0,20.0,-4.0,-12.0,-49.0,0.0
-33.0,-12.0,-13.0,17.0,-18.0,27.0,14.0,-7.0,-6.0,-33.0,0.0
-24.0,-10.0,-3.0,11.0,-19.0,27.0,5.0,-3.0,-14.0,-32.0,0.0
-10.0,-2.0,-20.0,2.0,-22.0,26.0,3.0,-5.0,-15.0,-21.0,0.0
-6.0,0.0,-10.0,-5.0,-25.0,36.0,1.0,5.0,-9.0,-5.0,0.0
-5.0,1.0,1.0,3.0,-21.0,35.0,0.0,2.0,-3.0,-5.0,0.0
-1.0,3.0,-11.0,3.0,-18.0,31.0,2.0,-2.0,-9.0,-4.0,0.0
5.0,0.0,-4.0,9.0,-13.0,27.0,-7.0,-7.0,-22.0,3.0,0.0
18.0,17.0,-2.0,1.0,-13.0,14.0,-9.0,-22.0,-34.0,-8.0,0.0
34.0,15.0,-14.0,-16.0,-22.0,6.0,-18.0,-15.0,-43.0,-11.0,0.0
38.0,-8.0,-7.0,-18.0,-20.0,5.0,-9.0,8.0,-17.0,-3.0,0.0
23.0,-12.0,-12.0,-1.0,-19.0,4.0,9.0,4.0,-16.0,-28.0,0.0
32.0,8.0,-12.0,13.0,-21.0,5.0,10.0,-3.0,-40.0,-30.0,0.0
49.0,10.0,-23.0,0.0,-32.0,5.0,3.0,-6.0,-44.0,7.0,0.0
75.0,11.0,-33.0,-12.0,-29.0,0.0,1.0,5.0,-12.0,58.0,0.0
104.0,13.0,-34.0,-7.0,-29.0,-7.0,-12.0,15.0,11.0,97.0,0.0
107.0,21.0,-32.0,-2.0,-31.0,-20.0,-8.0,16.0,16.0,114.0,0.0
92.0,15.0,-20.0,-2.0,-27.0,-24.0,5.0,23.0,48.0,140.0,0.0
15.0,-17.0,-23.0,-17.0,-31.0,-19.0,18.0,32.0,65.0,125.0,0.0
-54.0,-38.0,-38.0,-20.0,-42.0,-11.0,23.0,18.0,61.0,56.0,0.0
-41.0,-23.0,-24.0,-15.0,-40.0,-13.0,11.0,10.0,48.0,30.0,0.0
-12.0,2.0,14.0,-8.0,-35.0,-26.0,-8.0,3.0,18.0,9.0,0.0
-7.0,30.0,17.0,-5.0,-26.0,-14.0,-1.0,2.0,-5.0,-55.0,0.0
-19.0,29.0,8.0,-5.0,-9.0,2.0,21.0,1.0,-5.0,-77.0,0.0
-30.0,19.0,21.0,3.0,0.0,8.0,29.0,10.0,-4.0,-68.0,0.0
-45.0,-2.0,24.0,-5.0,5.0,0.0,28.0,15.0,-7.0,-66.0,0.0
-54.0,-26.0,36.0,-5.0,12.0,7.0,25.0,15.0,1.0,-60.0,0.0
-21.0,-15.0,28.0,-4.0,8.0,14.0,23.0,16.0,36.0,-16.0,0.0
18.0,0.0,1.0,3.0,-8.0,0.0,5.0,17.0,57.0,31.0,0.0
40.0,13.0,10.0,-3.0,-21.0,-12.0,-8.0,6.0,57.0,105.0,0.0
46.0,19.0,3.0,-10.0,-33.0,-28.0,-24.0,-22.0,12.0,145.0,0.0
33.0,15.0,-9.0,-1.0,-32.0,-34.0,-22.0,-25.0,-28.0,53.0,0.0
20.0,7.0,16.0,18.0,-7.0,-15.0,-3.0,-7.0,-40.0,-75.0,0.0
-9.0,17.0,38.0,45.0,6.0,4.0,4.0,-16.0,-73.0,-145.0,0.0
-29.0,25.0,37.0,37.0,17.0,16.0,10.0,-28.0,-81.0,-151.0,0.0
-39.0,15.0,31.0,31.0,19.0,15.0,20.0,-24.0,-66.0,-107.0,0.0
-41.0,0.0,26.0,38.0,23.0,19.0,9.0,-21.0,-68.0,-101.0,0.0
-52.0,-5.0,19.0,38.0,37.0,23.0,17.0,-7.0,-46.0,-109.0,0.0
-51.0,-14.0,17.0,31.0,47.0,23.0,34.0,17.0,15.0,-84.0,0.0
-35.0,0.0,28.0,34.0,36.0,24.0,29.0,21.0,24.0,-44.0,0.0
6.0,19.0,23.0,23.0,20.0,14.0,4.0,13.0,2.0,8.0,0.0
38.0,16.0,14.0,-1.0,18.0,6.0,-11.0,14.0,9.0,47.0,0.0
38.0,10.0,-7.0,-13.0,8.0,4.0,-11.0,24.0,38.0,59.0,0.0
37.0,10.0,3.0,-1.0,11.0,4.0,2.0,16.0,31.0,81.0,0.0
32.0,-3.0,6.0,-24.0,13.0,3.0,1.0,-3.0,2.0,72.0,0.0
13.0,2.0,2.0,-39.0,5.0,-5.0,-8.0,-17.0,-25.0,0.0,0.0
10.0,14.0,24.0,-7.0,11.0,-2.0,3.0,-6.0,-39.0,-38.0,0.0
28.0,26.0,43.0,7.0,14.0,0.0,14.0,-10.0,-52.0,-54.0,0.0
44.0,41.0,34.0,0.0,15.0,1.0,9.0,-32.0,-65.0,-64.0,0.0
49.0,33.0,6.0,-14.0,8.0,-13.0,1.0,-22.0,-11.0,-29.0,0.0
43.0,8.0,-19.0,-35.0,-21.0,-34.0,-18.0,15.0,112.0,32.0,0.0
52.0,13.0,-24.0,-45.0,-22.0,-32.0,-20.0,17.0,116.0,50.0,0.0
48.0,10.0,-11.0,-43.0,-22.0,-23.0,-6.0,4.0,71.0,55.0,0.0
24.0,3.0,-11.0,-30.0,-8.0,-13.0,-5.0,2.0,44.0,52.0,0.0
-15.0,-1.0,-21.0,-18.0,13.0,0.0,4.0,6.0,25.0,18.0,0.0
-17.0,-9.0,-14.0,-9.0,13.0,0.0,10.0,8.0,24.0,24.0,0.0
8.0,-18.0,-17.0,-13.0,7.0,-3.0,3.0,15.0,44.0,94.0,0.0
67.0,-6.0,-18.0,-8.0,2.0,-9.0,-11.0,-1.0,55.0,175.0,0.0
94.0,8.0,-3.0,-8.0,7.0,-7.0,-8.0,0.0,63.0,217.0,0.0
77.0,22.0,12.0,-11.0,11.0,-23.0,-7.0,0.0,42.0,260.0,0.0
26.0,10.0,-12.0,-24.0,-7.0,-29.0,-24.0,-18.0,3.0,245.0,0.0
-62.0,-23.0,-32.0,-36.0,-16.0,-39.0,-34.0,-45.0,-44.0,-32.0,0.0
-76.0,-26.0,-23.0,-19.0,11.0,-14.0,-8.0,-10.0,-27.0,-233.0,0.0
-45.0,-15.0,8.0,3.0,28.0,5.0,23.0,28.0,27.0,-176.0,0.0
-41.0,-18.0,7.0,2.0,31.0,10.0,38.0,47.0,46.0,-107.0,0.0
-32.0,-24.0,-15.0,-14.0,14.0,17.0,24.0,31.0,21.0,-73.0,0.0
-23.0,-19.0,-10.0,-26.0,3.0,15.0,9.0,-5.0,-3.0,-49.0,0.0
-13.0,-17.0,0.0,-26.0,3.0,21.0,7.0,-10.0,-10.0,-22.0,0.0
-10.0,-14.0,0.0,-20.0,12.0,9.0,1.0,4.0,-23.0,-49.0,0.0
-15.0,0.0,12.0,-16.0,18.0,-1.0,6.0,-13.0,-39.0,-83.0,0.0
-21.0,6.0,31.0,3.0,12.0,6.0,4.0,-16.0,-43.0,-93.0,0.0
-24.0,1.0,22.0,26.0,8.0,15.0,10.0,-2.0,-20.0,-55.0,0.0
-29.0,1.0,10.0,23.0,0.0,8.0,7.0,0.0,7.0,-31.0,0.0
-29.0,-3.0,14.0,10.0,-4.0,-4.0,-3.0,2.0,28.0,-28.0,0.0
-23.0,-8.0,22.0,10.0,-7.0,-2.0,0.0,10.0,38.0,-9.0,0.0
-2.0,0.0,29.0,0.0,-1.0,11.0,-1.0,4.0,23.0,-13.0,0.0
15.0,-1.0,25.0,-1.0,-5.0,15.0,5.0,-15.0,-13.0,-22.0,0.0
19.0,5.0,18.0,0.0,-4.0,14.0,13.0,-18.0,-17.0,-23.0,0.0
36.0,13.0,14.0,-6.0,-7.0,10.0,14.0,-13.0,3.0,-13.0,0.0
31.0,20.0,12.0,-8.0,-8.0,10.0,9.0,-16.0,-15.0,-18.0,0.0
22.0,11.0,10.0,-4.0,-7.0,7.0,8.0,-2.0,-14.0,-14.0,0.0
28.0,16.0,11.0,-7.0,-10.0,0.0,5.0,-1.0,2.0,-8.0,0.0
29.0,13.0,8.0,-7.0,-15.0,-7.0,-3.0,5.0,19.0,5.0,0.0
18.0,-6.0,3.0,4.0,-17.0,-7.0,-11.0,21.0,43.0,15.0,0.0
5.0,-16.0,6.0,3.0,-15.0,-14.0,-21.0,13.0,45.0,41.0,0.0
-6.0,-20.0,13.0,-3.0,-16.0,-16.0,-18.0,13.0,40.0,65.0,0.0
-2.0,-9.0,16.0,2.0,0.0,7.0,-1.0,18.0,32.0,53.0,0.0
1.0,-2.0,13.0,4.0,15.0,14.0,3.0,11.0,16.0,19.0,0.0
13.0,-8.0,7.0,-5.0,22.0,12.0,-2.0,7.0,-1.0,41.0,0.0
43.0,-3.0,-4.0,-13.0,9.0,-2.0,4.0,4.0,1.0,100.0,0.0
80.0,7.0,1.0,-27.0,0.0,-10.0,-11.0,0.0,2.0,119.0,0.0
99.0,10.0,9.0,-33.0,-6.0,-11.0,-24.0,-11.0,-1.0,91.0,0.0
101.0,16.0,10.0,-31.0,-17.0,-14.0,-23.0,-22.0,-2.0,42.0,0.0
79.0,25.0,7.0,-28.0,-19.0,-22.0,-19.0,-35.0,-5.0,1.0,0.0
58.0,47.0,5.0,-22.0,-4.0,-29.0,-18.0,-42.0,-6.0,24.0,0.0
37.0,24.0,-18.0,-29.0,-2.0,-26.0,-17.0,-32.0,3.0,42.0,0.0
12.0,12.0,-23.0,-19.0,4.0,-13.0,-3.0,-5.0,19.0,13.0,0.0
-8.0,6.0,-1.0,-1.0,11.0,5.0,17.0,18.0,37.0,-6.0,0.0
-15.0,7.0,13.0,10.0,11.0,22.0,24.0,30.0,37.0,-6.0,0.0
-8.0,2.0,10.0,14.0,14.0,15.0,11.0,13.0,12.0,1.0,0.0
-29.0,-17.0,-1.0,9.0,5.0,12.0,0.0,18.0,-4.0,2.0,0.0
-83.0,-45.0,-34.0,-2.0,4.0,15.0,1.0,19.0,-24.0,-42.0,0.0
-94.0,-53.0,-34.0,2.0,-1.0,10.0,7.0,15.0,-35.0,-92.0,0.0
-48.0,-23.0,-9.0,-1.0,3.0,11.0,7.0,-1.0,-38.0,-44.0,0.0
-13.0,-16.0,-13.0,-11.0,11.0,1.0,11.0,-9.0,-39.0,44.0,0.0
-4.0,-32.0,-25.0,-14.0,3.0,-11.0,12.0,0.0,-44.0,76.0,0.0
-5.0,-39.0,-29.0,-2.0,-14.0,-16.0,3.0,-5.0,-63.0,20.0,0.0
0.0,-26.0,-29.0,9.0,-18.0,-15.0,-3.0,-30.0,-64.0,-48.0,0.0
-3.0,-9.0,-1.0,11.0,-4.0,-3.0,3.0,-22.0,-44.0,-92.0,0.0
-20.0,-21.0,-7.0,13.0,2.0,2.0,0.0,1.0,-8.0,-90.0,0.0
-54.0,-49.0,-34.0,4.0,-2.0,-6.0,-3.0,11.0,31.0,-76.0,0.0
-75.0,-58.0,-35.0,13.0,-2.0,3.0,7.0,23.0,68.0,6.0,0.0
-58.0,-49.0,-25.0,9.0,-3.0,1.0,1.0,9.0,51.0,82.0,0.0
-36.0,-31.0,-19.0,6.0,-16.0,1.0,-1.0,-15.0,-9.0,45.0,0.0
-12.0,-8.0,-16.0,14.0,-14.0,7.0,-6.0,-22.0,-36.0,-19.0,0.0
8.0,0.0,-1.0,26.0,-12.0,7.0,0.0,-6.0,-45.0,-45.0,0.0
8.0,-2.0,-17.0,22.0,-15.0,11.0,2.0,0.0,-60.0,-42.0,0.0
5.0,-9.0,-7.0,17.0,-13.0,12.0,3.0,0.0,-43.0,-33.0,0.0
15.0,-8.0,2.0,10.0,-9.0,21.0,-1.0,-8.0,-38.0,-53.0,0.0
26.0,8.0,0.0,26.0,-6.0,16.0,-19.0,-22.0,-18.0,-65.0,0.0
32.0,34.0,14.0,35.0,-4.0,5.0,0.0,-4.0,25.0,-67.0,0.0
21.0,30.0,23.0,39.0,0.0,7.0,22.0,22.0,31.0,-63.0,0.0
4.0,20.0,19.0,38.0,8.0,7.0,14.0,16.0,12.0,-69.0,0.0
4.0,19.0,19.0,42.0,19.0,5.0,-1.0,0.0,-9.0,-69.0,0.0
1.0,16.0,18.0,38.0,8.0,1.0,-1.0,-10.0,-4.0,-58.0,0.0
-10.0,-4.0,-3.0,28.0,-11.0,-14.0,0.0,3.0,26.0,-6.0,0.0
0.0,-3.0,-20.0,18.0,-17.0,-25.0,-2.0,17.0,41.0,44.0,0.0
27.0,5.0,-8.0,17.0,-8.0,-19.0,10.0,15.0,42.0,45.0,0.0
32.0,-8.0,-1.0,18.0,-9.0,-6.0,16.0,7.0,18.0,34.0,0.0
33.0,-5.0,-16.0,13.0,-2.0,-1.0,19.0,14.0,1.0,38.0,0.0
41.0,8.0,-9.0,15.0,12.0,-5.0,23.0,14.0,-7.0,40.0,0.0
29.0,11.0,-12.0,12.0,10.0,-4.0,16.0,-3.0,-14.0,34.0,0.0
12.0,6.0,-36.0,-5.0,1.0,-9.0,0.0,1.0,-9.0,59.0,0.0
0.0,7.0,-39.0,-18.0,-10.0,-20.0,-23.0,6.0,17.0,108.0,0.0
1.0,9.0,-33.0,-10.0,-15.0,-13.0,-25.0,14.0,32.0,123.0,0.0
-22.0,-3.0,-39.0,-10.0,-6.0,4.0,-4.0,16.0,31.0,74.0,0.0
-48.0,-19.0,-34.0,-10.0,0.0,19.0,19.0,20.0,15.0,13.0,0.0
-31.0,-12.0,-21.0,4.0,3.0,21.0,20.0,11.0,-11.0,-9.0,0.0
-17.0,-12.0,7.0,11.0,4.0,17.0,6.0,-3.0,-31.0,-2.0,0.0
-21.0,0.0,4.0,8.0,11.0,15.0,10.0,-1.0,-39.0,-2.0,0.0
-14.0,21.0,0.0,7.0,7.0,4.0,21.0,-4.0,-36.0,-1.0,0.0
-10.0,12.0,-10.0,6.0,-5.0,-1.0,5.0,-4.0,-10.0,4.0,0.0
-13.0,-16.0,-22.0,-13.0,-15.0,-17.0,-5.0,-4.0,49.0,33.0,0.0
-12.0,-23.0,-19.0,-17.0,-20.0,-15.0,-9.0,-14.0,42.0,32.0,0.0
-7.0,-12.0,0.0,-2.0,-12.0,-1.0,-3.0,-7.0,10.0,12.0,0.0
-6.0,6.0,10.0,11.0,-6.0,7.0,1.0,-7.0,-12.0,-6.0,0.0
0.0,15.0,0.0,20.0,-4.0,7.0,-5.0,-27.0,-44.0,-33.0,0.0
21.0,11.0,16.0,13.0,-5.0,1.0,-5.0,-35.0,-50.0,-45.0,0.0
38.0,12.0,24.0,9.0,-8.0,-11.0,-14.0,-37.0,-47.0,-32.0,0.0
56.0,20.0,28.0,14.0,-20.0,-21.0,-22.0,-23.0,-6.0,2.0,0.0
55.0,19.0,1.0,9.0,-27.0,-27.0,-16.0,-4.0,25.0,40.0,0.0
37.0,12.0,8.0,7.0,-23.0,-23.0,-4.0,1.0,18.0,29.0,0.0
19.0,12.0,18.0,11.0,-19.0,-19.0,9.0,-6.0,-3.0,6.0,0.0
2.0,4.0,34.0,2.0,-8.0,-7.0,18.0,-3.0,-22.0,-16.0,0.0
0.0,-5.0,29.0,-7.0,9.0,1.0,24.0,9.0,-35.0,-15.0,0.0
15.0,-16.0,0.0,-13.0,6.0,0.0,27.0,-2.0,-32.0,23.0,0.0
41.0,-20.0,-11.0,-16.0,-3.0,-4.0,14.0,-7.0,-9.0,35.0,0.0
35.0,-14.0,-13.0,-14.0,0.0,-8.0,4.0,-1.0,-1.0,4.0,0.0
13.0,3.0,11.0,-10.0,10.0,-7.0,0.0,0.0,-4.0,-18.0,0.0
-5.0,6.0,24.0,-10.0,10.0,0.0,4.0,8.0,-3.0,-27.0,0.0
-34.0,-2.0,29.0,-8.0,16.0,5.0,18.0,23.0,-10.0,-52.0,0.0
-80.0,-13.0,27.0,0.0,25.0,14.0,30.0,22.0,1.0,-89.0,0.0
-93.0,-18.0,20.0,-11.0,25.0,15.0,31.0,27.0,46.0,-71.0,0.0
-57.0,-7.0,12.0,-5.0,19.0,7.0,16.0,37.0,83.0,-44.0,0.0
-30.0,9.0,15.0,12.0,6.0,0.0,-4.0,41.0,84.0,-5.0,0.0
-5.0,20.0,9.0,4.0,-16.0,-11.0,-23.0,32.0,90.0,70.0,0.0
32.0,27.0,-10.0,5.0,-20.0,-10.0,-23.0,19.0,103.0,91.0,0.0
69.0,33.0,3.0,5.0,-11.0,-5.0,-13.0,9.0,91.0,71.0,0.0
84.0,35.0,0.0,1.0,-15.0,-24.0,-26.0,-3.0,80.0,135.0,0.0
69.0,8.0,-7.0,4.0,-33.0,-28.0,-31.0,-7.0,56.0,165.0,0.0
19.0,-20.0,-8.0,-1.0,-32.0,-10.0,-23.0,-16.0,7.0,42.0,0.0
-9.0,-15.0,20.0,8.0,-6.0,6.0,-20.0,-8.0,-19.0,-82.0,0.0
-44.0,-16.0,34.0,36.0,21.0,24.0,-7.0,13.0,-28.0,-133.0,0.0
-70.0,-21.0,29.0,37.0,37.0,46.0,7.0,14.0,-25.0,-153.0,0.0
-73.0,-30.0,9.0,21.0,33.0,37.0,9.0,2.0,-11.0,-104.0,0.0
-58.0,-33.0,-1.0,3.0,20.0,16.0,1.0,0.0,13.0,-33.0,0.0
-30.0,-23.0,-13.0,-1.0,18.0,17.0,-12.0,-21.0,-14.0,-41.0,0.0
-12.0,-6.0,-7.0,12.0,25.0,29.0,-10.0,-37.0,-49.0,-62.0,0.0
8.0,-1.0,7.0,13.0,21.0,24.0,-7.0,-39.0,-35.0,-40.0,0.0
3.0,1.0,19.0,8.0,21.0,14.0,2.0,-30.0,-22.0,-27.0,0.0
-11.0,-3.0,25.0,13.0,11.0,14.0,6.0,-42.0,-21.0,-56.0,0.0
1.0,-6.0,20.0,12.0,11.0,13.0,15.0,-34.0,0.0,-55.0,0.0
20.0,-13.0,19.0,6.0,10.0,12.0,18.0,-9.0,36.0,-29.0,0.0
41.0,-10.0,17.0,-6.0,7.0,11.0,8.0,0.0,50.0,2.0,0.0
41.0,-17.0,19.0,-8.0,10.0,1.0,-7.0,-3.0,41.0,66.0,0.0
35.0,-10.0,13.0,-18.0,-6.0,-12.0,-29.0,-9.0,36.0,78.0,0.0
15.0,5.0,17.0,-9.0,-1.0,-4.0,-16.0,-14.0,33.0,2.0,0.0
-21.0,-6.0,19.0,8.0,16.0,13.0,2.0,-7.0,15.0,-51.0,0.0
-21.0,-13.0,10.0,16.0,27.0,19.0,2.0,7.0,19.0,-51.0,0.0
-12.0,-24.0,2.0,8.0,20.0,18.0,12.0,0.0,24.0,-26.0,0.0
-12.0,-25.0,10.0,-24.0,5.0,10.0,21.0,-14.0,13.0,-12.0,0.0
-4.0,-19.0,3.0,-38.0,0.0,7.0,22.0,-19.0,-7.0,-11.0,0.0
24.0,-11.0,3.0,-32.0,3.0,6.0,-2.0,-26.0,-17.0,23.0,0.0
46.0,-4.0,2.0,-17.0,-2.0,2.0,-6.0,-13.0,10.0,76.0,0.0
36.0,-8.0,-5.0,-10.0,0.0,10.0,3.0,3.0,28.0,121.0,0.0
42.0,-11.0,0.0,-11.0,1.0,4.0,-1.0,-3.0,15.0,175.0,0.0
62.0,2.0,-17.0,-21.0,-21.0,-9.0,-22.0,-31.0,-18.0,166.0,0.0
60.0,24.0,-2.0,-24.0,-20.0,-17.0,-23.0,-32.0,-20.0,50.0,0.0
47.0,39.0,5.0,-19.0,-14.0,-18.0,-9.0,-13.0,11.0,59.0,0.0
38.0,27.0,4.0,0.0,-19.0,-12.0,-12.0,1.0,17.0,124.0,0.0
28.0,1.0,5.0,-7.0,-13.0,-10.0,-6.0,-2.0,1.0,48.0,0.0
43.0,5.0,12.0,14.0,-8.0,-6.0,7.0,11.0,7.0,26.0,0.0
43.0,4.0,2.0,31.0,-5.0,0.0,0.0,9.0,-10.0,53.0,0.0
-16.0,-7.0,-28.0,28.0,6.0,-1.0,-3.0,-4.0,-69.0,-101.0,0.0
-57.0,-14.0,-44.0,26.0,19.0,3.0,-7.0,-7.0,-98.0,-261.0,0.0
-55.0,12.0,-16.0,37.0,17.0,24.0,4.0,17.0,-50.0,-259.0,0.0
-48.0,19.0,10.0,44.0,34.0,33.0,17.0,45.0,15.0,-212.0,0.0
-32.0,17.0,12.0,45.0,48.0,40.0,13.0,50.0,22.0,-157.0,0.0
-15.0,11.0,12.0,44.0,51.0,25.0,2.0,33.0,-9.0,-127.0,0.0
-18.0,2.0,13.0,15.0,48.0,15.0,1.0,24.0,-16.0,-87.0,0.0
-31.0,-13.0,11.0,0.0,31.0,7.0,10.0,23.0,-9.0,-63.0,0.0
-31.0,-19.0,10.0,-1.0,23.0,-3.0,20.0,16.0,1.0,-48.0,0.0
-19.0,-24.0,2.0,-8.0,23.0,1.0,13.0,5.0,-12.0,-37.0,0.0
1.0,-19.0,-28.0,-8.0,24.0,1.0,4.0,6.0,-22.0,-24.0,0.0
22.0,-9.0,-41.0,-7.0,21.0,-1.0,-7.0,6.0,-32.0,-22.0,0.0
16.0,-12.0,-52.0,-11.0,12.0,-11.0,-14.0,2.0,-39.0,-16.0,0.0
9.0,-12.0,-53.0,-14.0,9.0,-16.0,-5.0,5.0,-27.0,-5.0,0.0
28.0,-4.0,-38.0,-20.0,-1.0,-18.0,-4.0,0.0,-9.0,9.0,0.0
29.0,-9.0,-33.0,-17.0,-3.0,-13.0,-8.0,0.0,-20.0,33.0,0.0
30.0,0.0,-23.0,-10.0,-7.0,-20.0,-7.0,4.0,-26.0,43.0,0.0
55.0,9.0,-21.0,-6.0,-8.0,-24.0,-11.0,9.0,-37.0,51.0,0.0
74.0,20.0,-26.0,-9.0,-8.0,-33.0,-20.0,6.0,-33.0,52.0,0.0
66.0,14.0,-30.0,-15.0,-6.0,-31.0,-22.0,13.0,-17.0,24.0,0.0
26.0,1.0,-23.0,-21.0,-8.0,-14.0,-16.0,17.0,-7.0,-21.0,0.0
2.0,-3.0,-7.0,-21.0,-2.0,-7.0,-16.0,13.0,-2.0,-20.0,0.0
13.0,-11.0,-17.0,-27.0,0.0,-9.0,-7.0,5.0,2.0,18.0,0.0
5.0,-16.0,-28.0,-31.0,-2.0,-9.0,-16.0,5.0,3.0,57.0,0.0
10.0,-13.0,-29.0,-23.0,0.0,-10.0,-16.0,16.0,-2.0,64.0,0.0
26.0,-2.0,-21.0,-5.0,3.0,-9.0,-7.0,26.0,-6.0,47.0,0.0
20.0,-7.0,-15.0,13.0,3.0,-2.0,4.0,27.0,-1.0,26.0,0.0
-17.0,-18.0,10.0,0.0,-1.0,5.0,3.0,28.0,-15.0,-8.0,0.0
-4.0,-10.0,27.0,-22.0,-3.0,-3.0,-1.0,7.0,-31.0,-32.0,0.0
11.0,-6.0,-1.0,-23.0,-1.0,-6.0,-6.0,-12.0,-35.0,-29.0,0.0
3.0,-9.0,9.0,-16.0,-6.0,2.0,-9.0,-17.0,-36.0,-22.0,0.0
-9.0,-1.0,13.0,-2.0,0.0,5.0,-3.0,-18.0,-41.0,-37.0,0.0
-24.0,2.0,-7.0,5.0,11.0,6.0,5.0,-22.0,-54.0,-69.0,0.0
-13.0,2.0,4.0,8.0,12.0,1.0,2.0,-17.0,-54.0,-56.0,0.0
-20.0,-9.0,-8.0,-5.0,5.0,-5.0,13.0,13.0,-17.0,4.0,0.0
-23.0,-27.0,-27.0,-16.0,7.0,-5.0,17.0,30.0,6.0,55.0,0.0
-22.0,-27.0,-26.0,-17.0,17.0,7.0,20.0,22.0,0.0,30.0,0.0
3.0,2.0,-33.0,-9.0,20.0,8.0,14.0,6.0,-17.0,0.0,0.0
10.0,21.0,-26.0,-4.0,22.0,12.0,5.0,-2.0,-40.0,-16.0,0.0
-26.0,-4.0,-25.0,6.0,25.0,16.0,11.0,8.0,-37.0,-43.0,0.0
-31.0,-18.0,-32.0,15.0,19.0,2.0,15.0,31.0,-7.0,-38.0,0.0
-11.0,-17.0,-39.0,16.0,3.0,-13.0,6.0,40.0,57.0,2.0,0.0
15.0,-10.0,-47.0,8.0,-12.0,-16.0,-3.0,38.0,94.0,40.0,0.0
21.0,7.0,-33.0,13.0,-1.0,-3.0,-14.0,18.0,49.0,40.0,0.0
9.0,5.0,-38.0,15.0,1.0,-1.0,-26.0,-6.0,17.0,73.0,0.0
0.0,-12.0,-36.0,17.0,0.0,-4.0,-14.0,-3.0,16.0,84.0,0.0
-4.0,-5.0,-27.0,24.0,-2.0,2.0,1.0,5.0,22.0,45.0,0.0
-7.0,5.0,-6.0,34.0,2.0,0.0,2.0,-1.0,6.0,35.0,0.0
-5.0,0.0,1.0,31.0,8.0,-7.0,-10.0,-10.0,-21.0,35.0,0.0
-14.0,-10.0,-5.0,25.0,0.0,0.0,-8.0,-19.0,-27.0,-11.0,0.0
-7.0,-18.0,-8.0,18.0,0.0,6.0,6.0,-9.0,-18.0,-60.0,0.0
-7.0,-22.0,-4.0,14.0,4.0,0.0,6.0,-1.0,-7.0,-64.0,0.0
-4.0,-12.0,28.0,12.0,3.0,3.0,1.0,1.0,-14.0,-64.0,0.0
-2.0,-7.0,30.0,-12.0,3.0,3.0,6.0,7.0,0.0,-47.0,0.0
-1.0,-5.0,16.0,0.0,-4.0,-13.0,-3.0,10.0,2.0,-14.0,0.0
-5.0,6.0,16.0,10.0,-7.0,-6.0,-1.0,19.0,2.0,0.0,0.0
-12.0,4.0,7.0,2.0,-14.0,-4.0,1.0,20.0,7.0,29.0,0.0
-16.0,5.0,21.0,4.0,-13.0,-1.0,-3.0,25.0,23.0,38.0,0.0
-15.0,12.0,36.0,1.0,-1.0,4.0,0.0,45.0,30.0,21.0,0.0
1.0,17.0,45.0,-2.0,8.0,9.0,10.0,49.0,31.0,-14.0,0.0
13.0,15.0,19.0,-7.0,10.0,6.0,14.0,38.0,25.0,-26.0,0.0
20.0,34.0,17.0,-2.0,4.0,9.0,16.0,19.0,10.0,9.0,0.0
14.0,38.0,27.0,6.0,3.0,-3.0,9.0,3.0,-21.0,58.0,0.0
-3.0,33.0,20.0,9.0,6.0,-4.0,15.0,4.0,-46.0,26.0,0.0
-36.0,15.0,5.0,-1.0,11.0,25.0,29.0,17.0,-41.0,0.0,0.0
-32.0,14.0,28.0,-15.0,11.0,28.0,21.0,11.0,-37.0,0.0,0.0
-8.0,26.0,38.0,-4.0,21.0,21.0,9.0,16.0,-25.0,18.0,0.0
-7.0,21.0,32.0,-16.0,13.0,17.0,-5.0,11.0,-9.0,98.0,0.0
-19.0,-11.0,-3.0,-32.0,-13.0,-4.0,-35.0,11.0,30.0,158.0,0.0
-54.0,-25.0,-10.0,-32.0,-24.0,-12.0,-39.0,3.0,23.0,57.0,0.0
-69.0,-10.0,18.0,-26.0,-5.0,-1.0,-12.0,-15.0,-23.0,-69.0,0.0
-79.0,-13.0,17.0,-19.0,10.0,0.0,0.0,-14.0,-26.0,-45.0,0.0
-75.0,-29.0,6.0,-15.0,6.0,7.0,8.0,7.0,-20.0,12.0,0.0
-62.0,-20.0,22.0,0.0,21.0,19.0,7.0,15.0,-35.0,-2.0,0.0
-56.0,-12.0,28.0,8.0,31.0,20.0,3.0,15.0,-53.0,-41.0,0.0
-46.0,-17.0,25.0,-3.0,25.0,5.0,-5.0,8.0,-53.0,-49.0,0.0
-43.0,-12.0,16.0,-23.0,17.0,3.0,-2.0,13.0,-40.0,-36.0,0.0
-40.0,-6.0,20.0,-25.0,2.0,-6.0,-10.0,15.0,-32.0,-25.0,0.0
-33.0,6.0,-3.0,-19.0,-17.0,-24.0,-25.0,17.0,19.0,-25.0,0.0
-5.0,35.0,1.0,-7.0,-18.0,-27.0,-34.0,24.0,71.0,-31.0,0.0
-2.0,53.0,22.0,10.0,-6.0,-23.0,-31.0,14.0,38.0,-46.0,0.0
-14.0,36.0,15.0,14.0,0.0,-20.0,-14.0,7.0,6.0,-37.0,0.0
-26.0,11.0,-4.0,-5.0,-9.0,-16.0,6.0,31.0,37.0,0.0,0.0
-20.0,15.0,-7.0,-2.0,1.0,-9.0,12.0,26.0,55.0,40.0,0.0
0.0,36.0,11.0,2.0,-4.0,-4.0,0.0,13.0,28.0,23.0,0.0
10.0,34.0,21.0,10.0,-22.0,-2.0,-11.0,1.0,-17.0,-23.0,0.0
0.0,22.0,-3.0,-2.0,-34.0,-1.0,-14.0,-8.0,-32.0,-5.0,0.0
0.0,13.0,-24.0,-22.0,-49.0,-6.0,-24.0,-5.0,-4.0,69.0,0.0
12.0,17.0,-12.0,-14.0,-50.0,-10.0,-21.0,0.0,21.0,133.0,0.0
22.0,7.0,-30.0,-18.0,-42.0,-1.0,-14.0,13.0,48.0,130.0,0.0
25.0,8.0,-32.0,-9.0,-29.0,2.0,-8.0,13.0,61.0,111.0,0.0
33.0,22.0,-21.0,1.0,-17.0,-8.0,-12.0,0.0,54.0,117.0,0.0
22.0,10.0,-25.0,-5.0,-20.0,-19.0,-20.0,-5.0,41.0,141.0,0.0
1.0,15.0,-12.0,-6.0,-14.0,-25.0,-18.0,-10.0,38.0,97.0,0.0
2.0,22.0,2.0,7.0,-8.0,-12.0,-16.0,6.0,51.0,63.0,0.0
-2.0,0.0,-12.0,13.0,-18.0,-6.0,3.0,17.0,61.0,62.0,0.0
-26.0,-28.0,-24.0,19.0,-17.0,-3.0,20.0,18.0,58.0,18.0,0.0
-42.0,-28.0,-21.0,20.0,-6.0,1.0,19.0,11.0,27.0,-32.0,0.0
-17.0,-1.0,-16.0,13.0,-15.0,8.0,15.0,6.0,11.0,-31.0,0.0
7.0,13.0,-1.0,13.0,-20.0,10.0,14.0,10.0,0.0,-10.0,0.0
2.0,10.0,-1.0,16.0,-14.0,6.0,6.0,8.0,-3.0,-15.0,0.0
-19.0,-6.0,7.0,27.0,-8.0,16.0,3.0,5.0,-15.0,-60.0,0.0
-14.0,-12.0,-1.0,35.0,-10.0,30.0,12.0,4.0,-32.0,-80.0,0.0
-6.0,-3.0,12.0,36.0,-6.0,25.0,11.0,7.0,-28.0,-72.0,0.0
-9.0,8.0,26.0,30.0,6.0,20.0,-2.0,14.0,-27.0,-65.0,0.0
-22.0,0.0,25.0,25.0,18.0,22.0,0.0,21.0,-8.0,-33.0,0.0
-31.0,8.0,24.0,17.0,19.0,13.0,-5.0,21.0,17.0,0.0,0.0
0.0,9.0,1.0,11.0,3.0,6.0,-20.0,17.0,14.0,0.0,0.0
18.0,19.0,7.0,22.0,-13.0,0.0,-24.0,0.0,5.0,-4.0,0.0
24.0,18.0,18.0,19.0,-10.0,-8.0,-21.0,-8.0,-2.0,11.0,0.0
27.0,12.0,28.0,23.0,-4.0,-19.0,-20.0,-11.0,-8.0,28.0,0.0
32.0,10.0,25.0,21.0,4.0,-23.0,-10.0,-4.0,-12.0,43.0,0.0
30.0,13.0,27.0,22.0,19.0,-16.0,-6.0,-7.0,-16.0,15.0,0.0
0.0,4.0,29.0,36.0,22.0,-16.0,0.0,-9.0,-30.0,-21.0,0.0
-13.0,-1.0,13.0,37.0,8.0,-15.0,-2.0,-18.0,-41.0,-30.0,0.0
-5.0,-3.0,5.0,30.0,0.0,-12.0,-1.0,-32.0,-41.0,-38.0,0.0
8.0,10.0,0.0,27.0,0.0,1.0,4.0,-25.0,-40.0,-39.0,0.0
30.0,12.0,10.0,6.0,-1.0,8.0,3.0,-14.0,-31.0,-16.0,0.0
25.0,5.0,14.0,-19.0,-3.0,8.0,12.0,-10.0,-20.0,-13.0,0.0
9.0,12.0,16.0,-9.0,-2.0,1.0,9.0,-4.0,-15.0,-14.0,0.0
24.0,31.0,24.0,0.0,-6.0,-1.0,3.0,-1.0,-12.0,10.0,0.0
83.0,52.0,28.0,9.0,4.0,-3.0,0.0,-19.0,-15.0,97.0,0.0
150.0,58.0,10.0,16.0,-2.0,-9.0,-18.0,-27.0,1.0,207.0,0.0
189.0,36.0,-20.0,-22.0,-30.0,-28.0,-22.0,-19.0,80.0,352.0,0.0
187.0,31.0,-29.0,-50.0,-42.0,-39.0,-33.0,-20.0,125.0,450.0,0.0
117.0,25.0,-29.0,-50.0,-37.0,-43.0,-49.0,-47.0,36.0,257.0,0.0
41.0,14.0,-17.0,-33.0,-26.0,-28.0,-53.0,-56.0,-2.0,23.0,0.0
-55.0,0.0,18.0,1.0,6.0,0.0,-24.0,-25.0,-6.0,-205.0,0.0
-181.0,-32.0,34.0,59.0,41.0,43.0,15.0,1.0,-38.0,-420.0,0.0
-205.0,-53.0,23.0,74.0,55.0,53.0,29.0,21.0,-32.0,-396.0,0.0
-155.0,-56.0,15.0,52.0,35.0,33.0,30.0,22.0,-18.0,-264.0,0.0
-123.0,-60.0,9.0,31.0,16.0,16.0,27.0,21.0,13.0,-145.0,0.0
-95.0,-58.0,7.0,8.0,16.0,13.0,20.0,11.0,20.0,-68.0,0.0
-55.0,-53.0,13.0,-3.0,4.0,10.0,6.0,2.0,22.0,-30.0,0.0
-30.0,-33.0,6.0,8.0,1.0,15.0,-2.0,7.0,15.0,-40.0,0.0
-41.0,-20.0,16.0,26.0,11.0,12.0,16.0,8.0,5.0,-113.0,0.0
-58.0,-19.0,17.0,35.0,22.0,13.0,40.0,20.0,0.0,-167.0,0.0
-66.0,-12.0,24.0,40.0,9.0,17.0,37.0,16.0,-5.0,-143.0,0.0
-37.0,-10.0,20.0,35.0,-5.0,10.0,11.0,-5.0,2.0,-75.0,0.0
-1.0,-15.0,7.0,11.0,-21.0,-3.0,-5.0,-23.0,23.0,-22.0,0.0
29.0,-3.0,0.0,-5.0,-20.0,-7.0,-3.0,-19.0,31.0,28.0,0.0
51.0,2.0,4.0,-35.0,-14.0,-5.0,8.0,-14.0,50.0,82.0,0.0
33.0,-5.0,-18.0,-36.0,-16.0,-13.0,0.0,-26.0,29.0,71.0,0.0
5.0,-12.0,-7.0,-17.0,-13.0,-9.0,-1.0,-23.0,-1.0,-3.0,0.0
1.0,2.0,3.0,-8.0,-1.0,-3.0,-3.0,-19.0,-18.0,-61.0,0.0
-9.0,15.0,12.0,3.0,4.0,-1.0,0.0,-11.0,-33.0,-67.0,0.0
-1.0,7.0,14.0,1.0,-1.0,-2.0,10.0,-7.0,-10.0,-36.0,0.0
25.0,6.0,5.0,-4.0,-5.0,-12.0,3.0,-16.0,-3.0,-8.0,0.0
66.0,18.0,-8.0,-5.0,-15.0,-16.0,-15.0,-32.0,0.0,39.0,0.0
78.0,18.0,-21.0,-1.0,-23.0,-20.0,-21.0,-38.0,-2.0,69.0,0.0
77.0,17.0,-14.0,-17.0,-21.0,-19.0,-20.0,-32.0,-7.0,62.0,0.0
65.0,19.0,2.0,-15.0,-14.0,-5.0,-11.0,-33.0,-12.0,41.0,0.0
25.0,6.0,5.0,-10.0,3.0,6.0,-1.0,-24.0,-14.0,-8.0,0.0
-28.0,-29.0,-2.0,-11.0,1.0,13.0,12.0,-5.0,0.0,-31.0,0.0
-60.0,-46.0,4.0,-7.0,7.0,10.0,19.0,0.0,-1.0,-43.0,0.0
-55.0,-36.0,0.0,2.0,11.0,11.0,11.0,7.0,4.0,-32.0,0.0
-25.0,-27.0,-16.0,-2.0,9.0,7.0,1.0,15.0,7.0,-14.0,0.0
16.0,-7.0,0.0,-5.0,6.0,8.0,0.0,13.0,20.0,4.0,0.0
52.0,14.0,4.0,-7.0,1.0,0.0,8.0,9.0,31.0,27.0,0.0
56.0,15.0,4.0,-3.0,1.0,-5.0,12.0,12.0,19.0,28.0,0.0
37.0,10.0,-14.0,3.0,0.0,2.0,10.0,14.0,10.0,12.0,0.0
34.0,8.0,-24.0,-1.0,-4.0,-1.0,13.0,6.0,-4.0,13.0,0.0
39.0,7.0,-12.0,-9.0,-18.0,-26.0,2.0,-12.0,-22.0,24.0,0.0
27.0,-3.0,0.0,-16.0,-20.0,-47.0,-8.0,-24.0,-35.0,-28.0,0.0
28.0,-6.0,-5.0,-24.0,-11.0,-41.0,-10.0,-26.0,-22.0,5.0,0.0
32.0,-1.0,-17.0,-27.0,-13.0,-28.0,-14.0,-17.0,-7.0,93.0,0.0
23.0,13.0,-10.0,-15.0,-12.0,-28.0,-14.0,-21.0,-5.0,130.0,0.0
10.0,20.0,-5.0,-9.0,-13.0,-15.0,2.0,-4.0,-1.0,128.0,0.0
-13.0,14.0,-14.0,2.0,-8.0,-5.0,13.0,22.0,-2.0,79.0,0.0
-37.0,-14.0,-8.0,11.0,3.0,12.0,18.0,33.0,4.0,-18.0,0.0
-70.0,-25.0,3.0,16.0,18.0,29.0,25.0,42.0,3.0,-89.0,0.0
-82.0,-29.0,-21.0,16.0,22.0,19.0,37.0,40.0,2.0,-102.0,0.0
-60.0,-27.0,-8.0,18.0,15.0,18.0,30.0,34.0,10.0,-96.0,0.0
-29.0,-12.0,16.0,9.0,17.0,13.0,28.0,34.0,4.0,-93.0,0.0
-22.0,-1.0,20.0,-12.0,24.0,9.0,13.0,34.0,0.0,-107.0,0.0
-20.0,-3.0,12.0,-5.0,14.0,-7.0,3.0,19.0,-10.0,-97.0,0.0
0.0,-2.0,8.0,-3.0,6.0,-18.0,-3.0,1.0,-19.0,-58.0,0.0
26.0,3.0,7.0,-10.0,0.0,-14.0,-2.0,0.0,-6.0,-14.0,0.0
57.0,7.0,8.0,-10.0,-13.0,-26.0,0.0,7.0,16.0,22.0,0.0
62.0,17.0,-3.0,-6.0,-18.0,-27.0,-6.0,-4.0,-2.0,45.0,0.0
42.0,17.0,-8.0,-3.0,-17.0,-24.0,-14.0,-25.0,-46.0,71.0,0.0
17.0,0.0,-7.0,-16.0,-16.0,-21.0,-2.0,-33.0,-78.0,52.0,0.0
-24.0,-18.0,0.0,-3.0,1.0,-7.0,26.0,-14.0,-101.0,-86.0,0.0
-42.0,-7.0,18.0,13.0,9.0,7.0,29.0,-2.0,-99.0,-174.0,0.0
-43.0,0.0,15.0,21.0,13.0,6.0,21.0,-10.0,-95.0,-179.0,0.0
-57.0,-4.0,16.0,19.0,14.0,11.0,17.0,-14.0,-63.0,-141.0,0.0
-60.0,-28.0,4.0,7.0,9.0,19.0,9.0,4.0,4.0,-46.0,0.0
-35.0,-20.0,-14.0,-22.0,5.0,6.0,-5.0,9.0,32.0,40.0,0.0
-13.0,-6.0,-5.0,-34.0,0.0,-21.0,-18.0,7.0,80.0,84.0,0.0
17.0,-9.0,-2.0,-39.0,-20.0,-38.0,-39.0,29.0,142.0,190.0,0.0
29.0,2.0,-20.0,-35.0,-8.0,-35.0,-33.0,27.0,123.0,181.0,0.0
-2.0,-5.0,-10.0,-23.0,12.0,-17.0,-15.0,10.0,62.0,58.0,0.0
-9.0,-7.0,6.0,-14.0,16.0,-13.0,-7.0,-9.0,16.0,-2.0,0.0
