channel0,channel1,channel2,channel3,channel4,channel5,channel6,channel7,channel8,channel9,true_locs
0.0,14.0,36.0,-30.0,-25.0,-19.0,26.0,22.0,34.0,2.0,0.0
16.0,22.0,38.0,-9.0,-19.0,-14.0,31.0,29.0,32.0,17.0,0.0
24.0,13.0,25.0,-4.0,-20.0,-29.0,-3.0,23.0,34.0,23.0,0.0
25.0,5.0,20.0,-7.0,-22.0,-22.0,-85.0,10.0,20.0,9.0,0.0
25.0,9.0,30.0,-2.0,-18.0,-10.0,-193.0,14.0,4.0,-8.0,0.0
13.0,2.0,36.0,2.0,-4.0,8.0,-261.0,23.0,-10.0,-20.0,0.0
7.0,-1.0,5.0,-15.0,3.0,34.0,-226.0,16.0,-10.0,-33.0,0.0
5.0,-6.0,-71.0,-18.0,-1.0,39.0,-172.0,8.0,-15.0,-32.0,0.0
-2.0,-7.0,-31.0,-3.0,4.0,37.0,-167.0,2.0,-31.0,-27.0,0.0
-1.0,-11.0,33.0,13.0,9.0,25.0,-131.0,13.0,-21.0,-23.0,0.0
-6.0,-8.0,40.0,25.0,0.0,4.0,-68.0,18.0,4.0,-19.0,0.0
0.0,4.0,32.0,35.0,-9.0,7.0,2.0,19.0,8.0,-5.0,0.0
2.0,1.0,18.0,27.0,-8.0,12.0,50.0,9.0,2.0,-3.0,0.0
-10.0,-15.0,10.0,5.0,-22.0,-18.0,34.0,3.0,37.0,-9.0,0.0
3.0,-3.0,14.0,-1.0,-32.0,-41.0,40.0,1.0,36.0,2.0,0.0
9.0,14.0,-40.0,0.0,-22.0,-43.0,52.0,-7.0,17.0,-1.0,0.0
4.0,5.0,-64.0,0.0,-4.0,-17.0,63.0,-10.0,-2.0,0.0,0.0
-15.0,-2.0,9.0,3.0,13.0,6.0,45.0,1.0,2.0,-4.0,0.0
-8.0,-10.0,14.0,11.0,11.0,0.0,-8.0,1.0,-5.0,-19.0,0.0
7.0,-8.0,18.0,5.0,-1.0,-5.0,-78.0,-5.0,-18.0,-8.0,0.0
9.0,1.0,12.0,-8.0,-11.0,2.0,-167.0,-22.0,-21.0,0.0,0.0
9.0,12.0,13.0,-7.0,-1.0,-3.0,-246.0,-34.0,-7.0,-12.0,0.0
15.0,30.0,22.0,-7.0,2.0,-11.0,-247.0,-28.0,1.0,-15.0,0.0
10.0,18.0,12.0,-18.0,2.0,7.0,-208.0,-25.0,10.0,-1.0,0.0
-11.0,-2.0,-2.0,-38.0,-7.0,16.0,-155.0,-12.0,-4.0,-6.0,0.0
-15.0,0.0,14.0,-32.0,-25.0,18.0,-104.0,1.0,1.0,-14.0,0.0
-15.0,0.0,26.0,-8.0,-15.0,6.0,-55.0,6.0,12.0,-8.0,0.0
-13.0,3.0,25.0,-2.0,-7.0,7.0,5.0,12.0,-1.0,9.0,0.0
-16.0,3.0,22.0,-17.0,-20.0,5.0,67.0,13.0,15.0,24.0,0.0
-13.0,1.0,21.0,-33.0,-23.0,-5.0,125.0,2.0,31.0,9.0,0.0
-4.0,-8.0,20.0,-42.0,-14.0,2.0,126.0,-3.0,18.0,4.0,0.0
-5.0,2.0,15.0,-35.0,-3.0,0.0,114.0,2.0,18.0,1.0,0.0
-9.0,7.0,6.0,-25.0,-16.0,-2.0,105.0,9.0,25.0,-5.0,0.0
-17.0,11.0,8.0,-24.0,-28.0,-8.0,112.0,11.0,40.0,-16.0,0.0
-14.0,9.0,12.0,-15.0,-24.0,-7.0,121.0,6.0,24.0,-15.0,0.0
-14.0,3.0,7.0,-19.0,-14.0,1.0,101.0,3.0,23.0,-11.0,0.0
-18.0,0.0,13.0,-2.0,-5.0,-10.0,32.0,-7.0,-3.0,-19.0,0.0
-16.0,-2.0,6.0,10.0,6.0,-16.0,-93.0,-20.0,-31.0,-23.0,0.0
-17.0,-7.0,6.0,6.0,13.0,7.0,-171.0,-28.0,-53.0,-21.0,0.0
-30.0,-20.0,-3.0,2.0,17.0,34.0,-171.0,-9.0,-36.0,-22.0,0.0
-34.0,-9.0,7.0,15.0,18.0,44.0,-133.0,-7.0,-14.0,-1.0,0.0
-14.0,5.0,35.0,28.0,7.0,57.0,-76.0,15.0,3.0,16.0,0.0
23.0,29.0,47.0,35.0,2.0,39.0,-10.0,32.0,24.0,29.0,0.0
7.0,29.0,38.0,25.0,-1.0,22.0,47.0,35.0,17.0,19.0,0.0
0.0,14.0,23.0,18.0,2.0,29.0,75.0,28.0,0.0,19.0,0.0
11.0,7.0,8.0,3.0,-7.0,26.0,99.0,20.0,-6.0,18.0,0.0
23.0,7.0,-13.0,-4.0,-15.0,27.0,98.0,23.0,3.0,15.0,0.0
26.0,8.0,-97.0,-2.0,-22.0,15.0,81.0,10.0,1.0,15.0,0.0
29.0,20.0,-156.0,1.0,-26.0,-8.0,80.0,3.0,3.0,18.0,0.0
32.0,14.0,-99.0,-1.0,-28.0,-23.0,87.0,13.0,5.0,25.0,0.0
30.0,12.0,-81.0,-7.0,-8.0,-25.0,84.0,8.0,-10.0,26.0,0.0
22.0,8.0,1.0,-12.0,-12.0,-30.0,66.0,-3.0,-14.0,22.0,0.0
32.0,10.0,40.0,-8.0,-14.0,-24.0,39.0,-19.0,-8.0,20.0,0.0
39.0,12.0,53.0,-13.0,-8.0,-10.0,-48.0,-24.0,-7.0,22.0,0.0
39.0,4.0,51.0,-8.0,1.0,3.0,-158.0,-11.0,-6.0,14.0,0.0
15.0,0.0,32.0,8.0,12.0,18.0,-213.0,-2.0,-2.0,8.0,0.0
2.0,-3.0,30.0,25.0,28.0,25.0,-169.0,5.0,7.0,11.0,0.0
-3.0,0.0,27.0,24.0,35.0,31.0,-93.0,0.0,4.0,8.0,0.0
2.0,-1.0,24.0,29.0,30.0,42.0,-62.0,-3.0,-5.0,-1.0,0.0
14.0,-2.0,33.0,32.0,11.0,34.0,-32.0,-16.0,-2.0,0.0,0.0
36.0,11.0,37.0,15.0,0.0,20.0,15.0,-21.0,-2.0,12.0,0.0
46.0,5.0,33.0,-3.0,-9.0,4.0,45.0,-20.0,-18.0,11.0,0.0
33.0,-4.0,31.0,3.0,-9.0,-2.0,72.0,-6.0,-25.0,0.0,0.0
16.0,-8.0,18.0,4.0,4.0,-4.0,70.0,2.0,-24.0,-5.0,0.0
12.0,-12.0,12.0,0.0,11.0,-9.0,50.0,-6.0,-17.0,-20.0,0.0
0.0,-22.0,-23.0,-2.0,9.0,-8.0,74.0,-4.0,-25.0,-21.0,0.0
-2.0,-20.0,-33.0,0.0,14.0,-6.0,97.0,12.0,-33.0,-9.0,0.0
-11.0,-17.0,20.0,0.0,14.0,-16.0,116.0,16.0,-19.0,9.0,0.0
-10.0,-24.0,6.0,-1.0,-3.0,-17.0,112.0,15.0,11.0,17.0,0.0
-5.0,-17.0,-31.0,3.0,-2.0,1.0,36.0,25.0,3.0,-5.0,0.0
-1.0,-25.0,-2.0,17.0,16.0,17.0,-85.0,24.0,-19.0,-9.0,0.0
-7.0,-22.0,11.0,25.0,39.0,32.0,-171.0,17.0,-31.0,-13.0,0.0
-15.0,-13.0,21.0,29.0,60.0,14.0,-181.0,11.0,-49.0,-24.0,0.0
-35.0,-18.0,-43.0,35.0,87.0,-31.0,-150.0,-2.0,-62.0,-41.0,0.0
-61.0,-31.0,-101.0,31.0,84.0,-40.0,-135.0,-33.0,-16.0,-41.0,0.0
-69.0,-39.0,-28.0,23.0,60.0,-15.0,-113.0,-39.0,-11.0,-34.0,0.0
-70.0,-41.0,-3.0,12.0,34.0,13.0,-52.0,-32.0,-39.0,-39.0,0.0
-47.0,-11.0,8.0,18.0,17.0,55.0,33.0,-10.0,-19.0,-17.0,0.0
18.0,35.0,63.0,34.0,-8.0,53.0,105.0,28.0,18.0,38.0,0.0
55.0,42.0,80.0,22.0,-33.0,-2.0,134.0,50.0,36.0,57.0,0.0
36.0,33.0,53.0,17.0,-15.0,-12.0,148.0,54.0,32.0,43.0,0.0
29.0,34.0,41.0,37.0,9.0,-18.0,141.0,29.0,2.0,24.0,0.0
32.0,41.0,25.0,59.0,22.0,-43.0,132.0,14.0,-13.0,10.0,0.0
32.0,27.0,-73.0,62.0,46.0,-32.0,94.0,8.0,-27.0,-1.0,0.0
11.0,1.0,-41.0,41.0,53.0,26.0,63.0,6.0,-37.0,-20.0,0.0
-16.0,-7.0,18.0,22.0,51.0,63.0,27.0,6.0,-49.0,-40.0,0.0
-20.0,-3.0,23.0,14.0,27.0,79.0,-55.0,-1.0,-49.0,-47.0,0.0
3.0,21.0,-15.0,-4.0,-26.0,3.0,-139.0,-8.0,-36.0,-28.0,0.0
2.0,18.0,-108.0,-19.0,-84.0,-80.0,-195.0,-5.0,27.0,-4.0,0.0
-17.0,-17.0,-48.0,-19.0,-73.0,-61.0,-159.0,-10.0,37.0,-8.0,0.0
-25.0,-29.0,20.0,3.0,0.0,18.0,-105.0,-10.0,5.0,-14.0,0.0
-9.0,-14.0,30.0,23.0,34.0,89.0,-62.0,10.0,-6.0,-7.0,0.0
28.0,12.0,44.0,30.0,43.0,106.0,-35.0,23.0,13.0,10.0,0.0
42.0,26.0,64.0,32.0,52.0,85.0,38.0,24.0,39.0,19.0,0.0
22.0,20.0,41.0,0.0,70.0,63.0,93.0,15.0,23.0,15.0,0.0
5.0,10.0,24.0,-46.0,8.0,4.0,111.0,7.0,5.0,17.0,0.0
-5.0,0.0,27.0,-52.0,-60.0,-54.0,101.0,-2.0,3.0,10.0,0.0
-15.0,0.0,16.0,-33.0,-59.0,-75.0,68.0,-4.0,-6.0,-4.0,0.0
-28.0,-3.0,9.0,-23.0,-55.0,-83.0,68.0,6.0,-18.0,-13.0,0.0
-29.0,-21.0,-10.0,-23.0,-50.0,-89.0,46.0,6.0,-24.0,-13.0,0.0
-32.0,-25.0,-49.0,-31.0,-42.0,-52.0,25.0,-2.0,-17.0,-27.0,1.0
-39.0,-20.0,-17.0,-36.0,-2.0,29.0,39.0,5.0,-5.0,-39.0,1.0
-41.0,-14.0,-7.0,-28.0,41.0,107.0,2.0,14.0,6.0,-38.0,1.0
-17.0,1.0,-56.0,0.0,44.0,107.0,-83.0,29.0,30.0,-3.0,1.0
19.0,29.0,-50.0,21.0,1.0,16.0,-168.0,55.0,41.0,34.0,1.0
29.0,30.0,68.0,28.0,-11.0,-42.0,-202.0,52.0,33.0,29.0,1.0
14.0,12.0,64.0,2.0,-25.0,-69.0,-181.0,16.0,12.0,8.0,1.0
3.0,0.0,34.0,-14.0,-84.0,-103.0,-129.0,-11.0,-2.0,-10.0,1.0
2.0,-3.0,12.0,-3.0,-87.0,-91.0,-103.0,-16.0,-7.0,-8.0,1.0
10.0,0.0,-63.0,6.0,-54.0,-46.0,-75.0,0.0,1.0,5.0,1.0
0.0,-7.0,-111.0,11.0,-16.0,-22.0,-18.0,-1.0,12.0,4.0,1.0
5.0,0.0,-52.0,0.0,5.0,-13.0,15.0,0.0,12.0,11.0,1.0
5.0,16.0,-107.0,-11.0,3.0,-7.0,40.0,4.0,27.0,21.0,1.0
6.0,16.0,-84.0,-11.0,0.0,-19.0,41.0,18.0,28.0,23.0,1.0
15.0,22.0,20.0,-15.0,-15.0,-27.0,45.0,28.0,43.0,30.0,1.0
14.0,21.0,-1.0,-3.0,-14.0,-14.0,39.0,33.0,47.0,31.0,1.0
2.0,-11.0,-99.0,-16.0,-8.0,5.0,23.0,36.0,24.0,11.0,1.0
1.0,-24.0,-22.0,-25.0,10.0,47.0,11.0,27.0,8.0,-21.0,1.0
13.0,-16.0,34.0,-5.0,22.0,47.0,12.0,23.0,17.0,-11.0,0.0
1.0,1.0,22.0,12.0,22.0,20.0,-46.0,-6.0,7.0,0.0,0.0
-19.0,4.0,27.0,18.0,21.0,19.0,-147.0,-37.0,-6.0,5.0,0.0
-15.0,0.0,46.0,23.0,28.0,19.0,-214.0,-40.0,-20.0,11.0,0.0
-10.0,-6.0,43.0,28.0,32.0,30.0,-204.0,-46.0,-31.0,0.0,0.0
-12.0,-6.0,39.0,27.0,40.0,49.0,-146.0,-39.0,-22.0,-1.0,0.0
-13.0,5.0,36.0,10.0,23.0,55.0,-88.0,-14.0,2.0,17.0,0.0
0.0,12.0,31.0,7.0,-1.0,33.0,-54.0,1.0,24.0,34.0,0.0
10.0,7.0,7.0,0.0,-5.0,23.0,-19.0,-6.0,19.0,31.0,0.0
16.0,-3.0,-20.0,0.0,-4.0,9.0,33.0,-15.0,20.0,21.0,0.0
5.0,1.0,28.0,4.0,-1.0,-22.0,72.0,-17.0,15.0,26.0,0.0
6.0,19.0,39.0,6.0,2.0,-37.0,69.0,-26.0,11.0,15.0,0.0
12.0,19.0,33.0,2.0,7.0,-35.0,55.0,-25.0,-1.0,19.0,0.0
7.0,4.0,30.0,4.0,18.0,-31.0,57.0,-13.0,-1.0,29.0,0.0
1.0,3.0,16.0,0.0,11.0,-29.0,52.0,-9.0,6.0,36.0,0.0
-1.0,-8.0,4.0,0.0,12.0,-22.0,68.0,6.0,-4.0,18.0,0.0
7.0,-16.0,1.0,-1.0,2.0,-14.0,85.0,17.0,-13.0,5.0,0.0
24.0,-15.0,8.0,-1.0,0.0,-17.0,43.0,12.0,-4.0,19.0,0.0
17.0,-10.0,15.0,9.0,13.0,-6.0,-59.0,12.0,10.0,21.0,0.0
-2.0,-9.0,13.0,10.0,34.0,7.0,-165.0,11.0,9.0,10.0,0.0
-17.0,-21.0,10.0,18.0,36.0,18.0,-210.0,-5.0,10.0,10.0,0.0
-30.0,-19.0,12.0,28.0,36.0,33.0,-159.0,-8.0,0.0,11.0,0.0
-38.0,-8.0,8.0,31.0,42.0,31.0,-75.0,-16.0,-1.0,0.0,0.0
-43.0,0.0,10.0,32.0,39.0,24.0,-38.0,-20.0,-19.0,0.0,0.0
-31.0,-17.0,9.0,25.0,35.0,22.0,-5.0,-25.0,-32.0,6.0,0.0
-12.0,-11.0,4.0,18.0,29.0,23.0,39.0,-31.0,-39.0,20.0,0.0
-16.0,2.0,0.0,19.0,18.0,22.0,80.0,-18.0,-34.0,25.0,0.0
-12.0,4.0,-23.0,20.0,11.0,13.0,120.0,-10.0,-18.0,22.0,0.0
-1.0,-8.0,-129.0,17.0,5.0,5.0,135.0,-3.0,-13.0,25.0,0.0
-12.0,-2.0,-123.0,15.0,2.0,-10.0,136.0,1.0,-30.0,24.0,0.0
-20.0,-4.0,-3.0,13.0,0.0,-18.0,148.0,-9.0,-48.0,18.0,0.0
-10.0,-2.0,22.0,9.0,-6.0,-26.0,141.0,-11.0,-34.0,21.0,0.0
-17.0,7.0,20.0,-4.0,-15.0,-39.0,123.0,-7.0,-18.0,2.0,0.0
-9.0,11.0,16.0,-3.0,-15.0,-42.0,102.0,-1.0,-11.0,-9.0,0.0
-6.0,12.0,1.0,-11.0,-6.0,-30.0,53.0,5.0,-8.0,0.0,0.0
-14.0,21.0,0.0,-9.0,2.0,-18.0,-38.0,17.0,-5.0,16.0,0.0
-1.0,11.0,16.0,6.0,15.0,-1.0,-104.0,29.0,-7.0,15.0,0.0
13.0,4.0,29.0,14.0,20.0,11.0,-109.0,34.0,-24.0,6.0,0.0
13.0,1.0,25.0,23.0,30.0,27.0,-64.0,28.0,-28.0,-13.0,0.0
9.0,-6.0,17.0,13.0,31.0,40.0,-7.0,21.0,-42.0,-19.0,0.0
-8.0,-13.0,9.0,-8.0,21.0,35.0,45.0,25.0,-20.0,-10.0,0.0
-21.0,-12.0,7.0,-17.0,2.0,25.0,90.0,25.0,12.0,-2.0,0.0
-16.0,-15.0,13.0,2.0,12.0,21.0,132.0,17.0,-1.0,1.0,0.0
-3.0,-23.0,11.0,7.0,12.0,6.0,141.0,12.0,-13.0,-1.0,0.0
-5.0,-26.0,0.0,14.0,-3.0,-17.0,134.0,-2.0,-11.0,-17.0,0.0
-3.0,-29.0,-1.0,-4.0,-19.0,-16.0,127.0,-6.0,-12.0,-19.0,0.0
-7.0,-17.0,-1.0,-19.0,-13.0,-22.0,110.0,-5.0,-20.0,-13.0,0.0
-3.0,-9.0,11.0,-14.0,-16.0,-39.0,97.0,-15.0,-10.0,-16.0,0.0
19.0,3.0,8.0,-10.0,-11.0,-33.0,98.0,-13.0,-2.0,-6.0,0.0
27.0,9.0,-32.0,-7.0,-2.0,-16.0,99.0,-13.0,-3.0,-1.0,0.0
12.0,10.0,-103.0,-11.0,0.0,0.0,71.0,-14.0,-2.0,-7.0,0.0
2.0,5.0,-29.0,-17.0,0.0,-6.0,-27.0,-10.0,24.0,6.0,0.0
-23.0,6.0,21.0,-19.0,3.0,-2.0,-121.0,-7.0,51.0,4.0,0.0
-31.0,0.0,22.0,-6.0,8.0,2.0,-188.0,-9.0,21.0,-14.0,0.0
-26.0,-5.0,33.0,-1.0,18.0,15.0,-163.0,-20.0,7.0,-23.0,0.0
-15.0,5.0,18.0,-1.0,16.0,43.0,-130.0,-30.0,-6.0,-11.0,0.0
-5.0,9.0,1.0,0.0,14.0,34.0,-102.0,-45.0,-12.0,-6.0,0.0
8.0,10.0,18.0,6.0,30.0,19.0,-60.0,-56.0,-9.0,-11.0,0.0
16.0,8.0,29.0,10.0,31.0,-17.0,4.0,-55.0,-7.0,-4.0,0.0
2.0,2.0,18.0,1.0,23.0,-29.0,67.0,-50.0,1.0,-8.0,0.0
-20.0,-8.0,1.0,-15.0,14.0,-9.0,106.0,-29.0,0.0,-11.0,0.0
-14.0,-12.0,-3.0,-31.0,23.0,-1.0,131.0,-20.0,3.0,-16.0,0.0
5.0,3.0,0.0,-27.0,18.0,15.0,136.0,-16.0,0.0,-11.0,0.0
20.0,11.0,8.0,-17.0,25.0,16.0,121.0,-8.0,9.0,-5.0,0.0
14.0,1.0,14.0,-12.0,25.0,-23.0,105.0,-19.0,4.0,-7.0,0.0
-1.0,-11.0,-1.0,-23.0,19.0,-37.0,113.0,-43.0,-26.0,-30.0,0.0
-4.0,-23.0,-18.0,-33.0,17.0,-1.0,105.0,-53.0,-34.0,-49.0,0.0
-5.0,-9.0,-33.0,-41.0,17.0,72.0,53.0,-34.0,-24.0,-40.0,0.0
18.0,18.0,4.0,-26.0,21.0,115.0,-42.0,-2.0,11.0,1.0,0.0
57.0,52.0,46.0,0.0,18.0,78.0,-107.0,20.0,55.0,42.0,0.0
56.0,48.0,34.0,-8.0,-9.0,10.0,-128.0,16.0,51.0,40.0,0.0
28.0,25.0,9.0,1.0,-9.0,-6.0,-83.0,-7.0,29.0,17.0,0.0
6.0,21.0,0.0,10.0,0.0,-1.0,-55.0,-24.0,14.0,16.0,0.0
7.0,16.0,5.0,11.0,1.0,3.0,-1.0,-30.0,20.0,-10.0,0.0
20.0,22.0,30.0,24.0,3.0,12.0,73.0,-7.0,33.0,1.0,0.0
26.0,25.0,35.0,18.0,0.0,11.0,135.0,19.0,39.0,22.0,0.0
18.0,22.0,20.0,3.0,-23.0,-1.0,188.0,24.0,29.0,13.0,0.0
9.0,4.0,11.0,-1.0,-18.0,5.0,207.0,17.0,3.0,13.0,0.0
14.0,-6.0,-3.0,-18.0,-15.0,16.0,203.0,21.0,6.0,2.0,0.0
5.0,-6.0,-5.0,-23.0,-13.0,2.0,181.0,17.0,20.0,-1.0,0.0
3.0,-5.0,-8.0,-18.0,-2.0,0.0,154.0,13.0,11.0,8.0,0.0
10.0,2.0,-11.0,-8.0,-4.0,1.0,133.0,18.0,0.0,4.0,0.0
11.0,11.0,-15.0,-1.0,-17.0,1.0,141.0,16.0,18.0,7.0,0.0
7.0,19.0,-43.0,-5.0,-13.0,3.0,131.0,15.0,27.0,18.0,0.0
7.0,12.0,-82.0,1.0,-18.0,-3.0,64.0,7.0,25.0,11.0,0.0
-12.0,0.0,-8.0,8.0,-19.0,-4.0,-23.0,-8.0,13.0,3.0,0.0
-22.0,-18.0,4.0,18.0,-3.0,-10.0,-93.0,-17.0,9.0,5.0,0.0
-8.0,-27.0,-8.0,30.0,16.0,-4.0,-87.0,-18.0,10.0,0.0,0.0
-4.0,-25.0,-2.0,35.0,27.0,2.0,-45.0,-20.0,2.0,-19.0,0.0
-2.0,-7.0,16.0,40.0,31.0,-13.0,-10.0,-26.0,-3.0,-20.0,0.0
-4.0,8.0,27.0,29.0,24.0,-16.0,32.0,-30.0,-14.0,-17.0,0.0
-23.0,-3.0,10.0,-7.0,14.0,10.0,94.0,-19.0,-22.0,-25.0,0.0
-16.0,-19.0,-5.0,-36.0,-11.0,37.0,101.0,-20.0,-16.0,-25.0,0.0
-6.0,-26.0,-20.0,-31.0,-2.0,64.0,114.0,-8.0,-15.0,-20.0,0.0
-14.0,-23.0,-32.0,-34.0,18.0,48.0,148.0,-4.0,-6.0,-21.0,0.0
-12.0,-20.0,-24.0,-31.0,29.0,22.0,158.0,1.0,14.0,-11.0,0.0
1.0,-14.0,-24.0,-25.0,16.0,26.0,150.0,22.0,27.0,2.0,0.0
22.0,-4.0,-25.0,-29.0,7.0,17.0,145.0,44.0,12.0,20.0,0.0
20.0,0.0,-22.0,-36.0,6.0,6.0,128.0,42.0,12.0,22.0,0.0
11.0,6.0,-19.0,-37.0,1.0,-2.0,127.0,40.0,10.0,18.0,0.0
28.0,16.0,-14.0,-26.0,-27.0,-36.0,118.0,44.0,17.0,12.0,0.0
42.0,27.0,0.0,-13.0,-49.0,-61.0,24.0,51.0,30.0,18.0,0.0
35.0,18.0,-12.0,7.0,-26.0,-28.0,-81.0,34.0,8.0,8.0,0.0
25.0,9.0,-47.0,21.0,2.0,-9.0,-131.0,22.0,1.0,-7.0,0.0
16.0,-10.0,-42.0,10.0,14.0,5.0,-109.0,23.0,-6.0,-20.0,0.0
4.0,-15.0,-18.0,-1.0,16.0,15.0,-59.0,11.0,-20.0,-19.0,0.0
2.0,-7.0,-13.0,12.0,10.0,5.0,-26.0,5.0,-19.0,-10.0,0.0
6.0,-13.0,-9.0,26.0,5.0,10.0,6.0,21.0,-16.0,-14.0,0.0
-3.0,-28.0,-11.0,18.0,13.0,16.0,53.0,21.0,-11.0,-14.0,0.0
-4.0,-28.0,-17.0,-4.0,10.0,21.0,96.0,16.0,3.0,-20.0,0.0
2.0,-12.0,-15.0,-13.0,-6.0,-4.0,117.0,18.0,0.0,-14.0,0.0
7.0,-5.0,0.0,-24.0,-15.0,-23.0,106.0,14.0,-15.0,-8.0,0.0
14.0,-13.0,2.0,-22.0,-21.0,-17.0,107.0,11.0,-16.0,0.0,0.0
13.0,-13.0,-11.0,-23.0,-29.0,-6.0,127.0,23.0,-13.0,1.0,0.0
9.0,1.0,-6.0,-15.0,-12.0,-7.0,121.0,23.0,-29.0,-19.0,0.0
2.0,9.0,-10.0,-2.0,30.0,-12.0,131.0,-4.0,-41.0,-15.0,0.0
-12.0,0.0,-31.0,-11.0,29.0,-31.0,136.0,-17.0,14.0,9.0,0.0
-18.0,-3.0,-10.0,-11.0,18.0,-13.0,73.0,-16.0,18.0,-7.0,0.0
-3.0,-6.0,-4.0,4.0,45.0,40.0,-47.0,-4.0,-16.0,-12.0,0.0
4.0,6.0,7.0,10.0,81.0,111.0,-132.0,9.0,-15.0,-1.0,0.0
19.0,20.0,-7.0,16.0,71.0,118.0,-149.0,21.0,0.0,13.0,0.0
21.0,32.0,-91.0,25.0,41.0,66.0,-94.0,3.0,-7.0,13.0,0.0
11.0,28.0,-24.0,36.0,39.0,33.0,-50.0,-13.0,-24.0,0.0,0.0
23.0,24.0,49.0,18.0,19.0,-1.0,-31.0,-13.0,-7.0,-3.0,0.0
9.0,-2.0,20.0,-14.0,-35.0,-51.0,16.0,-13.0,-14.0,-6.0,0.0
-10.0,-16.0,-6.0,-47.0,-101.0,-79.0,72.0,-11.0,-35.0,-9.0,0.0
-2.0,-13.0,-8.0,-46.0,-92.0,-59.0,110.0,-2.0,-18.0,-2.0,0.0
1.0,-1.0,1.0,-38.0,-52.0,-50.0,117.0,1.0,-2.0,11.0,0.0
-25.0,-11.0,15.0,-23.0,-31.0,-43.0,83.0,3.0,-11.0,9.0,0.0
-17.0,-14.0,22.0,-16.0,-24.0,-53.0,68.0,-1.0,-20.0,-5.0,0.0
-8.0,2.0,-18.0,-9.0,-30.0,-89.0,79.0,2.0,-15.0,-4.0,0.0
-10.0,5.0,-123.0,0.0,-27.0,-79.0,97.0,1.0,-15.0,-16.0,0.0
-22.0,-9.0,-158.0,0.0,5.0,-50.0,86.0,-4.0,-34.0,-26.0,0.0
-48.0,-35.0,-164.0,-3.0,35.0,-1.0,63.0,-22.0,-48.0,-31.0,0.0
-37.0,-28.0,-104.0,0.0,51.0,49.0,-19.0,-20.0,-40.0,-34.0,0.0
-16.0,1.0,12.0,9.0,40.0,60.0,-99.0,-4.0,-28.0,-3.0,0.0
-4.0,21.0,-46.0,12.0,27.0,64.0,-136.0,10.0,-19.0,17.0,0.0
1.0,12.0,-73.0,8.0,12.0,39.0,-121.0,6.0,-25.0,9.0,0.0
7.0,22.0,5.0,14.0,-28.0,-19.0,-70.0,17.0,-10.0,12.0,0.0
33.0,38.0,70.0,19.0,-54.0,-46.0,-35.0,34.0,18.0,38.0,0.0
31.0,29.0,71.0,15.0,-39.0,-27.0,-28.0,30.0,40.0,18.0,0.0
21.0,12.0,62.0,2.0,-27.0,-16.0,-2.0,25.0,37.0,-4.0,0.0
22.0,10.0,63.0,0.0,-26.0,-20.0,18.0,33.0,20.0,-1.0,0.0
12.0,3.0,68.0,3.0,-3.0,-2.0,21.0,29.0,7.0,-1.0,0.0
-2.0,3.0,36.0,-8.0,-11.0,-3.0,14.0,24.0,21.0,3.0,0.0
-6.0,-10.0,21.0,-18.0,-11.0,-15.0,4.0,6.0,22.0,-2.0,0.0
-1.0,-17.0,31.0,1.0,-19.0,-12.0,-2.0,4.0,-2.0,-10.0,0.0
11.0,-1.0,47.0,6.0,-35.0,-36.0,0.0,-9.0,-8.0,-6.0,0.0
23.0,21.0,48.0,-6.0,-46.0,-47.0,16.0,-1.0,0.0,1.0,0.0
29.0,20.0,30.0,-21.0,-41.0,-38.0,21.0,20.0,4.0,5.0,0.0
31.0,22.0,16.0,-13.0,-18.0,-18.0,1.0,38.0,24.0,16.0,0.0
30.0,17.0,22.0,-1.0,5.0,-7.0,-98.0,41.0,24.0,25.0,0.0
32.0,6.0,5.0,2.0,31.0,-1.0,-208.0,24.0,3.0,10.0,0.0
4.0,-10.0,-72.0,17.0,52.0,4.0,-250.0,11.0,-12.0,-6.0,0.0
-32.0,-9.0,-64.0,19.0,63.0,11.0,-201.0,5.0,-13.0,-17.0,0.0
-30.0,-3.0,10.0,20.0,66.0,27.0,-152.0,-1.0,-13.0,-26.0,0.0
17.0,9.0,44.0,13.0,39.0,8.0,-121.0,-5.0,-18.0,-20.0,0.0
45.0,35.0,63.0,14.0,-14.0,-29.0,-60.0,-7.0,-3.0,0.0,0.0
38.0,26.0,56.0,5.0,-17.0,-28.0,-9.0,-1.0,9.0,15.0,0.0
21.0,-7.0,40.0,-21.0,-18.0,-23.0,19.0,3.0,-4.0,7.0,0.0
10.0,-6.0,35.0,-41.0,-39.0,-35.0,18.0,-14.0,-8.0,13.0,0.0
16.0,12.0,46.0,-40.0,-33.0,-46.0,10.0,-22.0,-13.0,13.0,0.0
19.0,4.0,35.0,-54.0,-25.0,-49.0,18.0,-17.0,-4.0,14.0,0.0
16.0,1.0,20.0,-58.0,-38.0,-30.0,29.0,-6.0,12.0,7.0,0.0
0.0,-6.0,22.0,-41.0,-38.0,-15.0,37.0,2.0,35.0,0.0,0.0
-9.0,-14.0,-14.0,-20.0,-29.0,-22.0,32.0,-2.0,18.0,8.0,0.0
-15.0,-11.0,-8.0,-14.0,-14.0,-28.0,6.0,-15.0,3.0,11.0,0.0
-19.0,-15.0,11.0,-18.0,8.0,-13.0,-61.0,-15.0,-1.0,4.0,0.0
-18.0,-11.0,12.0,-1.0,10.0,13.0,-167.0,2.0,-7.0,5.0,0.0
-10.0,-7.0,24.0,0.0,10.0,8.0,-240.0,4.0,-11.0,3.0,0.0
-6.0,-14.0,31.0,9.0,19.0,5.0,-232.0,-6.0,-31.0,-6.0,0.0
-11.0,-18.0,14.0,13.0,21.0,5.0,-178.0,-13.0,-39.0,-13.0,0.0
-22.0,-19.0,4.0,4.0,-2.0,-18.0,-113.0,-8.0,-13.0,-13.0,0.0
-20.0,0.0,13.0,10.0,-7.0,-42.0,-37.0,2.0,18.0,-8.0,0.0
-17.0,17.0,17.0,20.0,0.0,-31.0,36.0,-2.0,24.0,13.0,0.0
-3.0,11.0,24.0,1.0,-3.0,-25.0,101.0,1.0,22.0,10.0,0.0
-13.0,5.0,-15.0,-25.0,-13.0,-25.0,134.0,9.0,19.0,16.0,0.0
2.0,13.0,-20.0,-16.0,-10.0,-45.0,157.0,7.0,24.0,23.0,0.0
10.0,12.0,0.0,4.0,-5.0,-94.0,151.0,-2.0,29.0,1.0,0.0
-9.0,-10.0,-1.0,23.0,-11.0,-126.0,117.0,-17.0,1.0,-31.0,0.0
-34.0,-11.0,-9.0,13.0,-17.0,-108.0,104.0,-42.0,-22.0,-51.0,0.0
-42.0,-5.0,-21.0,5.0,-21.0,-64.0,126.0,-45.0,-32.0,-47.0,0.0
-14.0,-3.0,0.0,9.0,-17.0,22.0,142.0,-15.0,-10.0,-7.0,0.0
17.0,24.0,29.0,25.0,0.0,92.0,132.0,22.0,37.0,38.0,0.0
16.0,29.0,26.0,32.0,9.0,93.0,66.0,38.0,43.0,63.0,0.0
12.0,12.0,14.0,28.0,8.0,66.0,-53.0,37.0,40.0,33.0,0.0
16.0,12.0,7.0,14.0,16.0,42.0,-139.0,32.0,23.0,20.0,0.0
-2.0,11.0,3.0,12.0,1.0,0.0,-112.0,30.0,16.0,8.0,0.0
-15.0,2.0,-1.0,10.0,-20.0,-19.0,-62.0,18.0,5.0,0.0,0.0
-27.0,8.0,-2.0,19.0,-5.0,-10.0,9.0,2.0,8.0,-8.0,0.0
-21.0,2.0,-6.0,26.0,5.0,0.0,77.0,4.0,17.0,3.0,0.0
-16.0,11.0,-16.0,35.0,13.0,-3.0,127.0,-3.0,7.0,8.0,0.0
-10.0,11.0,-25.0,30.0,8.0,-9.0,144.0,-16.0,10.0,2.0,0.0
-9.0,11.0,3.0,19.0,-7.0,-10.0,141.0,-19.0,11.0,4.0,0.0
-5.0,11.0,3.0,6.0,-19.0,0.0,158.0,-21.0,7.0,5.0,0.0
4.0,21.0,8.0,-7.0,-32.0,-18.0,154.0,-23.0,0.0,17.0,0.0
12.0,15.0,7.0,-13.0,-37.0,-37.0,131.0,-13.0,11.0,16.0,0.0
15.0,11.0,-3.0,-5.0,-25.0,-30.0,115.0,-3.0,29.0,20.0,0.0
5.0,-1.0,-13.0,2.0,-14.0,-19.0,106.0,4.0,17.0,22.0,0.0
-6.0,-3.0,-15.0,4.0,-11.0,-19.0,93.0,9.0,14.0,5.0,0.0
8.0,-2.0,-20.0,22.0,1.0,-36.0,40.0,-1.0,11.0,9.0,0.0
17.0,8.0,-50.0,37.0,14.0,-44.0,-31.0,-8.0,0.0,19.0,0.0
13.0,10.0,3.0,32.0,5.0,-47.0,-101.0,-11.0,-12.0,16.0,0.0
-3.0,6.0,14.0,20.0,2.0,-24.0,-120.0,-11.0,-9.0,7.0,0.0
-27.0,-21.0,-10.0,-7.0,11.0,38.0,-95.0,-2.0,-4.0,-7.0,0.0
-31.0,-16.0,-21.0,-12.0,10.0,76.0,-66.0,11.0,12.0,-10.0,0.0
-19.0,0.0,-29.0,7.0,9.0,30.0,-21.0,8.0,6.0,-2.0,0.0
-11.0,3.0,-25.0,0.0,11.0,0.0,36.0,4.0,18.0,-13.0,0.0
-8.0,4.0,15.0,2.0,-4.0,-5.0,97.0,3.0,27.0,-11.0,0.0
0.0,2.0,22.0,11.0,-15.0,-14.0,147.0,3.0,16.0,-2.0,0.0
8.0,-7.0,13.0,-14.0,-12.0,-6.0,134.0,-1.0,15.0,1.0,0.0
8.0,-12.0,0.0,-22.0,-23.0,4.0,111.0,-3.0,8.0,10.0,0.0
7.0,-16.0,-13.0,-33.0,-33.0,0.0,117.0,0.0,7.0,-18.0,0.0
0.0,-28.0,-14.0,-30.0,-33.0,-6.0,157.0,13.0,12.0,-22.0,0.0
-3.0,-22.0,-14.0,-21.0,-28.0,-7.0,165.0,17.0,-1.0,-26.0,0.0
-3.0,-12.0,-7.0,-9.0,-15.0,-3.0,158.0,17.0,4.0,-20.0,0.0
9.0,0.0,1.0,-10.0,-10.0,4.0,151.0,3.0,-1.0,-12.0,0.0
17.0,21.0,5.0,-14.0,-21.0,-6.0,88.0,-23.0,-18.0,5.0,0.0
11.0,41.0,15.0,-11.0,-27.0,-17.0,-33.0,-21.0,-10.0,5.0,0.0
3.0,33.0,7.0,-2.0,-22.0,-15.0,-107.0,-12.0,-6.0,-1.0,0.0
12.0,19.0,-5.0,10.0,-13.0,-3.0,-100.0,-18.0,6.0,-8.0,0.0
12.0,14.0,-10.0,10.0,-12.0,8.0,-51.0,-18.0,-1.0,-4.0,0.0
0.0,5.0,-71.0,17.0,-9.0,25.0,-13.0,-10.0,-10.0,-13.0,0.0
0.0,5.0,-45.0,12.0,-7.0,20.0,9.0,-6.0,-8.0,-22.0,0.0
1.0,1.0,7.0,3.0,-5.0,11.0,43.0,-11.0,3.0,-16.0,0.0
-1.0,-2.0,-44.0,-4.0,-3.0,11.0,78.0,-10.0,-4.0,-6.0,0.0
2.0,0.0,-37.0,2.0,-1.0,16.0,112.0,-7.0,-10.0,-6.0,0.0
0.0,-6.0,13.0,0.0,4.0,15.0,126.0,-2.0,-9.0,-6.0,0.0
-3.0,-9.0,10.0,6.0,11.0,4.0,121.0,-6.0,-1.0,-24.0,0.0
0.0,-21.0,5.0,13.0,17.0,15.0,125.0,-9.0,7.0,-33.0,0.0
5.0,-11.0,0.0,13.0,31.0,37.0,86.0,-7.0,1.0,-34.0,0.0
-3.0,-6.0,-8.0,20.0,25.0,29.0,45.0,-7.0,-2.0,-36.0,0.0
-1.0,-9.0,-22.0,10.0,6.0,8.0,30.0,-10.0,6.0,-34.0,0.0
1.0,-9.0,-122.0,-3.0,-11.0,-6.0,-9.0,-17.0,14.0,-21.0,0.0
8.0,2.0,-150.0,-3.0,-19.0,-15.0,-84.0,-10.0,11.0,9.0,0.0
3.0,7.0,-59.0,3.0,-14.0,-4.0,-202.0,-16.0,13.0,8.0,0.0
-10.0,6.0,21.0,0.0,-8.0,-2.0,-265.0,-26.0,-1.0,0.0,0.0
-11.0,-6.0,15.0,7.0,-9.0,0.0,-224.0,-40.0,-9.0,-14.0,0.0
-4.0,-6.0,-59.0,12.0,-1.0,-5.0,-164.0,-45.0,0.0,-9.0,0.0
0.0,8.0,-57.0,3.0,6.0,-11.0,-123.0,-50.0,-2.0,-8.0,0.0
2.0,22.0,43.0,-2.0,12.0,-13.0,-88.0,-51.0,-5.0,-4.0,0.0
8.0,13.0,46.0,-8.0,16.0,-1.0,-14.0,-45.0,-20.0,-6.0,0.0
9.0,1.0,28.0,-12.0,17.0,12.0,29.0,-36.0,-13.0,-13.0,0.0
11.0,-8.0,24.0,2.0,21.0,18.0,15.0,-27.0,0.0,-18.0,0.0
4.0,-8.0,41.0,16.0,32.0,18.0,24.0,-15.0,13.0,2.0,0.0
9.0,-15.0,38.0,25.0,38.0,8.0,22.0,-15.0,14.0,-10.0,0.0
11.0,-8.0,22.0,9.0,35.0,0.0,13.0,-28.0,-2.0,-16.0,0.0
16.0,-5.0,22.0,12.0,35.0,-2.0,7.0,-29.0,-3.0,-13.0,0.0
5.0,-8.0,38.0,-5.0,26.0,15.0,9.0,-23.0,6.0,-3.0,0.0
-3.0,-13.0,28.0,-34.0,4.0,19.0,-3.0,-26.0,-3.0,-7.0,0.0
-2.0,-16.0,18.0,-43.0,-17.0,19.0,-62.0,-18.0,-21.0,-15.0,0.0
-3.0,-18.0,20.0,-30.0,-18.0,26.0,-165.0,-6.0,-38.0,-9.0,0.0
0.0,-9.0,22.0,-19.0,-14.0,10.0,-234.0,6.0,23.0,7.0,0.0
-5.0,-8.0,25.0,-14.0,-15.0,-7.0,-226.0,11.0,77.0,8.0,0.0
-10.0,-7.0,29.0,1.0,5.0,-2.0,-191.0,18.0,33.0,-1.0,0.0
-5.0,-7.0,36.0,8.0,10.0,0.0,-144.0,24.0,5.0,-3.0,0.0
-1.0,2.0,20.0,1.0,7.0,10.0,-94.0,23.0,0.0,2.0,0.0
1.0,14.0,-85.0,7.0,-1.0,8.0,-50.0,16.0,-15.0,4.0,0.0
6.0,11.0,-143.0,17.0,-7.0,18.0,5.0,20.0,-20.0,2.0,0.0
-10.0,1.0,-64.0,18.0,13.0,23.0,40.0,20.0,-30.0,0.0,0.0
-41.0,14.0,28.0,22.0,22.0,12.0,49.0,12.0,-37.0,-4.0,0.0
-30.0,10.0,20.0,13.0,8.0,-1.0,26.0,12.0,-3.0,15.0,0.0
-16.0,4.0,-5.0,2.0,8.0,-24.0,1.0,10.0,39.0,8.0,0.0
0.0,12.0,17.0,8.0,-7.0,-35.0,-3.0,0.0,3.0,0.0,0.0
-4.0,13.0,38.0,7.0,-11.0,-35.0,-17.0,-21.0,-16.0,-3.0,0.0
-30.0,-2.0,13.0,-20.0,-2.0,-16.0,-65.0,-24.0,-36.0,-30.0,0.0
-33.0,-19.0,-3.0,-27.0,-5.0,1.0,-86.0,-30.0,-30.0,-43.0,0.0
-28.0,-26.0,-17.0,-10.0,11.0,38.0,-146.0,-36.0,-25.0,-35.0,0.0
-30.0,-3.0,-61.0,28.0,32.0,67.0,-235.0,-20.0,-18.0,-12.0,0.0
-1.0,27.0,20.0,48.0,46.0,75.0,-268.0,2.0,-2.0,20.0,0.0
3.0,30.0,23.0,36.0,45.0,73.0,-231.0,11.0,11.0,13.0,0.0
-13.0,11.0,-60.0,27.0,41.0,69.0,-200.0,9.0,6.0,-9.0,0.0
-36.0,1.0,-40.0,40.0,45.0,68.0,-183.0,-12.0,-13.0,-17.0,0.0
-43.0,-7.0,19.0,44.0,58.0,53.0,-160.0,-19.0,-20.0,-24.0,0.0
-44.0,-7.0,31.0,49.0,46.0,28.0,-98.0,-20.0,-21.0,-30.0,0.0
-41.0,-1.0,46.0,59.0,19.0,-3.0,-27.0,-31.0,-30.0,-26.0,0.0
-4.0,15.0,60.0,68.0,15.0,-17.0,0.0,-43.0,-45.0,-16.0,0.0
30.0,23.0,53.0,36.0,8.0,-19.0,17.0,-43.0,-36.0,-5.0,0.0
35.0,16.0,29.0,-19.0,-24.0,-17.0,-7.0,-9.0,-16.0,1.0,0.0
28.0,10.0,8.0,-58.0,-57.0,-16.0,-3.0,21.0,-8.0,11.0,0.0
32.0,11.0,5.0,-53.0,-56.0,3.0,-9.0,20.0,-20.0,9.0,0.0
30.0,3.0,0.0,-37.0,-30.0,-5.0,-3.0,31.0,-29.0,10.0,0.0
20.0,5.0,-7.0,-20.0,-31.0,-8.0,16.0,57.0,-6.0,18.0,0.0
26.0,12.0,-49.0,-7.0,-26.0,-5.0,-18.0,55.0,17.0,21.0,0.0
24.0,15.0,-17.0,20.0,8.0,-35.0,-138.0,40.0,0.0,16.0,0.0
15.0,4.0,-3.0,41.0,25.0,-65.0,-235.0,10.0,-10.0,-5.0,0.0
-15.0,-28.0,7.0,21.0,32.0,-55.0,-272.0,-5.0,-12.0,-46.0,0.0
-50.0,-62.0,-22.0,-13.0,31.0,-23.0,-250.0,-15.0,-37.0,-66.0,0.0
-55.0,-57.0,-17.0,-7.0,28.0,37.0,-197.0,-5.0,-47.0,-58.0,0.0
-23.0,-26.0,2.0,-8.0,7.0,84.0,-148.0,22.0,-18.0,-23.0,0.0
26.0,10.0,40.0,-12.0,-30.0,48.0,-65.0,52.0,26.0,25.0,0.0
53.0,31.0,23.0,-22.0,-87.0,-25.0,43.0,66.0,46.0,46.0,0.0
35.0,40.0,-35.0,-19.0,-75.0,-31.0,98.0,47.0,35.0,37.0,0.0
23.0,30.0,-36.0,-27.0,-63.0,-9.0,75.0,27.0,26.0,25.0,0.0
19.0,16.0,-28.0,-37.0,-64.0,6.0,60.0,34.0,22.0,25.0,0.0
6.0,6.0,28.0,-28.0,-39.0,-10.0,39.0,25.0,26.0,10.0,0.0
-3.0,11.0,16.0,-12.0,-12.0,-8.0,32.0,6.0,11.0,-5.0,0.0
-13.0,10.0,0.0,-6.0,27.0,38.0,15.0,5.0,-10.0,-12.0,0.0
-18.0,0.0,-3.0,-13.0,57.0,47.0,6.0,-4.0,-9.0,-24.0,0.0
-32.0,-2.0,6.0,-8.0,50.0,33.0,-2.0,-21.0,-17.0,-31.0,0.0
-46.0,-10.0,10.0,-4.0,11.0,7.0,-66.0,-22.0,-19.0,-26.0,0.0
-24.0,0.0,-22.0,-14.0,-37.0,-32.0,-157.0,-8.0,-29.0,-15.0,0.0
18.0,16.0,-50.0,-20.0,-46.0,-33.0,-195.0,13.0,-8.0,12.0,0.0
28.0,24.0,-114.0,-2.0,-30.0,1.0,-149.0,16.0,-1.0,21.0,0.0
34.0,27.0,-77.0,20.0,-7.0,38.0,-82.0,16.0,16.0,8.0,0.0
30.0,30.0,30.0,25.0,11.0,65.0,-37.0,30.0,29.0,12.0,0.0
9.0,18.0,53.0,21.0,12.0,51.0,-23.0,21.0,8.0,5.0,0.0
2.0,12.0,43.0,23.0,20.0,42.0,16.0,17.0,-15.0,-4.0,0.0
-2.0,0.0,45.0,32.0,20.0,33.0,51.0,13.0,-14.0,-5.0,0.0
-4.0,6.0,47.0,21.0,17.0,10.0,95.0,13.0,-3.0,1.0,0.0
-9.0,-2.0,40.0,13.0,11.0,-6.0,115.0,19.0,-18.0,2.0,0.0
-15.0,5.0,27.0,1.0,7.0,-20.0,113.0,24.0,-16.0,2.0,0.0
-5.0,16.0,36.0,1.0,-4.0,-32.0,110.0,17.0,-13.0,13.0,0.0
6.0,11.0,24.0,-7.0,-10.0,-32.0,109.0,6.0,-10.0,26.0,0.0
4.0,1.0,11.0,-6.0,-12.0,-30.0,102.0,18.0,-16.0,25.0,0.0
-1.0,-4.0,-53.0,-5.0,-17.0,-19.0,116.0,20.0,-4.0,22.0,0.0
-3.0,-8.0,-143.0,0.0,-9.0,-15.0,99.0,23.0,-4.0,20.0,0.0
-10.0,-9.0,-141.0,23.0,-4.0,-6.0,25.0,-2.0,-12.0,26.0,0.0
-16.0,-6.0,-58.0,29.0,-3.0,2.0,-67.0,-18.0,-15.0,13.0,0.0
-14.0,-4.0,35.0,20.0,9.0,22.0,-132.0,-16.0,-8.0,13.0,0.0
-7.0,-7.0,44.0,22.0,23.0,29.0,-100.0,-6.0,-9.0,22.0,0.0
1.0,-7.0,32.0,34.0,11.0,28.0,-56.0,-3.0,-11.0,11.0,0.0
5.0,-14.0,28.0,42.0,-5.0,17.0,-21.0,-8.0,-21.0,2.0,0.0
-18.0,-10.0,31.0,27.0,-11.0,3.0,38.0,-12.0,-33.0,10.0,0.0
-17.0,0.0,32.0,26.0,-11.0,7.0,135.0,-12.0,-18.0,9.0,0.0
0.0,8.0,34.0,21.0,-8.0,1.0,159.0,-12.0,-11.0,6.0,0.0
5.0,2.0,30.0,15.0,-10.0,-18.0,165.0,-24.0,-23.0,6.0,0.0
5.0,6.0,32.0,18.0,-19.0,-34.0,185.0,-33.0,-16.0,10.0,0.0
0.0,1.0,33.0,10.0,-9.0,-39.0,173.0,-27.0,-17.0,6.0,0.0
-1.0,2.0,29.0,2.0,-14.0,-42.0,166.0,-27.0,-26.0,0.0,0.0
-4.0,11.0,-18.0,5.0,-16.0,-47.0,182.0,-29.0,-10.0,8.0,0.0
0.0,8.0,-105.0,10.0,-17.0,-34.0,189.0,-24.0,9.0,3.0,0.0
-10.0,-14.0,-27.0,11.0,-8.0,-17.0,174.0,-11.0,15.0,1.0,0.0
-8.0,-20.0,35.0,12.0,6.0,3.0,110.0,-4.0,3.0,0.0,0.0
-2.0,-18.0,25.0,14.0,16.0,10.0,-9.0,1.0,0.0,0.0,0.0
-5.0,-27.0,22.0,13.0,24.0,0.0,-87.0,2.0,-18.0,-14.0,0.0
0.0,-36.0,23.0,13.0,14.0,-6.0,-94.0,3.0,-25.0,-16.0,0.0
4.0,-13.0,-43.0,27.0,10.0,-19.0,-46.0,2.0,-13.0,8.0,0.0
12.0,-12.0,-102.0,21.0,14.0,-6.0,3.0,-1.0,-12.0,15.0,0.0
10.0,-8.0,-5.0,23.0,8.0,-2.0,39.0,-5.0,-13.0,1.0,0.0
4.0,-12.0,49.0,28.0,0.0,5.0,89.0,-5.0,-6.0,0.0,0.0
4.0,-13.0,33.0,13.0,-9.0,-1.0,162.0,3.0,-8.0,-3.0,0.0
-6.0,-4.0,2.0,8.0,-15.0,-6.0,221.0,11.0,2.0,0.0,0.0
-22.0,-7.0,-4.0,15.0,-14.0,-17.0,217.0,13.0,-1.0,-1.0,0.0
-11.0,-23.0,1.0,12.0,-8.0,-22.0,180.0,10.0,4.0,-4.0,0.0
0.0,-32.0,7.0,19.0,-10.0,-27.0,158.0,17.0,14.0,-5.0,0.0
3.0,-18.0,-4.0,21.0,-15.0,-25.0,143.0,27.0,14.0,-3.0,0.0
-11.0,-24.0,-14.0,22.0,-6.0,12.0,131.0,26.0,4.0,-4.0,0.0
-2.0,-14.0,-15.0,27.0,4.0,54.0,126.0,35.0,7.0,9.0,0.0
19.0,15.0,2.0,30.0,7.0,72.0,119.0,49.0,39.0,19.0,0.0
18.0,22.0,-51.0,24.0,15.0,51.0,45.0,39.0,31.0,20.0,0.0
8.0,16.0,-45.0,24.0,35.0,31.0,-85.0,30.0,7.0,-3.0,0.0
3.0,8.0,10.0,38.0,49.0,45.0,-156.0,27.0,3.0,-2.0,0.0
-4.0,-7.0,14.0,34.0,65.0,56.0,-145.0,20.0,-4.0,-2.0,0.0
-1.0,3.0,23.0,30.0,55.0,36.0,-106.0,17.0,-4.0,-18.0,0.0
7.0,22.0,7.0,17.0,35.0,24.0,-50.0,5.0,-13.0,-19.0,0.0
10.0,17.0,-3.0,3.0,23.0,23.0,3.0,0.0,-27.0,-17.0,0.0
8.0,7.0,0.0,-13.0,5.0,15.0,53.0,6.0,-5.0,-13.0,0.0
-2.0,1.0,-2.0,-25.0,-11.0,3.0,96.0,1.0,22.0,3.0,0.0
3.0,5.0,8.0,-12.0,-11.0,-21.0,140.0,-7.0,33.0,19.0,0.0
12.0,13.0,-30.0,-9.0,-17.0,-31.0,150.0,5.0,35.0,20.0,0.0
17.0,5.0,-108.0,-10.0,-11.0,-21.0,111.0,16.0,27.0,22.0,0.0
6.0,4.0,-97.0,-13.0,3.0,-17.0,87.0,13.0,21.0,22.0,0.0
-17.0,-6.0,-85.0,-18.0,5.0,-15.0,72.0,10.0,20.0,18.0,0.0
-29.0,-18.0,-6.0,-28.0,4.0,17.0,70.0,10.0,14.0,8.0,0.0
-17.0,-26.0,12.0,-23.0,0.0,6.0,63.0,18.0,6.0,10.0,0.0
3.0,-16.0,30.0,-11.0,-16.0,-44.0,1.0,19.0,6.0,25.0,0.0
5.0,-7.0,37.0,-12.0,-16.0,-51.0,-100.0,10.0,-5.0,22.0,0.0
-5.0,-9.0,26.0,-16.0,8.0,-15.0,-205.0,17.0,-6.0,16.0,0.0
-5.0,-20.0,23.0,-5.0,27.0,-1.0,-230.0,12.0,6.0,15.0,0.0
-3.0,-5.0,39.0,2.0,15.0,0.0,-183.0,-1.0,1.0,1.0,0.0
-4.0,13.0,42.0,-1.0,15.0,20.0,-127.0,1.0,0.0,-1.0,0.0
-7.0,1.0,36.0,-20.0,12.0,38.0,-100.0,-10.0,3.0,4.0,0.0
-3.0,-4.0,25.0,-38.0,-6.0,47.0,-69.0,-21.0,4.0,11.0,0.0
2.0,-10.0,19.0,-37.0,-15.0,32.0,-8.0,-25.0,0.0,-3.0,0.0
2.0,1.0,-14.0,-28.0,-7.0,16.0,46.0,-23.0,2.0,-3.0,0.0
7.0,9.0,-128.0,-34.0,-8.0,0.0,70.0,-20.0,4.0,1.0,0.0
-3.0,11.0,-159.0,-42.0,-16.0,-19.0,69.0,-20.0,12.0,-8.0,0.0
-13.0,3.0,-71.0,-44.0,-12.0,-20.0,67.0,-18.0,3.0,-14.0,0.0
-4.0,-8.0,19.0,-12.0,32.0,-1.0,79.0,-29.0,-17.0,-18.0,0.0
-1.0,-15.0,22.0,11.0,79.0,16.0,86.0,-51.0,-40.0,-32.0,0.0
4.0,-7.0,22.0,6.0,90.0,28.0,56.0,-65.0,-53.0,-35.0,0.0
-7.0,-5.0,26.0,22.0,82.0,34.0,18.0,-74.0,-66.0,-33.0,0.0
-7.0,9.0,47.0,32.0,28.0,7.0,-51.0,-62.0,-6.0,-4.0,0.0
7.0,15.0,70.0,13.0,-20.0,-29.0,-124.0,-43.0,69.0,25.0,0.0
1.0,-6.0,26.0,-12.0,-31.0,-16.0,-199.0,-29.0,47.0,9.0,0.0
4.0,-20.0,-56.0,-26.0,-33.0,-3.0,-202.0,-25.0,25.0,-2.0,0.0
0.0,-15.0,-70.0,-5.0,-9.0,2.0,-161.0,-34.0,-3.0,-17.0,0.0
0.0,-9.0,31.0,18.0,10.0,35.0,-135.0,-49.0,-10.0,-24.0,0.0
11.0,3.0,53.0,1.0,-9.0,28.0,-107.0,-44.0,-6.0,-14.0,0.0
32.0,4.0,25.0,-31.0,-36.0,6.0,-35.0,-23.0,2.0,-2.0,0.0
17.0,-5.0,6.0,-69.0,-68.0,-18.0,38.0,-7.0,15.0,3.0,0.0
13.0,-4.0,4.0,-68.0,-92.0,-57.0,88.0,-6.0,47.0,13.0,0.0
21.0,-3.0,10.0,-57.0,-80.0,-63.0,113.0,0.0,42.0,12.0,0.0
24.0,7.0,16.0,-47.0,-63.0,-68.0,66.0,0.0,22.0,18.0,0.0
34.0,23.0,25.0,-42.0,-60.0,-75.0,35.0,-16.0,24.0,28.0,0.0
27.0,13.0,0.0,-31.0,-46.0,-66.0,44.0,-15.0,34.0,40.0,0.0
32.0,12.0,-9.0,-22.0,-37.0,-43.0,59.0,3.0,29.0,31.0,0.0
26.0,17.0,4.0,-12.0,-35.0,-28.0,44.0,9.0,28.0,8.0,0.0
10.0,16.0,1.0,4.0,-18.0,-18.0,9.0,12.0,17.0,13.0,0.0
1.0,20.0,4.0,6.0,-13.0,-10.0,-96.0,14.0,8.0,18.0,0.0
-2.0,17.0,1.0,1.0,-9.0,-9.0,-225.0,8.0,-25.0,19.0,0.0
-12.0,15.0,-2.0,5.0,11.0,-4.0,-267.0,1.0,-41.0,-8.0,0.0
-16.0,9.0,-9.0,10.0,4.0,-16.0,-242.0,-2.0,16.0,6.0,0.0
-21.0,0.0,-58.0,10.0,5.0,-31.0,-185.0,-5.0,41.0,3.0,0.0
-27.0,-13.0,-66.0,2.0,5.0,-21.0,-130.0,-16.0,-4.0,-14.0,0.0
-18.0,-15.0,-3.0,2.0,8.0,-10.0,-78.0,-33.0,-25.0,-15.0,0.0
-2.0,-9.0,15.0,-2.0,8.0,14.0,-21.0,-33.0,-23.0,-9.0,0.0
8.0,11.0,37.0,19.0,29.0,20.0,19.0,-6.0,8.0,-4.0,0.0
18.0,26.0,1.0,33.0,29.0,0.0,42.0,3.0,13.0,4.0,0.0
0.0,12.0,-104.0,31.0,16.0,-44.0,55.0,-22.0,4.0,-4.0,0.0
-13.0,-3.0,-118.0,30.0,15.0,-38.0,38.0,-37.0,-5.0,-25.0,0.0
-26.0,-8.0,-25.0,12.0,11.0,10.0,33.0,-31.0,-15.0,-29.0,0.0
-27.0,0.0,21.0,-2.0,5.0,67.0,46.0,-9.0,-2.0,-7.0,0.0
4.0,22.0,30.0,-8.0,2.0,71.0,63.0,24.0,17.0,14.0,0.0
28.0,46.0,50.0,-1.0,-3.0,43.0,68.0,46.0,45.0,32.0,0.0
21.0,39.0,46.0,-9.0,2.0,6.0,4.0,35.0,40.0,37.0,0.0
28.0,32.0,44.0,-17.0,1.0,16.0,-117.0,35.0,21.0,33.0,0.0
23.0,24.0,63.0,-13.0,0.0,20.0,-212.0,33.0,11.0,20.0,0.0
15.0,5.0,53.0,-9.0,13.0,19.0,-224.0,25.0,0.0,9.0,0.0
5.0,0.0,-41.0,-16.0,10.0,17.0,-174.0,18.0,-3.0,6.0,0.0
7.0,6.0,-27.0,-22.0,0.0,-3.0,-132.0,19.0,-10.0,0.0,0.0
10.0,18.0,41.0,-19.0,-7.0,-15.0,-93.0,23.0,-2.0,-8.0,0.0
0.0,7.0,9.0,-19.0,0.0,-9.0,-56.0,27.0,36.0,-15.0,0.0
-3.0,11.0,5.0,-11.0,3.0,-5.0,-30.0,4.0,35.0,-8.0,0.0
2.0,24.0,28.0,-5.0,-6.0,-17.0,-12.0,-5.0,36.0,0.0,0.0
10.0,22.0,32.0,-17.0,-6.0,-31.0,18.0,1.0,28.0,10.0,0.0
17.0,28.0,29.0,-24.0,-8.0,-34.0,21.0,11.0,29.0,9.0,0.0
22.0,18.0,14.0,-19.0,-2.0,-44.0,21.0,30.0,22.0,-1.0,0.0
12.0,4.0,0.0,-25.0,0.0,-40.0,32.0,28.0,20.0,-4.0,0.0
11.0,-4.0,4.0,-21.0,-10.0,-44.0,35.0,20.0,17.0,24.0,0.0
6.0,-5.0,18.0,-14.0,-7.0,-39.0,25.0,15.0,10.0,35.0,0.0
-4.0,-7.0,21.0,4.0,0.0,-16.0,-1.0,18.0,13.0,-3.0,0.0
-7.0,-7.0,17.0,2.0,-2.0,-17.0,-75.0,13.0,2.0,-13.0,0.0
-10.0,-11.0,14.0,-1.0,-3.0,-14.0,-163.0,4.0,6.0,-13.0,0.0
-7.0,-16.0,13.0,9.0,3.0,-10.0,-210.0,-2.0,-3.0,-18.0,0.0
-3.0,-21.0,6.0,24.0,7.0,0.0,-187.0,8.0,-21.0,-17.0,0.0
-7.0,-8.0,21.0,34.0,18.0,8.0,-147.0,13.0,-25.0,-12.0,0.0
0.0,8.0,17.0,32.0,33.0,-2.0,-95.0,2.0,-29.0,-24.0,0.0
6.0,0.0,16.0,21.0,30.0,-2.0,-35.0,3.0,-37.0,-31.0,0.0
5.0,-12.0,26.0,10.0,31.0,19.0,27.0,4.0,-21.0,-30.0,0.0
-7.0,-23.0,27.0,-9.0,27.0,36.0,91.0,2.0,-1.0,-21.0,0.0
-6.0,-21.0,10.0,-12.0,18.0,24.0,139.0,15.0,19.0,-14.0,0.0
-14.0,-20.0,7.0,-9.0,18.0,13.0,159.0,14.0,4.0,-13.0,0.0
-20.0,-23.0,-4.0,-21.0,4.0,3.0,148.0,12.0,1.0,-7.0,0.0
-10.0,-26.0,-80.0,-15.0,-13.0,-8.0,124.0,16.0,-4.0,-6.0,0.0
-28.0,-15.0,-114.0,-20.0,-23.0,-27.0,103.0,17.0,5.0,-9.0,0.0
-32.0,-13.0,-20.0,-25.0,-20.0,-61.0,83.0,-1.0,-5.0,-11.0,0.0
-18.0,-17.0,0.0,-26.0,-19.0,-63.0,70.0,-19.0,-12.0,-9.0,0.0
-15.0,-21.0,7.0,-27.0,-12.0,-42.0,43.0,-13.0,-4.0,-9.0,0.0
-11.0,-23.0,6.0,-42.0,0.0,-26.0,-37.0,-6.0,18.0,-7.0,0.0
-7.0,-12.0,1.0,-32.0,0.0,-15.0,-136.0,-10.0,15.0,-8.0,0.0
-5.0,-8.0,10.0,-16.0,15.0,24.0,-188.0,-20.0,-5.0,-13.0,0.0
-12.0,-19.0,-1.0,-10.0,48.0,40.0,-168.0,-22.0,-18.0,-19.0,0.0
-17.0,-29.0,-8.0,-2.0,56.0,48.0,-131.0,-28.0,-30.0,-26.0,0.0
-29.0,-29.0,-26.0,21.0,60.0,66.0,-91.0,-35.0,-40.0,-27.0,0.0
-13.0,-13.0,-104.0,21.0,46.0,44.0,-36.0,-34.0,-41.0,-17.0,0.0
11.0,3.0,-79.0,18.0,3.0,8.0,45.0,-19.0,-15.0,-16.0,0.0
13.0,8.0,-49.0,4.0,-42.0,-11.0,116.0,2.0,4.0,-3.0,0.0
7.0,14.0,-43.0,-18.0,-55.0,-28.0,155.0,6.0,11.0,1.0,0.0
8.0,12.0,15.0,-19.0,-48.0,-53.0,162.0,1.0,18.0,7.0,0.0
7.0,-4.0,19.0,-14.0,-48.0,-43.0,137.0,1.0,19.0,11.0,0.0
-8.0,-18.0,3.0,-4.0,-35.0,-30.0,138.0,2.0,-1.0,1.0,0.0
-19.0,-22.0,-11.0,4.0,-8.0,-19.0,149.0,4.0,-8.0,-4.0,0.0
-25.0,-24.0,-13.0,17.0,37.0,16.0,165.0,5.0,-21.0,-12.0,0.0
-24.0,-21.0,-8.0,33.0,72.0,78.0,127.0,5.0,-18.0,-22.0,0.0
-13.0,-4.0,16.0,37.0,72.0,81.0,32.0,3.0,-14.0,-14.0,0.0
1.0,3.0,30.0,20.0,34.0,54.0,-72.0,-10.0,-13.0,-11.0,0.0
-2.0,-13.0,21.0,0.0,-24.0,9.0,-147.0,-12.0,-4.0,-13.0,0.0
8.0,-1.0,25.0,1.0,-99.0,-66.0,-150.0,-1.0,15.0,13.0,0.0
24.0,12.0,31.0,-4.0,-115.0,-87.0,-89.0,15.0,17.0,29.0,0.0
17.0,13.0,14.0,-9.0,-83.0,-54.0,-37.0,15.0,-3.0,24.0,0.0
0.0,12.0,-2.0,-10.0,-43.0,-23.0,-16.0,2.0,-19.0,7.0,0.0
-12.0,0.0,-2.0,-2.0,-7.0,0.0,8.0,-19.0,-28.0,-12.0,0.0
-16.0,-6.0,3.0,11.0,35.0,24.0,43.0,-33.0,-34.0,-29.0,0.0
-20.0,-9.0,-3.0,23.0,70.0,34.0,80.0,-24.0,-47.0,-34.0,0.0
-2.0,8.0,-7.0,34.0,63.0,23.0,77.0,-13.0,-29.0,-29.0,0.0
11.0,31.0,3.0,30.0,25.0,-18.0,41.0,5.0,-2.0,-11.0,0.0
21.0,31.0,3.0,3.0,-22.0,-56.0,21.0,23.0,6.0,1.0,0.0
16.0,14.0,-7.0,-39.0,-53.0,-50.0,33.0,43.0,16.0,5.0,0.0
11.0,6.0,-22.0,-77.0,-76.0,-38.0,59.0,56.0,33.0,13.0,0.0
10.0,-1.0,-17.0,-59.0,-72.0,-29.0,54.0,42.0,16.0,8.0,0.0
7.0,-5.0,-11.0,-26.0,-34.0,-17.0,29.0,32.0,13.0,-10.0,0.0
5.0,-7.0,-5.0,-6.0,-2.0,-11.0,-55.0,18.0,-4.0,-16.0,0.0
12.0,3.0,-31.0,13.0,15.0,-4.0,-170.0,9.0,-10.0,-22.0,0.0
21.0,2.0,-24.0,17.0,9.0,-9.0,-210.0,7.0,-12.0,-15.0,0.0
14.0,4.0,10.0,19.0,13.0,-8.0,-174.0,-5.0,-5.0,-9.0,0.0
1.0,0.0,-17.0,14.0,14.0,-6.0,-129.0,-1.0,-11.0,-17.0,0.0
-9.0,0.0,-13.0,17.0,18.0,4.0,-98.0,-4.0,-6.0,-28.0,0.0
-6.0,3.0,-8.0,9.0,14.0,23.0,-54.0,0.0,7.0,-21.0,0.0
17.0,-2.0,-3.0,2.0,2.0,21.0,0.0,12.0,14.0,4.0,0.0
20.0,-1.0,7.0,-2.0,-17.0,19.0,45.0,16.0,23.0,13.0,0.0
5.0,2.0,6.0,-5.0,-12.0,20.0,103.0,23.0,14.0,11.0,0.0
9.0,11.0,2.0,-10.0,-24.0,-8.0,158.0,36.0,27.0,1.0,0.0
14.0,10.0,-2.0,-1.0,-22.0,-23.0,135.0,37.0,21.0,5.0,0.0
12.0,4.0,-26.0,15.0,-9.0,-19.0,81.0,26.0,7.0,9.0,0.0
8.0,9.0,-66.0,7.0,-8.0,-33.0,85.0,28.0,-11.0,3.0,0.0
2.0,13.0,-1.0,6.0,-22.0,-41.0,97.0,15.0,-21.0,-8.0,0.0
-4.0,-13.0,15.0,-13.0,-32.0,-32.0,100.0,16.0,-30.0,-15.0,0.0
-9.0,-25.0,2.0,-29.0,-31.0,-26.0,25.0,9.0,-38.0,-30.0,0.0
-19.0,-17.0,9.0,0.0,-8.0,-7.0,-91.0,0.0,-45.0,-32.0,0.0
4.0,8.0,28.0,6.0,8.0,22.0,-187.0,2.0,-33.0,-2.0,0.0
32.0,18.0,45.0,-10.0,0.0,35.0,-192.0,2.0,55.0,20.0,0.0
37.0,1.0,30.0,-29.0,-21.0,28.0,-138.0,7.0,88.0,25.0,0.0
38.0,-8.0,-29.0,-30.0,-15.0,32.0,-76.0,1.0,57.0,10.0,0.0
19.0,2.0,-2.0,-20.0,0.0,33.0,-17.0,-2.0,31.0,1.0,0.0
-10.0,-2.0,11.0,-17.0,18.0,41.0,35.0,11.0,25.0,12.0,0.0
-7.0,0.0,-2.0,-6.0,27.0,35.0,104.0,4.0,24.0,-8.0,0.0
-7.0,9.0,-8.0,1.0,32.0,2.0,151.0,3.0,19.0,-8.0,0.0
-11.0,-5.0,-34.0,2.0,45.0,3.0,175.0,23.0,17.0,1.0,0.0
-21.0,-23.0,-56.0,-1.0,56.0,24.0,161.0,15.0,8.0,-4.0,0.0
-29.0,-15.0,6.0,-6.0,39.0,2.0,172.0,4.0,0.0,-6.0,0.0
-8.0,-3.0,26.0,4.0,19.0,-13.0,179.0,-14.0,-21.0,-1.0,0.0
11.0,-18.0,16.0,0.0,3.0,-11.0,165.0,-17.0,-33.0,-5.0,0.0
35.0,-10.0,2.0,-17.0,-20.0,-28.0,165.0,-3.0,-9.0,-7.0,0.0
37.0,1.0,5.0,-26.0,-40.0,-54.0,151.0,10.0,14.0,0.0,0.0
18.0,15.0,5.0,-22.0,-25.0,-44.0,72.0,-1.0,20.0,8.0,0.0
9.0,9.0,6.0,-10.0,-12.0,-20.0,-44.0,-2.0,21.0,2.0,0.0
8.0,3.0,20.0,11.0,7.0,-17.0,-118.0,-4.0,6.0,-5.0,0.0
15.0,5.0,29.0,11.0,16.0,-15.0,-105.0,3.0,0.0,-10.0,0.0
14.0,-3.0,21.0,0.0,17.0,-1.0,-63.0,6.0,3.0,-14.0,0.0
-9.0,-14.0,2.0,0.0,19.0,17.0,-22.0,11.0,1.0,-21.0,0.0
-47.0,-30.0,-14.0,-5.0,16.0,47.0,7.0,3.0,2.0,-37.0,0.0
-46.0,-29.0,-5.0,-14.0,11.0,62.0,57.0,7.0,-6.0,-29.0,0.0
-26.0,-17.0,7.0,-19.0,4.0,25.0,115.0,9.0,-2.0,-13.0,0.0
-28.0,-11.0,15.0,-11.0,6.0,5.0,136.0,0.0,11.0,-14.0,0.0
-36.0,-6.0,3.0,-21.0,2.0,25.0,136.0,4.0,28.0,-11.0,0.0
-19.0,2.0,-8.0,-24.0,-4.0,45.0,140.0,14.0,21.0,-10.0,0.0
-2.0,2.0,-1.0,-18.0,-4.0,41.0,137.0,13.0,14.0,-3.0,0.0
11.0,11.0,7.0,-13.0,0.0,15.0,133.0,-5.0,0.0,6.0,0.0
12.0,19.0,7.0,-22.0,-7.0,7.0,110.0,-5.0,11.0,13.0,0.0
6.0,17.0,4.0,-27.0,-10.0,9.0,68.0,-7.0,23.0,26.0,0.0
-7.0,17.0,-66.0,-8.0,-7.0,7.0,15.0,1.0,16.0,29.0,0.0
-23.0,0.0,-103.0,-7.0,-4.0,6.0,-77.0,-8.0,7.0,10.0,0.0
-25.0,-3.0,-26.0,-8.0,2.0,13.0,-179.0,-13.0,-2.0,-3.0,0.0
-24.0,0.0,-51.0,-4.0,3.0,20.0,-230.0,-18.0,-1.0,-3.0,0.0
-10.0,-8.0,2.0,9.0,7.0,15.0,-190.0,-38.0,-18.0,-3.0,0.0
-11.0,0.0,46.0,16.0,0.0,20.0,-114.0,-46.0,-19.0,7.0,0.0
-17.0,11.0,51.0,17.0,-15.0,20.0,-58.0,-37.0,-19.0,2.0,0.0
-16.0,2.0,26.0,21.0,-14.0,1.0,-17.0,-35.0,-19.0,10.0,0.0
-29.0,1.0,17.0,21.0,-18.0,13.0,34.0,-30.0,-22.0,10.0,0.0
-27.0,-3.0,27.0,19.0,-19.0,29.0,66.0,-20.0,-13.0,4.0,0.0
-26.0,-8.0,24.0,16.0,-11.0,14.0,60.0,-24.0,-8.0,-1.0,0.0
-16.0,-10.0,34.0,16.0,-12.0,2.0,62.0,-13.0,-9.0,-3.0,0.0
0.0,-5.0,33.0,10.0,-18.0,1.0,80.0,0.0,3.0,0.0,0.0
5.0,-5.0,33.0,1.0,-21.0,0.0,84.0,0.0,5.0,0.0,0.0
15.0,1.0,35.0,1.0,-21.0,-13.0,67.0,-6.0,-10.0,-5.0,0.0
20.0,6.0,23.0,-2.0,-23.0,-18.0,80.0,-7.0,-25.0,0.0,0.0
20.0,11.0,18.0,0.0,-29.0,-4.0,75.0,-3.0,-28.0,3.0,0.0
18.0,4.0,-2.0,15.0,-20.0,3.0,6.0,7.0,-37.0,-10.0,0.0
11.0,-9.0,-104.0,3.0,-18.0,1.0,-101.0,19.0,37.0,2.0,0.0
8.0,-3.0,-78.0,-3.0,-1.0,-19.0,-176.0,16.0,67.0,8.0,0.0
11.0,-5.0,12.0,5.0,22.0,-18.0,-176.0,0.0,19.0,-2.0,0.0
-1.0,-5.0,23.0,14.0,26.0,3.0,-121.0,-12.0,-9.0,-13.0,0.0
-25.0,-7.0,23.0,22.0,16.0,6.0,-56.0,-20.0,-18.0,-17.0,0.0
-24.0,-15.0,-18.0,22.0,15.0,6.0,-36.0,-24.0,-34.0,-22.0,0.0
-17.0,-25.0,-123.0,17.0,7.0,33.0,4.0,-16.0,-24.0,-19.0,0.0
-6.0,-2.0,-142.0,7.0,-3.0,54.0,56.0,-1.0,-17.0,3.0,0.0
9.0,15.0,-44.0,6.0,-6.0,38.0,104.0,21.0,-10.0,25.0,0.0
16.0,23.0,45.0,6.0,-15.0,-1.0,119.0,17.0,-10.0,24.0,0.0
20.0,16.0,53.0,3.0,-14.0,-21.0,97.0,7.0,-31.0,14.0,0.0
39.0,11.0,56.0,1.0,-14.0,-32.0,73.0,16.0,-30.0,17.0,0.0
41.0,12.0,58.0,-12.0,-25.0,-46.0,74.0,15.0,5.0,27.0,0.0
30.0,11.0,59.0,-27.0,-34.0,-41.0,81.0,7.0,39.0,16.0,0.0
38.0,5.0,41.0,-32.0,-31.0,-31.0,75.0,-3.0,8.0,9.0,0.0
40.0,7.0,38.0,-17.0,-32.0,-29.0,16.0,-9.0,-3.0,20.0,0.0
24.0,10.0,45.0,-3.0,-30.0,-20.0,-77.0,-8.0,-11.0,12.0,0.0
23.0,12.0,48.0,12.0,-14.0,-8.0,-183.0,-18.0,-19.0,8.0,0.0
19.0,12.0,-39.0,12.0,4.0,-14.0,-250.0,-23.0,-14.0,3.0,0.0
8.0,4.0,-108.0,9.0,1.0,-29.0,-224.0,-24.0,-20.0,-8.0,0.0
-14.0,-27.0,-33.0,0.0,0.0,-22.0,-180.0,-41.0,-39.0,-28.0,0.0
-29.0,-32.0,17.0,-6.0,-11.0,-19.0,-143.0,-51.0,-48.0,-18.0,0.0
-16.0,-12.0,38.0,-4.0,-15.0,-28.0,-106.0,-51.0,-47.0,-3.0,0.0
-4.0,-9.0,47.0,-8.0,-13.0,-15.0,-64.0,-42.0,-40.0,3.0,0.0
-1.0,-11.0,53.0,-2.0,-3.0,19.0,-8.0,-32.0,-26.0,11.0,0.0
11.0,18.0,59.0,3.0,20.0,20.0,22.0,-15.0,1.0,25.0,0.0
5.0,28.0,49.0,9.0,17.0,5.0,33.0,-7.0,11.0,25.0,0.0
1.0,8.0,25.0,4.0,7.0,-3.0,28.0,-4.0,5.0,20.0,0.0
1.0,1.0,27.0,0.0,-5.0,-4.0,21.0,-9.0,13.0,30.0,0.0
-8.0,0.0,22.0,-12.0,-10.0,-6.0,11.0,-6.0,20.0,35.0,0.0
-16.0,-3.0,-37.0,-24.0,-26.0,-12.0,19.0,7.0,24.0,27.0,0.0
-20.0,-6.0,6.0,-30.0,-36.0,-29.0,-8.0,11.0,24.0,21.0,0.0
-22.0,-4.0,34.0,-30.0,-24.0,-43.0,-91.0,9.0,10.0,22.0,0.0
-30.0,2.0,22.0,-18.0,-11.0,-31.0,-192.0,7.0,7.0,25.0,0.0
-20.0,4.0,-85.0,-12.0,-10.0,-21.0,-287.0,1.0,1.0,22.0,0.0
-29.0,0.0,-107.0,-1.0,-3.0,-5.0,-299.0,-16.0,-11.0,16.0,0.0
-32.0,-20.0,-3.0,4.0,-1.0,0.0,-226.0,-22.0,-19.0,0.0,0.0
-22.0,-28.0,46.0,16.0,10.0,-4.0,-157.0,-18.0,-11.0,-10.0,0.0
-5.0,-6.0,62.0,0.0,-2.0,29.0,-32.0,-7.0,-20.0,13.0,0.0
-16.0,-20.0,38.0,-32.0,-26.0,27.0,-42.0,8.0,-21.0,16.0,0.0
-29.0,-19.0,21.0,-48.0,-17.0,40.0,-28.0,20.0,-19.0,13.0,0.0
-10.0,-6.0,-5.0,-36.0,-8.0,48.0,-4.0,28.0,0.0,17.0,0.0
5.0,-7.0,16.0,-13.0,-5.0,37.0,-14.0,20.0,0.0,11.0,0.0
-22.0,-14.0,38.0,-2.0,9.0,32.0,-31.0,18.0,-13.0,2.0,0.0
-16.0,-9.0,-27.0,-7.0,10.0,19.0,-59.0,29.0,-21.0,0.0,0.0
16.0,-10.0,-100.0,0.0,-24.0,-38.0,-138.0,34.0,-7.0,13.0,0.0
33.0,8.0,1.0,0.0,-57.0,-83.0,-232.0,25.0,5.0,19.0,0.0
33.0,16.0,63.0,1.0,-43.0,-80.0,-278.0,30.0,20.0,21.0,0.0
11.0,15.0,60.0,20.0,-9.0,-26.0,-254.0,30.0,18.0,17.0,0.0
1.0,10.0,63.0,33.0,8.0,-2.0,-198.0,29.0,7.0,6.0,0.0
4.0,2.0,69.0,30.0,40.0,21.0,-160.0,17.0,8.0,14.0,0.0
4.0,-1.0,61.0,40.0,77.0,25.0,-126.0,7.0,-17.0,2.0,0.0
-1.0,-17.0,41.0,46.0,97.0,-3.0,-70.0,-15.0,-40.0,-13.0,0.0
-14.0,-31.0,12.0,44.0,106.0,0.0,-39.0,-41.0,-50.0,-28.0,0.0
-28.0,-42.0,9.0,39.0,92.0,17.0,-18.0,-54.0,-56.0,-38.0,0.0
-21.0,-42.0,4.0,17.0,51.0,22.0,11.0,-36.0,-44.0,-31.0,0.0
-10.0,-6.0,11.0,0.0,25.0,25.0,43.0,-9.0,-10.0,-3.0,0.0
27.0,21.0,25.0,-9.0,0.0,13.0,66.0,12.0,10.0,31.0,0.0
56.0,36.0,32.0,-27.0,-63.0,-49.0,90.0,34.0,42.0,62.0,0.0
62.0,53.0,40.0,-41.0,-107.0,-121.0,105.0,32.0,50.0,67.0,0.0
51.0,37.0,51.0,-25.0,-68.0,-102.0,107.0,6.0,44.0,48.0,0.0
19.0,17.0,27.0,-16.0,-25.0,-43.0,50.0,1.0,22.0,51.0,0.0
5.0,4.0,12.0,-12.0,-16.0,-1.0,-66.0,1.0,7.0,48.0,0.0
10.0,8.0,21.0,-3.0,-12.0,14.0,-195.0,-4.0,-7.0,19.0,0.0
15.0,2.0,11.0,4.0,9.0,25.0,-243.0,-11.0,-24.0,5.0,0.0
0.0,-10.0,-21.0,15.0,20.0,49.0,-213.0,-10.0,-22.0,-2.0,0.0
-22.0,-11.0,0.0,20.0,10.0,54.0,-172.0,1.0,-37.0,-18.0,0.0
-20.0,-12.0,1.0,13.0,-2.0,41.0,-133.0,11.0,-40.0,-23.0,0.0
0.0,-8.0,13.0,8.0,-9.0,15.0,-81.0,3.0,-29.0,-10.0,0.0
9.0,-3.0,2.0,5.0,-34.0,-15.0,-8.0,10.0,26.0,6.0,0.0
2.0,-10.0,-13.0,-7.0,-31.0,-5.0,45.0,16.0,48.0,6.0,0.0
-27.0,-28.0,-29.0,-12.0,1.0,24.0,56.0,8.0,38.0,-8.0,0.0
-32.0,-19.0,-14.0,1.0,29.0,22.0,62.0,-1.0,34.0,-9.0,0.0
-15.0,-2.0,-3.0,7.0,36.0,-3.0,63.0,-2.0,25.0,-7.0,0.0
-1.0,6.0,-11.0,6.0,17.0,-40.0,77.0,0.0,0.0,-7.0,0.0
0.0,6.0,-12.0,-4.0,-25.0,-42.0,86.0,-3.0,-5.0,-11.0,0.0
-10.0,-6.0,-7.0,-19.0,-32.0,-5.0,92.0,-5.0,-6.0,-1.0,0.0
-16.0,-16.0,-25.0,-23.0,-26.0,22.0,84.0,1.0,-12.0,-6.0,0.0
0.0,-10.0,-24.0,-33.0,-22.0,19.0,6.0,18.0,-12.0,1.0,0.0
8.0,12.0,1.0,-29.0,-8.0,9.0,-106.0,29.0,6.0,16.0,0.0
9.0,22.0,0.0,-11.0,-11.0,5.0,-183.0,20.0,-3.0,28.0,0.0
4.0,6.0,-36.0,-9.0,-11.0,13.0,-187.0,6.0,-18.0,9.0,0.0
3.0,-4.0,-16.0,-18.0,0.0,19.0,-152.0,-5.0,-5.0,-3.0,0.0
3.0,-3.0,0.0,-13.0,1.0,12.0,-109.0,1.0,4.0,-10.0,0.0
10.0,5.0,25.0,0.0,-4.0,21.0,-64.0,8.0,-7.0,-12.0,0.0
5.0,0.0,20.0,-2.0,-1.0,29.0,-9.0,3.0,-11.0,-4.0,0.0
3.0,-9.0,0.0,-16.0,-9.0,15.0,47.0,-5.0,2.0,-4.0,0.0
4.0,-6.0,-28.0,-24.0,-28.0,2.0,80.0,-6.0,9.0,4.0,0.0
11.0,9.0,-93.0,-26.0,-33.0,-9.0,107.0,-5.0,10.0,20.0,0.0
11.0,13.0,-39.0,-36.0,-24.0,0.0,110.0,-4.0,2.0,19.0,0.0
0.0,10.0,1.0,-26.0,-19.0,5.0,122.0,-12.0,-3.0,13.0,0.0
-11.0,1.0,-4.0,-24.0,-11.0,-3.0,166.0,-11.0,3.0,3.0,0.0
-7.0,3.0,-15.0,-28.0,0.0,-8.0,156.0,-1.0,13.0,4.0,0.0
-2.0,-5.0,-3.0,-21.0,-2.0,-12.0,127.0,4.0,9.0,0.0,0.0
0.0,-12.0,9.0,-18.0,3.0,-14.0,108.0,8.0,1.0,-5.0,0.0
-15.0,-13.0,-10.0,-11.0,14.0,-1.0,62.0,2.0,-10.0,-5.0,0.0
-8.0,-4.0,-92.0,-13.0,19.0,-1.0,-19.0,0.0,-15.0,-6.0,0.0
-3.0,0.0,-78.0,0.0,13.0,1.0,-63.0,1.0,-11.0,-13.0,0.0
0.0,5.0,-2.0,15.0,25.0,12.0,-42.0,-2.0,2.0,-9.0,0.0
-1.0,13.0,4.0,14.0,31.0,14.0,-17.0,-3.0,7.0,-3.0,0.0
2.0,10.0,5.0,23.0,37.0,14.0,15.0,0.0,-1.0,-10.0,0.0
14.0,4.0,7.0,25.0,26.0,17.0,67.0,5.0,5.0,-13.0,0.0
11.0,10.0,12.0,12.0,19.0,0.0,115.0,0.0,2.0,-12.0,0.0
10.0,0.0,14.0,7.0,21.0,-4.0,159.0,-8.0,-15.0,-8.0,0.0
6.0,-11.0,11.0,5.0,26.0,7.0,171.0,-16.0,-23.0,-12.0,0.0
2.0,0.0,7.0,1.0,26.0,4.0,182.0,-14.0,-26.0,-10.0,0.0
6.0,1.0,15.0,0.0,21.0,1.0,181.0,-13.0,-15.0,1.0,0.0
8.0,2.0,22.0,-5.0,22.0,-10.0,169.0,-24.0,-9.0,5.0,0.0
-1.0,-1.0,11.0,-12.0,28.0,-16.0,172.0,-26.0,-1.0,8.0,0.0
-1.0,-7.0,12.0,0.0,28.0,-19.0,211.0,-5.0,15.0,8.0,0.0
-7.0,-1.0,6.0,5.0,32.0,2.0,205.0,10.0,12.0,-2.0,0.0
-8.0,-1.0,3.0,13.0,25.0,6.0,121.0,12.0,4.0,-3.0,0.0
7.0,-11.0,12.0,20.0,21.0,-1.0,19.0,6.0,3.0,11.0,0.0
3.0,-10.0,15.0,16.0,26.0,-7.0,-79.0,8.0,3.0,18.0,0.0
-2.0,-7.0,-29.0,23.0,35.0,-6.0,-109.0,6.0,-5.0,4.0,0.0
20.0,-1.0,-117.0,33.0,35.0,-18.0,-68.0,-10.0,-16.0,2.0,0.0
25.0,-2.0,-140.0,33.0,37.0,-10.0,-15.0,-19.0,-27.0,3.0,0.0
15.0,-20.0,-73.0,12.0,16.0,6.0,20.0,-33.0,-34.0,2.0,0.0
-1.0,-17.0,-1.0,2.0,9.0,11.0,73.0,-47.0,-27.0,-10.0,0.0
-8.0,-14.0,20.0,12.0,22.0,9.0,143.0,-39.0,-33.0,2.0,0.0
-13.0,-5.0,14.0,16.0,18.0,9.0,186.0,-36.0,-23.0,4.0,0.0
-11.0,1.0,11.0,6.0,8.0,17.0,226.0,-27.0,-15.0,-12.0,0.0
-11.0,3.0,13.0,-5.0,0.0,24.0,256.0,-15.0,-3.0,0.0,0.0
11.0,-2.0,-2.0,-8.0,-3.0,-8.0,243.0,0.0,10.0,12.0,0.0
17.0,-5.0,-31.0,10.0,-11.0,-25.0,222.0,12.0,9.0,10.0,0.0
0.0,-4.0,21.0,7.0,-3.0,-17.0,230.0,12.0,20.0,5.0,0.0
3.0,6.0,30.0,1.0,9.0,2.0,221.0,15.0,14.0,0.0,0.0
0.0,-6.0,16.0,1.0,3.0,17.0,183.0,11.0,8.0,0.0,0.0
5.0,-14.0,9.0,16.0,14.0,11.0,80.0,14.0,15.0,-3.0,0.0
-2.0,-22.0,3.0,33.0,22.0,11.0,-38.0,10.0,8.0,-9.0,0.0
-8.0,-14.0,6.0,28.0,24.0,18.0,-128.0,1.0,-10.0,-20.0,0.0
7.0,4.0,22.0,21.0,5.0,13.0,-122.0,0.0,-28.0,-27.0,0.0
26.0,7.0,26.0,20.0,-7.0,13.0,-72.0,0.0,-33.0,-26.0,0.0
19.0,3.0,17.0,17.0,-1.0,7.0,-27.0,-3.0,-40.0,-30.0,0.0
8.0,-12.0,6.0,1.0,2.0,4.0,28.0,-9.0,-27.0,-27.0,0.0
2.0,-19.0,-1.0,-7.0,-5.0,-2.0,97.0,-2.0,46.0,-3.0,0.0
6.0,-4.0,-17.0,1.0,-5.0,0.0,155.0,10.0,61.0,-1.0,0.0
3.0,8.0,-5.0,15.0,4.0,13.0,179.0,25.0,32.0,-9.0,0.0
-7.0,7.0,4.0,10.0,6.0,12.0,195.0,29.0,20.0,0.0,0.0
-3.0,1.0,4.0,1.0,5.0,4.0,192.0,33.0,30.0,8.0,0.0
0.0,4.0,14.0,-2.0,8.0,-9.0,191.0,26.0,25.0,7.0,0.0
-1.0,12.0,21.0,0.0,10.0,-25.0,194.0,19.0,1.0,13.0,0.0
-1.0,7.0,21.0,-9.0,7.0,-31.0,176.0,15.0,0.0,7.0,0.0
-6.0,0.0,10.0,-7.0,8.0,-22.0,138.0,18.0,2.0,0.0,0.0
-8.0,-8.0,6.0,3.0,18.0,-12.0,95.0,18.0,7.0,-6.0,0.0
-11.0,-28.0,-4.0,5.0,19.0,-1.0,-35.0,15.0,6.0,-13.0,0.0
-9.0,-27.0,-3.0,26.0,25.0,23.0,-190.0,17.0,2.0,-11.0,0.0
2.0,-10.0,13.0,31.0,35.0,39.0,-262.0,27.0,14.0,-5.0,0.0
4.0,2.0,28.0,27.0,28.0,42.0,-215.0,27.0,10.0,13.0,0.0
-4.0,5.0,18.0,12.0,-2.0,42.0,-139.0,35.0,29.0,17.0,0.0
-1.0,-10.0,-13.0,-7.0,-23.0,30.0,-106.0,51.0,37.0,21.0,0.0
-1.0,-12.0,-111.0,-2.0,-8.0,20.0,-71.0,55.0,29.0,9.0,0.0
-3.0,10.0,-173.0,6.0,6.0,30.0,-17.0,41.0,23.0,-4.0,0.0
2.0,15.0,-120.0,24.0,4.0,36.0,28.0,31.0,13.0,-16.0,0.0
15.0,7.0,-87.0,31.0,-3.0,32.0,49.0,27.0,4.0,-14.0,0.0
7.0,9.0,-131.0,23.0,-10.0,20.0,44.0,20.0,-1.0,-10.0,0.0
12.0,12.0,-141.0,14.0,-18.0,1.0,36.0,13.0,-2.0,-10.0,0.0
39.0,14.0,-122.0,-18.0,-32.0,-32.0,44.0,4.0,-3.0,-4.0,0.0
45.0,24.0,-25.0,-31.0,-37.0,-38.0,76.0,1.0,13.0,-1.0,0.0
31.0,23.0,25.0,-29.0,-22.0,-7.0,71.0,5.0,28.0,4.0,0.0
29.0,26.0,36.0,-16.0,-7.0,19.0,76.0,12.0,46.0,13.0,0.0
30.0,34.0,57.0,-2.0,-3.0,19.0,10.0,17.0,48.0,18.0,0.0
18.0,42.0,48.0,-1.0,-1.0,-2.0,-101.0,27.0,42.0,18.0,0.0
19.0,35.0,-3.0,-1.0,1.0,-20.0,-185.0,15.0,35.0,-4.0,0.0
6.0,18.0,-108.0,3.0,3.0,-9.0,-201.0,10.0,19.0,-17.0,0.0
-8.0,10.0,-103.0,-1.0,-1.0,8.0,-154.0,9.0,7.0,-25.0,0.0
-16.0,2.0,6.0,5.0,3.0,34.0,-100.0,11.0,19.0,-30.0,0.0
-24.0,13.0,-4.0,-2.0,13.0,64.0,-52.0,24.0,18.0,-19.0,0.0
-8.0,23.0,25.0,0.0,22.0,68.0,-5.0,29.0,19.0,10.0,0.0
15.0,17.0,76.0,3.0,24.0,45.0,18.0,29.0,17.0,11.0,0.0
8.0,14.0,83.0,8.0,31.0,29.0,50.0,34.0,11.0,-4.0,0.0
11.0,9.0,73.0,16.0,37.0,28.0,83.0,44.0,-3.0,-3.0,0.0
20.0,2.0,71.0,21.0,32.0,21.0,69.0,44.0,-9.0,5.0,0.0
12.0,6.0,61.0,20.0,26.0,24.0,52.0,45.0,0.0,-2.0,0.0
27.0,13.0,65.0,7.0,21.0,4.0,45.0,46.0,-6.0,1.0,0.0
26.0,32.0,69.0,21.0,12.0,-9.0,47.0,24.0,-29.0,3.0,0.0
18.0,18.0,52.0,0.0,2.0,-1.0,49.0,16.0,0.0,13.0,0.0
0.0,-6.0,21.0,-34.0,-18.0,-11.0,9.0,11.0,77.0,30.0,0.0
-23.0,-15.0,11.0,-27.0,-10.0,2.0,-96.0,-6.0,78.0,8.0,0.0
-27.0,-13.0,21.0,-24.0,5.0,28.0,-188.0,-21.0,21.0,-12.0,0.0
-21.0,-12.0,34.0,-26.0,-6.0,21.0,-239.0,-31.0,1.0,-17.0,0.0
-8.0,3.0,44.0,-13.0,-20.0,-2.0,-194.0,-26.0,16.0,-9.0,0.0
3.0,3.0,39.0,2.0,-21.0,-11.0,-136.0,0.0,40.0,8.0,0.0
-4.0,-5.0,31.0,10.0,3.0,0.0,-110.0,-5.0,22.0,12.0,0.0
-5.0,-16.0,37.0,39.0,36.0,28.0,-54.0,-19.0,18.0,0.0,0.0
-9.0,-31.0,36.0,52.0,60.0,35.0,-5.0,-31.0,0.0,-9.0,0.0
-15.0,-26.0,25.0,52.0,67.0,14.0,22.0,-43.0,-39.0,-20.0,0.0
-18.0,-8.0,27.0,39.0,50.0,1.0,33.0,-52.0,-48.0,-13.0,0.0
-13.0,-4.0,27.0,12.0,39.0,-12.0,17.0,-54.0,-32.0,-11.0,0.0
-10.0,-19.0,11.0,-19.0,13.0,25.0,20.0,-36.0,-33.0,-16.0,0.0
0.0,-10.0,2.0,-36.0,-33.0,27.0,38.0,-6.0,-4.0,-1.0,0.0
3.0,0.0,-3.0,-39.0,-57.0,5.0,59.0,24.0,38.0,21.0,0.0
-4.0,3.0,-7.0,-48.0,-59.0,-4.0,71.0,34.0,18.0,43.0,0.0
0.0,6.0,1.0,-44.0,-54.0,-12.0,50.0,36.0,22.0,45.0,0.0
7.0,13.0,15.0,-33.0,-50.0,-48.0,-12.0,31.0,24.0,44.0,0.0
11.0,16.0,18.0,-20.0,-33.0,-51.0,-122.0,40.0,21.0,30.0,0.0
5.0,6.0,12.0,-9.0,-12.0,-31.0,-211.0,34.0,7.0,21.0,0.0
0.0,8.0,23.0,4.0,5.0,-8.0,-214.0,10.0,23.0,14.0,0.0
5.0,12.0,35.0,23.0,12.0,-10.0,-171.0,-17.0,3.0,4.0,0.0
11.0,12.0,50.0,30.0,4.0,-9.0,-138.0,-38.0,-32.0,3.0,0.0
22.0,15.0,52.0,14.0,-2.0,-4.0,-116.0,-39.0,-19.0,21.0,0.0
7.0,1.0,38.0,-1.0,-7.0,-6.0,-72.0,-41.0,-5.0,17.0,0.0
-5.0,-12.0,17.0,-7.0,0.0,-12.0,-21.0,-39.0,-24.0,-13.0,0.0
-11.0,-19.0,-43.0,-12.0,1.0,-14.0,10.0,-31.0,-50.0,-20.0,0.0
-17.0,-18.0,-139.0,3.0,7.0,-6.0,26.0,-39.0,-43.0,-9.0,0.0
-21.0,-14.0,-135.0,13.0,19.0,-4.0,41.0,-48.0,-26.0,-11.0,0.0
-29.0,-9.0,-124.0,7.0,17.0,-21.0,41.0,-36.0,-25.0,-14.0,0.0
-15.0,1.0,-63.0,-25.0,-12.0,-40.0,63.0,-20.0,-22.0,-3.0,0.0
2.0,8.0,29.0,-19.0,-23.0,-37.0,65.0,-18.0,-2.0,7.0,0.0
2.0,12.0,30.0,-1.0,-12.0,-6.0,64.0,-16.0,6.0,12.0,0.0
-2.0,11.0,67.0,2.0,10.0,-3.0,59.0,-24.0,8.0,17.0,0.0
-7.0,10.0,55.0,6.0,15.0,-14.0,-4.0,-14.0,12.0,24.0,0.0
-8.0,17.0,42.0,16.0,21.0,2.0,-122.0,-7.0,10.0,23.0,0.0
-11.0,22.0,75.0,26.0,23.0,8.0,-189.0,0.0,7.0,19.0,0.0
-7.0,15.0,31.0,15.0,4.0,3.0,-167.0,-1.0,18.0,20.0,0.0
-12.0,-4.0,-50.0,3.0,4.0,23.0,-132.0,3.0,29.0,8.0,0.0
-27.0,-12.0,9.0,0.0,-5.0,35.0,-80.0,-3.0,19.0,-2.0,0.0
-32.0,-5.0,17.0,5.0,-7.0,27.0,-39.0,-10.0,13.0,-1.0,0.0
-23.0,5.0,-13.0,16.0,4.0,0.0,9.0,-12.0,0.0,0.0,0.0
-16.0,6.0,31.0,6.0,3.0,-14.0,61.0,-27.0,0.0,9.0,0.0
-2.0,-2.0,40.0,-10.0,0.0,-18.0,121.0,-24.0,-3.0,7.0,0.0
5.0,-5.0,49.0,-1.0,-1.0,0.0,143.0,-16.0,10.0,11.0,0.0
0.0,-2.0,34.0,9.0,-3.0,14.0,125.0,-3.0,11.0,3.0,0.0
-2.0,-12.0,24.0,10.0,16.0,10.0,116.0,2.0,0.0,-9.0,0.0
-9.0,-18.0,23.0,28.0,29.0,12.0,120.0,1.0,-2.0,-8.0,0.0
-3.0,-5.0,31.0,36.0,35.0,7.0,119.0,-17.0,-6.0,-2.0,0.0
-1.0,-2.0,36.0,27.0,28.0,-9.0,115.0,-30.0,-28.0,-8.0,0.0
-15.0,-4.0,-3.0,10.0,12.0,-4.0,69.0,-20.0,-32.0,-7.0,0.0
-16.0,3.0,-21.0,2.0,-19.0,0.0,-12.0,-6.0,-25.0,0.0,0.0
-3.0,-10.0,17.0,-10.0,-16.0,8.0,-104.0,-13.0,-26.0,-10.0,0.0
0.0,-12.0,26.0,-10.0,-20.0,23.0,-114.0,-12.0,-25.0,-6.0,0.0
-2.0,-5.0,23.0,-1.0,-19.0,32.0,-57.0,-3.0,-21.0,-6.0,0.0
-4.0,-6.0,-6.0,0.0,-8.0,39.0,-41.0,-2.0,-22.0,-8.0,0.0
-7.0,-9.0,-115.0,-6.0,-2.0,32.0,-22.0,-3.0,-25.0,-9.0,0.0
-2.0,-6.0,-119.0,-4.0,-12.0,-9.0,14.0,0.0,-26.0,-11.0,0.0
10.0,0.0,-8.0,-4.0,-12.0,-27.0,60.0,8.0,8.0,7.0,0.0
11.0,7.0,48.0,-8.0,-12.0,-9.0,93.0,19.0,22.0,21.0,0.0
7.0,1.0,54.0,-13.0,-2.0,2.0,116.0,14.0,4.0,-3.0,0.0
-2.0,-3.0,39.0,-18.0,-1.0,-1.0,138.0,6.0,-3.0,-15.0,0.0
0.0,2.0,-7.0,-13.0,-10.0,-9.0,158.0,4.0,-6.0,-1.0,0.0
0.0,2.0,-17.0,-14.0,-9.0,-14.0,169.0,6.0,-8.0,-14.0,0.0
0.0,-8.0,51.0,-26.0,-5.0,-10.0,188.0,4.0,6.0,-21.0,0.0
-18.0,-13.0,47.0,-33.0,-7.0,2.0,209.0,-1.0,16.0,-19.0,0.0
-39.0,-22.0,37.0,-32.0,-9.0,-1.0,158.0,-5.0,5.0,8.0,0.0
-36.0,-22.0,35.0,-28.0,-19.0,2.0,70.0,-4.0,-1.0,-11.0,0.0
-29.0,-20.0,-12.0,-12.0,-16.0,15.0,-40.0,9.0,20.0,-25.0,0.0
-27.0,-26.0,-123.0,-6.0,-6.0,26.0,-149.0,21.0,23.0,-18.0,0.0
-10.0,-23.0,-101.0,-10.0,-4.0,22.0,-185.0,23.0,20.0,-22.0,0.0
6.0,-21.0,16.0,-5.0,15.0,21.0,-134.0,15.0,3.0,-13.0,0.0
11.0,-25.0,15.0,7.0,37.0,11.0,-75.0,0.0,0.0,-10.0,0.0
8.0,-19.0,-13.0,29.0,32.0,-2.0,-33.0,-8.0,8.0,-21.0,0.0
6.0,-16.0,34.0,30.0,19.0,-5.0,28.0,-16.0,-5.0,-25.0,0.0
-10.0,-14.0,37.0,20.0,19.0,-16.0,81.0,-20.0,-14.0,-27.0,0.0
-9.0,-9.0,32.0,12.0,10.0,-7.0,124.0,-23.0,-2.0,-18.0,0.0
2.0,-17.0,32.0,-7.0,-2.0,-6.0,153.0,-20.0,-7.0,-13.0,0.0
7.0,-24.0,35.0,-23.0,-18.0,-19.0,123.0,-19.0,-10.0,-12.0,0.0
8.0,-13.0,23.0,-37.0,-27.0,-29.0,115.0,-2.0,5.0,-7.0,0.0
8.0,-9.0,8.0,-34.0,-39.0,-22.0,130.0,6.0,2.0,-6.0,0.0
5.0,-10.0,11.0,-3.0,-28.0,-18.0,119.0,1.0,-12.0,-5.0,0.0
1.0,-7.0,13.0,2.0,-10.0,-11.0,91.0,0.0,-13.0,-1.0,0.0
8.0,-4.0,14.0,7.0,1.0,-8.0,67.0,2.0,-18.0,-2.0,0.0
7.0,3.0,18.0,14.0,14.0,7.0,-13.0,2.0,-17.0,3.0,0.0
-11.0,-5.0,8.0,24.0,26.0,3.0,-132.0,-11.0,-25.0,8.0,0.0
-28.0,-8.0,15.0,25.0,23.0,-14.0,-208.0,-24.0,-40.0,-4.0,0.0
-28.0,5.0,20.0,26.0,2.0,-11.0,-192.0,-16.0,-26.0,2.0,0.0
-36.0,3.0,-51.0,14.0,-11.0,8.0,-145.0,-9.0,-21.0,7.0,0.0
-32.0,-6.0,-31.0,-17.0,-21.0,16.0,-109.0,-6.0,-8.0,-7.0,0.0
6.0,-2.0,13.0,-30.0,-21.0,5.0,-67.0,0.0,-12.0,-11.0,0.0
17.0,12.0,20.0,-18.0,-1.0,3.0,-19.0,0.0,-25.0,-4.0,0.0
12.0,2.0,33.0,-8.0,6.0,16.0,13.0,3.0,-4.0,3.0,0.0
4.0,-10.0,17.0,-6.0,-5.0,14.0,27.0,19.0,11.0,10.0,0.0
-6.0,-5.0,9.0,4.0,-8.0,4.0,47.0,29.0,14.0,8.0,0.0
-13.0,-4.0,3.0,1.0,5.0,1.0,83.0,18.0,6.0,-3.0,0.0
-3.0,-3.0,0.0,-8.0,4.0,-1.0,95.0,11.0,14.0,-13.0,0.0
5.0,-7.0,16.0,-18.0,-6.0,4.0,107.0,16.0,24.0,-1.0,0.0
12.0,-9.0,15.0,-24.0,-18.0,-6.0,123.0,16.0,15.0,4.0,0.0
14.0,-6.0,21.0,-16.0,-25.0,-15.0,114.0,13.0,7.0,-1.0,0.0
16.0,-11.0,23.0,2.0,0.0,-6.0,47.0,0.0,1.0,3.0,0.0
11.0,-20.0,11.0,-7.0,6.0,-1.0,-75.0,-16.0,18.0,9.0,0.0
-12.0,-24.0,-3.0,-5.0,20.0,4.0,-180.0,-35.0,11.0,-9.0,0.0
-14.0,-23.0,-13.0,13.0,46.0,32.0,-217.0,-38.0,-2.0,-14.0,0.0
-3.0,-14.0,-6.0,31.0,51.0,47.0,-180.0,-40.0,-8.0,-9.0,0.0
5.0,3.0,19.0,37.0,34.0,21.0,-105.0,-37.0,-17.0,-11.0,0.0
19.0,20.0,51.0,31.0,11.0,8.0,-36.0,-21.0,-16.0,-8.0,0.0
13.0,0.0,19.0,-7.0,-9.0,3.0,-4.0,-4.0,45.0,2.0,0.0
7.0,-17.0,-21.0,-45.0,-34.0,12.0,38.0,1.0,61.0,5.0,0.0
11.0,6.0,-15.0,-50.0,-33.0,-12.0,65.0,-14.0,21.0,8.0,0.0
6.0,9.0,7.0,-46.0,-26.0,-15.0,74.0,-25.0,-3.0,0.0,0.0
6.0,0.0,-4.0,-43.0,-20.0,0.0,82.0,-20.0,-12.0,5.0,0.0
6.0,1.0,-76.0,-43.0,-28.0,-5.0,61.0,-6.0,-22.0,9.0,0.0
10.0,7.0,-36.0,-40.0,-22.0,-24.0,50.0,-9.0,-18.0,5.0,0.0
14.0,2.0,11.0,-38.0,-6.0,-25.0,75.0,-33.0,-18.0,-4.0,0.0
15.0,6.0,10.0,-34.0,-1.0,-3.0,104.0,-43.0,-10.0,-16.0,0.0
15.0,15.0,7.0,-24.0,2.0,7.0,84.0,-33.0,-3.0,-9.0,0.0
11.0,20.0,14.0,-8.0,21.0,10.0,3.0,-21.0,-2.0,-3.0,0.0
-2.0,14.0,3.0,0.0,26.0,12.0,-75.0,-18.0,5.0,2.0,0.0
-4.0,12.0,-25.0,8.0,26.0,11.0,-154.0,-15.0,6.0,5.0,0.0
-6.0,7.0,24.0,25.0,28.0,16.0,-156.0,-18.0,10.0,-11.0,0.0
-17.0,5.0,21.0,31.0,33.0,14.0,-116.0,-14.0,22.0,-10.0,0.0
-39.0,0.0,1.0,21.0,26.0,19.0,-72.0,-25.0,14.0,1.0,0.0
-24.0,4.0,-57.0,8.0,17.0,24.0,-30.0,-23.0,-1.0,13.0,0.0
-3.0,13.0,-62.0,16.0,7.0,12.0,22.0,-23.0,-18.0,12.0,0.0
6.0,8.0,6.0,6.0,12.0,8.0,72.0,-12.0,-21.0,9.0,0.0
-3.0,0.0,-8.0,-2.0,15.0,0.0,96.0,2.0,-12.0,9.0,0.0
-8.0,6.0,7.0,-5.0,2.0,-17.0,87.0,-3.0,-24.0,12.0,0.0
-11.0,11.0,14.0,7.0,5.0,-11.0,67.0,-12.0,-18.0,6.0,0.0
-13.0,-4.0,4.0,16.0,17.0,-7.0,57.0,0.0,24.0,-18.0,0.0
-4.0,-12.0,9.0,16.0,29.0,-5.0,67.0,11.0,22.0,-23.0,0.0
-13.0,-3.0,1.0,6.0,27.0,15.0,71.0,24.0,4.0,-15.0,0.0
-18.0,11.0,0.0,5.0,13.0,53.0,73.0,33.0,-7.0,1.0,0.0
-1.0,12.0,8.0,4.0,12.0,58.0,30.0,29.0,-14.0,0.0,0.0
0.0,-3.0,3.0,6.0,37.0,73.0,-56.0,18.0,-28.0,-4.0,0.0
-2.0,-7.0,-3.0,5.0,40.0,74.0,-164.0,8.0,-28.0,-3.0,0.0
-5.0,-7.0,-8.0,-3.0,38.0,45.0,-192.0,1.0,18.0,1.0,0.0
-1.0,8.0,8.0,7.0,11.0,8.0,-148.0,-7.0,36.0,4.0,0.0
11.0,33.0,11.0,16.0,-19.0,-30.0,-115.0,-24.0,8.0,1.0,0.0
23.0,17.0,-13.0,-5.0,-27.0,-39.0,-83.0,-29.0,6.0,-6.0,0.0
11.0,10.0,-69.0,-13.0,-28.0,-27.0,-13.0,-31.0,-3.0,8.0,0.0
2.0,2.0,-141.0,0.0,-7.0,-3.0,34.0,-24.0,6.0,12.0,0.0
19.0,17.0,-67.0,7.0,-7.0,-11.0,89.0,2.0,47.0,21.0,0.0
35.0,33.0,-41.0,-1.0,-22.0,-27.0,120.0,12.0,60.0,24.0,0.0
43.0,31.0,13.0,-23.0,-20.0,-18.0,112.0,11.0,54.0,31.0,0.0
42.0,24.0,21.0,-24.0,-14.0,0.0,94.0,11.0,47.0,23.0,0.0
43.0,18.0,19.0,-17.0,-12.0,-4.0,100.0,10.0,39.0,6.0,0.0
40.0,24.0,26.0,-14.0,-25.0,-18.0,96.0,13.0,48.0,1.0,0.0
38.0,25.0,33.0,-6.0,-27.0,-30.0,93.0,10.0,32.0,12.0,0.0
33.0,22.0,36.0,-1.0,-27.0,-37.0,89.0,6.0,34.0,4.0,0.0
19.0,16.0,39.0,1.0,-21.0,-31.0,31.0,6.0,12.0,0.0,0.0
9.0,11.0,38.0,13.0,-4.0,0.0,-71.0,0.0,0.0,-2.0,0.0
4.0,7.0,6.0,29.0,9.0,17.0,-155.0,-11.0,-6.0,0.0,0.0
5.0,9.0,8.0,34.0,17.0,19.0,-159.0,-13.0,-8.0,7.0,0.0
3.0,1.0,21.0,41.0,18.0,20.0,-127.0,-16.0,-6.0,-2.0,0.0
15.0,8.0,29.0,43.0,16.0,17.0,-86.0,-21.0,1.0,-5.0,0.0
12.0,18.0,24.0,37.0,9.0,10.0,-55.0,-19.0,-9.0,1.0,0.0
7.0,18.0,23.0,19.0,4.0,-1.0,10.0,-3.0,-12.0,14.0,0.0
1.0,10.0,13.0,11.0,-4.0,-9.0,63.0,5.0,-16.0,7.0,0.0
-5.0,-5.0,4.0,15.0,-8.0,-7.0,122.0,0.0,-19.0,0.0,0.0
-8.0,4.0,0.0,17.0,-1.0,-6.0,154.0,3.0,-18.0,0.0,0.0
-4.0,8.0,-2.0,2.0,-3.0,4.0,122.0,5.0,-17.0,-1.0,0.0
-9.0,1.0,-5.0,10.0,11.0,13.0,95.0,0.0,-14.0,-12.0,0.0
-21.0,-6.0,-70.0,17.0,13.0,20.0,93.0,-2.0,-24.0,-13.0,0.0
-19.0,-14.0,-165.0,13.0,6.0,15.0,88.0,0.0,-18.0,-9.0,0.0
-1.0,-14.0,-173.0,20.0,16.0,11.0,109.0,10.0,0.0,-17.0,0.0
9.0,-2.0,-143.0,17.0,20.0,11.0,96.0,23.0,16.0,-11.0,0.0
6.0,1.0,-48.0,22.0,13.0,4.0,-14.0,24.0,20.0,8.0,0.0
-7.0,-2.0,20.0,16.0,13.0,7.0,-144.0,16.0,22.0,4.0,0.0
-11.0,-9.0,39.0,20.0,4.0,1.0,-212.0,10.0,4.0,-1.0,0.0
-3.0,-12.0,34.0,10.0,-10.0,4.0,-184.0,7.0,7.0,10.0,0.0
-3.0,-5.0,40.0,14.0,-21.0,14.0,-163.0,12.0,6.0,10.0,0.0
1.0,-6.0,42.0,20.0,-19.0,1.0,-129.0,7.0,0.0,9.0,0.0
24.0,-5.0,45.0,33.0,-23.0,-1.0,-85.0,-7.0,0.0,1.0,0.0
29.0,-4.0,2.0,21.0,-28.0,-2.0,-31.0,-15.0,-6.0,-2.0,0.0
26.0,-7.0,-42.0,23.0,-20.0,-2.0,36.0,-22.0,-12.0,-1.0,0.0
30.0,-3.0,14.0,20.0,-8.0,-6.0,66.0,-17.0,-11.0,8.0,0.0
17.0,-6.0,8.0,30.0,-3.0,-18.0,63.0,-15.0,-2.0,-1.0,0.0
-4.0,-3.0,28.0,26.0,-2.0,-13.0,59.0,-12.0,1.0,-6.0,0.0
1.0,6.0,28.0,9.0,-11.0,-20.0,61.0,-12.0,7.0,0.0,0.0
5.0,8.0,-54.0,0.0,-15.0,-20.0,78.0,-7.0,6.0,6.0,0.0
14.0,1.0,-42.0,5.0,7.0,-19.0,93.0,4.0,8.0,0.0,0.0
10.0,-5.0,27.0,8.0,18.0,-1.0,93.0,19.0,10.0,-4.0,0.0
7.0,-10.0,27.0,0.0,24.0,3.0,33.0,27.0,5.0,-10.0,0.0
14.0,-1.0,25.0,-4.0,19.0,12.0,-81.0,22.0,-12.0,-14.0,0.0
3.0,2.0,14.0,-4.0,13.0,16.0,-190.0,13.0,0.0,-21.0,0.0
-4.0,3.0,17.0,2.0,13.0,23.0,-229.0,-2.0,-13.0,-30.0,0.0
-7.0,-5.0,14.0,0.0,3.0,23.0,-190.0,-6.0,-27.0,-24.0,0.0
-7.0,-10.0,16.0,-2.0,1.0,13.0,-128.0,5.0,-17.0,-26.0,0.0
-8.0,0.0,23.0,0.0,-3.0,5.0,-80.0,14.0,-13.0,-20.0,0.0
-2.0,8.0,23.0,-7.0,-5.0,4.0,-34.0,20.0,-8.0,-14.0,0.0
0.0,1.0,-45.0,-15.0,-9.0,14.0,16.0,28.0,-3.0,-13.0,0.0
-2.0,-1.0,-137.0,0.0,-7.0,2.0,57.0,31.0,-8.0,-5.0,0.0
4.0,-9.0,-141.0,9.0,-4.0,-5.0,93.0,20.0,-18.0,-5.0,0.0
9.0,-12.0,-105.0,15.0,1.0,-6.0,121.0,17.0,-18.0,-6.0,0.0
12.0,3.0,13.0,0.0,-2.0,-22.0,107.0,12.0,-16.0,-12.0,0.0
8.0,13.0,54.0,0.0,3.0,-22.0,90.0,8.0,-17.0,-11.0,0.0
-14.0,0.0,31.0,5.0,16.0,-12.0,77.0,2.0,-25.0,-19.0,0.0
-21.0,-14.0,18.0,-7.0,10.0,-11.0,53.0,6.0,-6.0,-6.0,0.0
-19.0,-16.0,24.0,-17.0,-5.0,-23.0,33.0,9.0,6.0,4.0,0.0
-32.0,-14.0,27.0,-9.0,-1.0,-23.0,-32.0,4.0,-1.0,2.0,0.0
-32.0,-27.0,16.0,-10.0,7.0,-12.0,-132.0,9.0,-5.0,-4.0,0.0
-30.0,-23.0,16.0,-7.0,1.0,-7.0,-190.0,15.0,-1.0,-6.0,0.0
-41.0,-4.0,23.0,-5.0,8.0,-2.0,-151.0,2.0,-6.0,-8.0,0.0
-32.0,2.0,-5.0,5.0,7.0,-13.0,-94.0,5.0,0.0,-1.0,0.0
-28.0,-2.0,-95.0,0.0,2.0,-5.0,-58.0,17.0,0.0,7.0,0.0
-44.0,-26.0,-62.0,-16.0,-4.0,21.0,-46.0,22.0,0.0,10.0,0.0
-38.0,-35.0,17.0,-20.0,-9.0,12.0,-3.0,22.0,-5.0,6.0,0.0
-33.0,-24.0,-8.0,0.0,0.0,8.0,57.0,25.0,-15.0,-10.0,0.0
-36.0,-6.0,-36.0,-3.0,17.0,-2.0,101.0,28.0,-12.0,-4.0,0.0
-32.0,0.0,16.0,-9.0,30.0,-13.0,111.0,7.0,-17.0,0.0,0.0
-24.0,-2.0,29.0,1.0,35.0,-11.0,107.0,0.0,-25.0,-1.0,0.0
0.0,3.0,46.0,17.0,11.0,-18.0,108.0,-4.0,-16.0,5.0,0.0
10.0,23.0,12.0,11.0,-21.0,-29.0,103.0,-1.0,-10.0,8.0,0.0
-6.0,8.0,-54.0,-29.0,-40.0,-7.0,92.0,4.0,-16.0,15.0,0.0
-21.0,-6.0,-23.0,-56.0,-63.0,-2.0,99.0,20.0,-12.0,20.0,0.0
-19.0,-1.0,-34.0,-52.0,-53.0,-24.0,97.0,33.0,-14.0,30.0,0.0
-16.0,5.0,-4.0,-22.0,-37.0,-22.0,-8.0,32.0,-23.0,20.0,0.0
-9.0,15.0,47.0,-4.0,-15.0,7.0,-148.0,26.0,-15.0,25.0,0.0
-19.0,20.0,27.0,-5.0,0.0,6.0,-193.0,32.0,-3.0,8.0,0.0
-5.0,13.0,-12.0,4.0,3.0,12.0,-152.0,26.0,-8.0,4.0,0.0
2.0,6.0,23.0,16.0,11.0,25.0,-116.0,23.0,-2.0,-8.0,0.0
-8.0,-1.0,33.0,31.0,16.0,29.0,-95.0,7.0,-6.0,-13.0,0.0
-3.0,1.0,42.0,17.0,12.0,15.0,-67.0,5.0,-11.0,-11.0,0.0
0.0,12.0,47.0,13.0,-5.0,-22.0,-22.0,0.0,-13.0,-9.0,0.0
4.0,11.0,48.0,1.0,-1.0,-25.0,14.0,-13.0,-23.0,-32.0,0.0
7.0,-1.0,30.0,-4.0,-3.0,-19.0,12.0,-9.0,-36.0,-40.0,0.0
3.0,-8.0,-5.0,-7.0,-11.0,-22.0,36.0,2.0,-61.0,-41.0,0.0
6.0,-1.0,-69.0,-11.0,-15.0,-12.0,54.0,2.0,-46.0,-23.0,0.0
20.0,2.0,-55.0,-13.0,-27.0,-6.0,48.0,15.0,56.0,17.0,0.0
35.0,7.0,25.0,-18.0,-26.0,10.0,44.0,21.0,64.0,34.0,0.0
26.0,3.0,37.0,-19.0,-19.0,28.0,48.0,23.0,36.0,31.0,0.0
21.0,2.0,4.0,-21.0,-13.0,21.0,35.0,17.0,17.0,26.0,0.0
23.0,-2.0,-83.0,-19.0,-3.0,8.0,-25.0,3.0,12.0,16.0,0.0
11.0,2.0,-13.0,-11.0,2.0,13.0,-130.0,-11.0,-14.0,17.0,0.0
19.0,4.0,35.0,0.0,9.0,23.0,-223.0,-19.0,-35.0,1.0,0.0
34.0,7.0,0.0,7.0,14.0,21.0,-227.0,-10.0,-27.0,6.0,0.0
35.0,23.0,-46.0,19.0,4.0,15.0,-170.0,1.0,-15.0,11.0,0.0
28.0,18.0,-7.0,30.0,18.0,4.0,-137.0,-3.0,-44.0,-2.0,0.0
16.0,-4.0,-65.0,15.0,36.0,10.0,-109.0,-12.0,-10.0,-8.0,0.0
-13.0,-32.0,-1.0,2.0,34.0,7.0,-63.0,-13.0,75.0,-9.0,0.0
-8.0,-39.0,33.0,26.0,41.0,7.0,13.0,-16.0,32.0,-21.0,0.0
6.0,-23.0,45.0,45.0,22.0,5.0,79.0,-10.0,-5.0,-13.0,0.0
5.0,-9.0,-14.0,32.0,-4.0,10.0,93.0,-5.0,-1.0,-2.0,0.0
-5.0,-16.0,-13.0,0.0,-14.0,23.0,83.0,0.0,3.0,-5.0,0.0
-7.0,-24.0,21.0,-20.0,-31.0,0.0,88.0,9.0,10.0,-13.0,0.0
-5.0,-6.0,30.0,-24.0,-31.0,-13.0,94.0,5.0,18.0,-8.0,0.0
-2.0,1.0,41.0,-16.0,-27.0,-12.0,91.0,0.0,8.0,-1.0,0.0
9.0,0.0,37.0,-21.0,-28.0,-9.0,53.0,-10.0,4.0,2.0,0.0
8.0,3.0,-13.0,-42.0,-25.0,29.0,15.0,-10.0,-2.0,0.0,0.0
17.0,3.0,-109.0,-51.0,-37.0,40.0,-68.0,-1.0,4.0,16.0,0.0
28.0,20.0,-98.0,-38.0,-42.0,14.0,-171.0,4.0,22.0,26.0,0.0
12.0,27.0,-12.0,-25.0,-42.0,-13.0,-241.0,-5.0,22.0,40.0,0.0
9.0,21.0,42.0,-8.0,-38.0,-2.0,-218.0,-12.0,6.0,25.0,0.0
-1.0,19.0,39.0,2.0,-36.0,4.0,-172.0,-15.0,-15.0,9.0,0.0
2.0,20.0,40.0,7.0,-35.0,-4.0,-145.0,-26.0,-20.0,0.0,0.0
7.0,22.0,45.0,10.0,-21.0,13.0,-99.0,-33.0,-8.0,4.0,0.0
0.0,18.0,17.0,14.0,14.0,35.0,-33.0,-19.0,-2.0,-4.0,0.0
-12.0,8.0,18.0,12.0,38.0,52.0,13.0,-10.0,-6.0,-3.0,0.0
-29.0,-22.0,52.0,31.0,48.0,0.0,17.0,-17.0,-26.0,-23.0,0.0
-57.0,-56.0,33.0,42.0,49.0,-66.0,-8.0,-41.0,-56.0,-56.0,0.0
-80.0,-77.0,-14.0,17.0,49.0,-99.0,-43.0,-64.0,-87.0,-79.0,0.0
-86.0,-80.0,-86.0,-3.0,48.0,-104.0,-53.0,-96.0,-110.0,-77.0,0.0
-71.0,-69.0,-38.0,-8.0,62.0,-66.0,-34.0,-102.0,-90.0,-63.0,0.0
-26.0,-21.0,18.0,-9.0,49.0,26.0,8.0,-55.0,-22.0,-19.0,0.0
60.0,50.0,61.0,13.0,12.0,102.0,54.0,20.0,57.0,66.0,0.0
120.0,99.0,99.0,21.0,-37.0,70.0,47.0,55.0,102.0,116.0,0.0
107.0,81.0,77.0,-14.0,-66.0,-22.0,-72.0,20.0,73.0,98.0,0.0
56.0,42.0,29.0,-36.0,-64.0,-37.0,-229.0,10.0,43.0,72.0,0.0
30.0,10.0,-8.0,-49.0,-70.0,-35.0,-275.0,20.0,39.0,46.0,0.0
21.0,1.0,-23.0,-37.0,-59.0,-20.0,-254.0,32.0,38.0,16.0,0.0
7.0,-1.0,14.0,-5.0,-14.0,3.0,-207.0,20.0,12.0,5.0,0.0
2.0,-12.0,10.0,-6.0,15.0,4.0,-149.0,4.0,-1.0,3.0,0.0
3.0,-12.0,8.0,-19.0,12.0,4.0,-80.0,2.0,-1.0,1.0,0.0
6.0,-4.0,8.0,-14.0,6.0,4.0,-12.0,1.0,9.0,13.0,0.0
10.0,2.0,18.0,-2.0,16.0,-12.0,28.0,-5.0,25.0,6.0,0.0
0.0,2.0,8.0,-5.0,26.0,-9.0,37.0,-10.0,23.0,-13.0,0.0
-14.0,-10.0,-9.0,-9.0,34.0,6.0,20.0,-15.0,13.0,-16.0,0.0
-18.0,-12.0,-68.0,3.0,31.0,-7.0,16.0,-7.0,-1.0,-26.0,0.0
-16.0,-11.0,-70.0,13.0,16.0,-19.0,24.0,6.0,4.0,-17.0,0.0
-5.0,0.0,-12.0,5.0,18.0,-10.0,55.0,6.0,1.0,-15.0,0.0
-9.0,11.0,-10.0,0.0,26.0,-16.0,61.0,-4.0,-6.0,-20.0,0.0
-6.0,4.0,-13.0,-15.0,13.0,-32.0,44.0,-30.0,4.0,-18.0,0.0
-5.0,-11.0,-20.0,-34.0,5.0,-13.0,-2.0,-34.0,6.0,-12.0,0.0
-12.0,-26.0,-29.0,-26.0,24.0,21.0,-86.0,-29.0,-1.0,-30.0,0.0
-9.0,-23.0,-18.0,-10.0,38.0,42.0,-165.0,-26.0,-4.0,-44.0,0.0
-6.0,-14.0,-10.0,4.0,54.0,47.0,-161.0,-19.0,1.0,-42.0,0.0
1.0,-7.0,-36.0,30.0,45.0,27.0,-110.0,-2.0,17.0,-21.0,0.0
20.0,12.0,0.0,37.0,9.0,-28.0,-34.0,6.0,23.0,12.0,0.0
15.0,23.0,41.0,38.0,0.0,-48.0,27.0,11.0,30.0,19.0,0.0
8.0,11.0,30.0,22.0,16.0,-18.0,71.0,8.0,24.0,9.0,0.0
-7.0,9.0,19.0,3.0,17.0,9.0,92.0,7.0,19.0,5.0,0.0
-21.0,8.0,6.0,-1.0,19.0,18.0,122.0,20.0,43.0,3.0,0.0
-17.0,-4.0,5.0,-8.0,24.0,16.0,137.0,22.0,24.0,14.0,0.0
-16.0,1.0,12.0,-3.0,41.0,28.0,118.0,24.0,22.0,8.0,0.0
-34.0,13.0,-12.0,12.0,36.0,17.0,130.0,19.0,6.0,4.0,0.0
-47.0,16.0,-99.0,12.0,18.0,2.0,160.0,13.0,-5.0,-8.0,0.0
-45.0,10.0,-103.0,-13.0,-2.0,-3.0,147.0,8.0,-23.0,-16.0,0.0
-44.0,8.0,-27.0,-35.0,-34.0,-7.0,137.0,3.0,-14.0,-22.0,0.0
-51.0,20.0,1.0,-20.0,-50.0,-26.0,88.0,10.0,-15.0,-15.0,0.0
-40.0,17.0,-38.0,-1.0,-44.0,-32.0,-18.0,14.0,0.0,-13.0,0.0
-29.0,20.0,5.0,-7.0,-34.0,-33.0,-121.0,26.0,11.0,-9.0,0.0
-12.0,24.0,32.0,-6.0,-18.0,-32.0,-165.0,32.0,5.0,0.0,0.0
1.0,16.0,45.0,-8.0,-6.0,-24.0,-126.0,33.0,10.0,-1.0,0.0
8.0,14.0,40.0,-3.0,-8.0,-23.0,-72.0,30.0,2.0,-3.0,0.0
-11.0,12.0,24.0,6.0,-1.0,-21.0,-43.0,22.0,1.0,-9.0,0.0
-19.0,13.0,0.0,8.0,2.0,-31.0,-9.0,25.0,1.0,-17.0,0.0
-28.0,0.0,-82.0,1.0,1.0,-26.0,32.0,14.0,-19.0,-17.0,0.0
-31.0,-3.0,-30.0,-11.0,0.0,-14.0,79.0,19.0,-16.0,-22.0,0.0
-23.0,0.0,-20.0,-15.0,-4.0,-9.0,128.0,18.0,-6.0,-20.0,0.0
-3.0,3.0,-114.0,-2.0,-12.0,-8.0,149.0,19.0,-5.0,-9.0,0.0
5.0,5.0,-61.0,0.0,-9.0,-12.0,135.0,20.0,10.0,-6.0,0.0
-1.0,15.0,27.0,1.0,-8.0,-9.0,142.0,27.0,11.0,2.0,0.0
-7.0,27.0,18.0,1.0,-3.0,-6.0,146.0,34.0,1.0,-1.0,0.0
0.0,19.0,30.0,7.0,1.0,-18.0,126.0,24.0,-6.0,-9.0,0.0
6.0,13.0,43.0,8.0,4.0,-16.0,110.0,11.0,-10.0,-15.0,0.0
-3.0,-3.0,47.0,14.0,10.0,-1.0,92.0,-5.0,-8.0,-21.0,0.0
-8.0,-5.0,51.0,22.0,22.0,7.0,46.0,-17.0,-9.0,-12.0,0.0
-2.0,-10.0,58.0,25.0,22.0,0.0,-54.0,-17.0,-19.0,-7.0,0.0
8.0,-2.0,82.0,28.0,7.0,-7.0,-88.0,-20.0,-21.0,-2.0,0.0
13.0,-3.0,72.0,27.0,-1.0,5.0,-69.0,-14.0,-20.0,6.0,0.0
-2.0,-3.0,39.0,11.0,-14.0,15.0,-47.0,-7.0,-14.0,7.0,0.0
-4.0,11.0,29.0,7.0,-19.0,0.0,-3.0,-3.0,0.0,3.0,0.0
4.0,13.0,34.0,11.0,-9.0,8.0,54.0,-3.0,4.0,6.0,0.0
10.0,5.0,10.0,14.0,5.0,11.0,129.0,4.0,17.0,-4.0,0.0
4.0,5.0,2.0,23.0,11.0,17.0,179.0,11.0,12.0,-13.0,0.0
-3.0,3.0,9.0,18.0,15.0,25.0,188.0,4.0,-3.0,-6.0,0.0
-7.0,-4.0,14.0,13.0,15.0,16.0,176.0,0.0,-16.0,4.0,0.0
-9.0,-12.0,12.0,7.0,17.0,23.0,158.0,5.0,-20.0,-5.0,0.0
-12.0,-16.0,-2.0,9.0,19.0,23.0,155.0,7.0,-15.0,-15.0,0.0
-18.0,-6.0,-7.0,16.0,8.0,3.0,146.0,-5.0,-8.0,-12.0,0.0
-12.0,10.0,7.0,4.0,-9.0,-6.0,141.0,0.0,7.0,1.0,0.0
-1.0,10.0,6.0,-2.0,-18.0,-11.0,121.0,14.0,0.0,7.0,0.0
11.0,-3.0,6.0,-16.0,-19.0,-18.0,44.0,25.0,-15.0,16.0,0.0
2.0,-10.0,8.0,-22.0,-26.0,-16.0,-76.0,17.0,-15.0,8.0,0.0
-9.0,-11.0,4.0,-14.0,-18.0,-3.0,-153.0,9.0,-12.0,0.0,0.0
-3.0,3.0,-44.0,-7.0,-11.0,3.0,-138.0,-1.0,-6.0,9.0,0.0
12.0,12.0,-5.0,1.0,-9.0,3.0,-65.0,-17.0,-3.0,12.0,0.0
15.0,15.0,19.0,2.0,-11.0,0.0,-29.0,-18.0,-12.0,16.0,0.0
8.0,14.0,9.0,2.0,-2.0,8.0,-8.0,-13.0,-3.0,10.0,0.0
-3.0,9.0,0.0,-4.0,-1.0,10.0,23.0,-15.0,0.0,3.0,0.0
-2.0,1.0,-6.0,1.0,0.0,4.0,73.0,-17.0,-8.0,5.0,0.0
-2.0,9.0,-50.0,8.0,3.0,-1.0,110.0,-16.0,-14.0,10.0,0.0
-2.0,17.0,-19.0,0.0,-5.0,-9.0,127.0,-26.0,-18.0,13.0,0.0
10.0,15.0,-6.0,-9.0,-14.0,-21.0,111.0,-22.0,-14.0,8.0,0.0
10.0,-5.0,-13.0,-28.0,-13.0,-9.0,90.0,5.0,-12.0,7.0,0.0
17.0,-15.0,-20.0,-41.0,-13.0,2.0,85.0,7.0,2.0,4.0,0.0
24.0,-8.0,-85.0,-51.0,-20.0,-8.0,104.0,-3.0,9.0,4.0,0.0
26.0,6.0,-101.0,-33.0,-6.0,-17.0,129.0,-9.0,3.0,12.0,0.0
24.0,3.0,-42.0,-22.0,-2.0,-18.0,104.0,-11.0,5.0,17.0,0.0
29.0,3.0,-86.0,-29.0,-2.0,-23.0,0.0,-20.0,15.0,14.0,0.0
26.0,8.0,0.0,-19.0,-5.0,-25.0,-111.0,-25.0,23.0,25.0,0.0
16.0,11.0,34.0,-5.0,0.0,-19.0,-128.0,-38.0,9.0,20.0,0.0
6.0,14.0,36.0,8.0,23.0,0.0,-81.0,-43.0,3.0,13.0,0.0
10.0,19.0,37.0,24.0,60.0,-2.0,-60.0,-54.0,-2.0,9.0,0.0
11.0,18.0,-31.0,45.0,83.0,-5.0,-44.0,-45.0,-8.0,-3.0,0.0
7.0,8.0,-2.0,56.0,80.0,-8.0,-11.0,-40.0,-14.0,-21.0,0.0
0.0,8.0,37.0,59.0,48.0,2.0,29.0,-40.0,-14.0,-30.0,0.0
5.0,6.0,34.0,33.0,13.0,35.0,79.0,-28.0,-7.0,-20.0,0.0
9.0,-7.0,-83.0,-2.0,-3.0,56.0,99.0,-6.0,-6.0,-18.0,0.0
18.0,-15.0,-146.0,-32.0,-37.0,24.0,92.0,6.0,13.0,1.0,0.0
19.0,-11.0,-57.0,-43.0,-54.0,-1.0,78.0,29.0,45.0,21.0,0.0
18.0,7.0,22.0,-18.0,-39.0,-12.0,72.0,20.0,23.0,31.0,0.0
19.0,14.0,45.0,-12.0,-34.0,-25.0,82.0,14.0,19.0,34.0,0.0
13.0,1.0,36.0,-19.0,-32.0,-16.0,62.0,10.0,19.0,19.0,0.0
4.0,-4.0,-65.0,-22.0,-33.0,-10.0,20.0,4.0,4.0,1.0,0.0
2.0,-2.0,-127.0,-31.0,-35.0,-19.0,-36.0,5.0,-1.0,-11.0,0.0
7.0,8.0,-65.0,-7.0,-32.0,-29.0,-125.0,-11.0,-7.0,-7.0,0.0
10.0,12.0,55.0,15.0,-22.0,-29.0,-210.0,-21.0,-15.0,-1.0,0.0
5.0,8.0,77.0,14.0,-10.0,-20.0,-232.0,-16.0,-9.0,0.0,0.0
-5.0,-7.0,70.0,9.0,-7.0,-3.0,-207.0,-9.0,-2.0,-10.0,0.0
-8.0,-15.0,54.0,8.0,-3.0,0.0,-178.0,-9.0,-15.0,-21.0,0.0
1.0,-11.0,51.0,-4.0,7.0,1.0,-151.0,-16.0,-37.0,-26.0,0.0
2.0,-8.0,-20.0,16.0,20.0,34.0,-85.0,-30.0,-35.0,-23.0,0.0
8.0,0.0,-93.0,30.0,12.0,28.0,-1.0,-12.0,-23.0,-15.0,0.0
15.0,15.0,0.0,36.0,-7.0,-5.0,77.0,15.0,-2.0,0.0,0.0
-4.0,2.0,60.0,27.0,-20.0,-24.0,101.0,14.0,62.0,6.0,0.0
-20.0,-28.0,44.0,12.0,-21.0,-28.0,53.0,0.0,40.0,-15.0,0.0
-28.0,-27.0,34.0,11.0,-5.0,-12.0,36.0,-5.0,-8.0,-25.0,0.0
-20.0,-20.0,28.0,7.0,-1.0,-4.0,39.0,0.0,-9.0,-21.0,0.0
5.0,7.0,47.0,26.0,-12.0,-20.0,70.0,1.0,-1.0,-4.0,0.0
29.0,35.0,66.0,52.0,-15.0,-36.0,84.0,9.0,3.0,18.0,0.0
25.0,23.0,54.0,47.0,-29.0,-55.0,26.0,5.0,63.0,39.0,0.0
20.0,17.0,28.0,24.0,-35.0,-50.0,-80.0,-10.0,48.0,38.0,0.0
18.0,4.0,34.0,-4.0,-29.0,-13.0,-202.0,-10.0,10.0,28.0,0.0
3.0,-2.0,15.0,-19.0,-31.0,26.0,-258.0,-2.0,12.0,24.0,0.0
-5.0,-1.0,16.0,0.0,-15.0,33.0,-233.0,-3.0,23.0,10.0,0.0
-8.0,-2.0,16.0,17.0,24.0,44.0,-169.0,-20.0,11.0,-1.0,0.0
-24.0,-9.0,4.0,22.0,49.0,74.0,-131.0,-20.0,-9.0,5.0,0.0
-20.0,-7.0,2.0,24.0,45.0,76.0,-95.0,-11.0,-23.0,3.0,0.0
-5.0,0.0,0.0,28.0,22.0,59.0,-50.0,-6.0,-15.0,-8.0,0.0
5.0,13.0,0.0,17.0,9.0,29.0,-10.0,2.0,-7.0,-7.0,0.0
12.0,26.0,-89.0,-6.0,-11.0,-22.0,6.0,4.0,2.0,17.0,0.0
7.0,11.0,-132.0,-27.0,-51.0,-62.0,24.0,24.0,25.0,15.0,0.0
0.0,2.0,-18.0,-33.0,-62.0,-62.0,6.0,25.0,30.0,10.0,0.0
-5.0,11.0,21.0,-14.0,-33.0,-55.0,-5.0,11.0,25.0,4.0,0.0
0.0,9.0,3.0,-5.0,-16.0,-49.0,-2.0,3.0,7.0,6.0,0.0
-3.0,4.0,5.0,1.0,-9.0,-40.0,3.0,11.0,4.0,9.0,0.0
-5.0,14.0,16.0,-1.0,-8.0,-32.0,3.0,13.0,6.0,0.0,0.0
-5.0,22.0,13.0,-2.0,0.0,-18.0,-40.0,11.0,9.0,-5.0,0.0
-10.0,21.0,15.0,9.0,15.0,-11.0,-151.0,-3.0,-11.0,-3.0,0.0
-22.0,8.0,21.0,11.0,10.0,-3.0,-226.0,-20.0,-16.0,-11.0,0.0
-19.0,0.0,27.0,8.0,-1.0,-1.0,-222.0,-21.0,-19.0,-18.0,0.0
-19.0,5.0,21.0,10.0,0.0,-1.0,-167.0,-20.0,-20.0,-22.0,0.0
-29.0,1.0,22.0,-2.0,2.0,4.0,-123.0,-16.0,-16.0,-19.0,0.0
-23.0,-6.0,24.0,-4.0,0.0,15.0,-90.0,-23.0,-27.0,-25.0,0.0
-33.0,-21.0,18.0,5.0,-18.0,12.0,-48.0,-16.0,-28.0,-23.0,0.0
-41.0,-17.0,21.0,1.0,-34.0,0.0,2.0,-11.0,-13.0,-5.0,0.0
-40.0,-5.0,14.0,7.0,-33.0,-25.0,30.0,-9.0,-5.0,4.0,0.0
-24.0,-4.0,2.0,-4.0,-33.0,-39.0,45.0,-2.0,0.0,4.0,0.0
-27.0,-9.0,-6.0,-17.0,-40.0,-39.0,51.0,17.0,18.0,-3.0,0.0
-44.0,-14.0,-18.0,-26.0,-40.0,-22.0,43.0,18.0,2.0,1.0,0.0
-47.0,-30.0,-62.0,-27.0,-6.0,36.0,35.0,12.0,1.0,-5.0,0.0
-43.0,-22.0,-100.0,-36.0,33.0,85.0,49.0,12.0,0.0,-10.0,0.0
-30.0,-1.0,-29.0,-29.0,49.0,112.0,56.0,15.0,11.0,-17.0,0.0
-30.0,-2.0,-42.0,-20.0,45.0,110.0,26.0,4.0,-2.0,-20.0,0.0
-29.0,-10.0,-47.0,-19.0,21.0,86.0,-39.0,-15.0,-10.0,-19.0,0.0
-10.0,0.0,-1.0,-23.0,-4.0,44.0,-116.0,-21.0,-3.0,-14.0,0.0
0.0,17.0,22.0,-8.0,-29.0,-6.0,-141.0,-11.0,16.0,5.0,0.0
9.0,24.0,17.0,2.0,-41.0,-35.0,-118.0,0.0,37.0,24.0,0.0
14.0,29.0,31.0,16.0,-24.0,-31.0,-100.0,6.0,38.0,28.0,0.0
27.0,25.0,33.0,21.0,-16.0,-38.0,-75.0,7.0,27.0,30.0,0.0
32.0,23.0,36.0,20.0,0.0,-29.0,-33.0,10.0,42.0,32.0,0.0
16.0,23.0,28.0,16.0,8.0,1.0,15.0,16.0,42.0,27.0,0.0
-3.0,6.0,14.0,19.0,23.0,4.0,53.0,13.0,32.0,17.0,0.0
0.0,10.0,19.0,16.0,29.0,-9.0,66.0,6.0,16.0,21.0,0.0
-3.0,26.0,22.0,20.0,17.0,-18.0,94.0,15.0,17.0,22.0,0.0
-1.0,20.0,11.0,8.0,7.0,-1.0,95.0,21.0,14.0,17.0,0.0
-4.0,-6.0,-7.0,-7.0,3.0,24.0,87.0,20.0,17.0,9.0,0.0
-12.0,-17.0,-34.0,-9.0,8.0,16.0,69.0,2.0,16.0,2.0,0.0
-16.0,-22.0,-49.0,1.0,39.0,13.0,71.0,-5.0,0.0,3.0,0.0
-13.0,-14.0,-66.0,16.0,58.0,23.0,86.0,-11.0,-14.0,0.0,0.0
-11.0,-7.0,-68.0,27.0,58.0,25.0,70.0,-15.0,-21.0,1.0,0.0
-4.0,7.0,-77.0,26.0,31.0,7.0,-28.0,-11.0,-2.0,12.0,0.0
2.0,16.0,12.0,29.0,-6.0,-22.0,-126.0,-18.0,7.0,25.0,0.0
9.0,6.0,35.0,19.0,-37.0,-31.0,-149.0,-19.0,2.0,26.0,0.0
-17.0,-4.0,6.0,1.0,-59.0,-4.0,-101.0,-4.0,7.0,22.0,0.0
-29.0,-17.0,-74.0,-11.0,-53.0,18.0,-59.0,16.0,16.0,14.0,0.0
-39.0,-22.0,-79.0,0.0,-22.0,-9.0,-53.0,11.0,15.0,10.0,0.0
-49.0,-31.0,0.0,5.0,6.0,-38.0,-48.0,1.0,-6.0,-14.0,0.0
-55.0,-42.0,-4.0,-2.0,16.0,-47.0,0.0,-22.0,-27.0,-35.0,0.0
-49.0,-44.0,-10.0,-11.0,15.0,-21.0,43.0,-27.0,-27.0,-45.0,0.0
-37.0,-28.0,3.0,-23.0,14.0,47.0,88.0,-11.0,-17.0,-27.0,0.0
8.0,10.0,26.0,-13.0,16.0,103.0,119.0,21.0,22.0,10.0,0.0
31.0,50.0,-39.0,2.0,20.0,109.0,138.0,66.0,58.0,50.0,0.0
17.0,37.0,-59.0,-11.0,-2.0,57.0,127.0,82.0,37.0,45.0,0.0
20.0,30.0,18.0,-17.0,-27.0,27.0,110.0,76.0,44.0,23.0,0.0
30.0,27.0,31.0,-28.0,-43.0,-4.0,121.0,75.0,33.0,30.0,0.0
14.0,17.0,34.0,-30.0,-43.0,-19.0,95.0,70.0,32.0,20.0,0.0
9.0,10.0,32.0,-21.0,-43.0,-27.0,17.0,44.0,1.0,2.0,0.0
20.0,3.0,-6.0,-12.0,-26.0,-18.0,-66.0,28.0,-12.0,2.0,0.0
23.0,-3.0,-106.0,8.0,-15.0,8.0,-138.0,36.0,-12.0,-3.0,0.0
14.0,-11.0,-83.0,27.0,-15.0,18.0,-132.0,34.0,-17.0,-5.0,0.0
4.0,-21.0,-15.0,31.0,-11.0,10.0,-79.0,21.0,-26.0,-17.0,0.0
12.0,-20.0,-48.0,32.0,-5.0,20.0,-39.0,22.0,-23.0,-20.0,0.0
5.0,-20.0,-34.0,17.0,-8.0,31.0,-4.0,25.0,-9.0,-10.0,0.0
3.0,-12.0,27.0,10.0,-12.0,26.0,38.0,28.0,-3.0,1.0,0.0
11.0,-3.0,67.0,13.0,-8.0,24.0,89.0,39.0,4.0,15.0,0.0
1.0,-9.0,61.0,3.0,-16.0,8.0,119.0,38.0,12.0,9.0,0.0
7.0,-19.0,48.0,0.0,-28.0,0.0,147.0,33.0,2.0,2.0,0.0
24.0,-11.0,44.0,-15.0,-43.0,-10.0,157.0,25.0,5.0,2.0,0.0
30.0,-6.0,55.0,-24.0,-42.0,-26.0,159.0,10.0,0.0,1.0,0.0
27.0,-9.0,69.0,-20.0,-31.0,-38.0,155.0,0.0,-8.0,1.0,0.0
24.0,0.0,58.0,0.0,-8.0,-43.0,144.0,12.0,-5.0,8.0,0.0
29.0,6.0,52.0,22.0,11.0,-39.0,120.0,19.0,-10.0,16.0,0.0
28.0,2.0,47.0,18.0,21.0,-45.0,68.0,0.0,-21.0,23.0,0.0
16.0,-8.0,41.0,23.0,31.0,-30.0,-27.0,-14.0,-43.0,-6.0,0.0
19.0,-6.0,44.0,15.0,26.0,-1.0,-141.0,-39.0,-36.0,-9.0,0.0
10.0,-4.0,29.0,15.0,35.0,31.0,-168.0,-40.0,-1.0,0.0,0.0
-3.0,-5.0,20.0,20.0,53.0,34.0,-128.0,-25.0,9.0,3.0,0.0
8.0,-9.0,31.0,27.0,61.0,35.0,-88.0,-16.0,4.0,1.0,0.0
14.0,-3.0,41.0,27.0,69.0,49.0,-60.0,-6.0,2.0,-7.0,0.0
24.0,15.0,66.0,42.0,37.0,29.0,-17.0,0.0,3.0,7.0,0.0
28.0,29.0,71.0,37.0,3.0,8.0,20.0,-7.0,-6.0,17.0,0.0
10.0,14.0,-50.0,0.0,10.0,8.0,38.0,-14.0,-16.0,8.0,0.0
-12.0,-15.0,-173.0,-25.0,-1.0,15.0,37.0,0.0,-20.0,-16.0,0.0
-23.0,-11.0,-108.0,-41.0,-4.0,7.0,52.0,19.0,-29.0,-13.0,0.0
-9.0,5.0,19.0,-35.0,6.0,-4.0,65.0,6.0,-12.0,-2.0,0.0
-17.0,5.0,5.0,-46.0,-10.0,4.0,55.0,3.0,-7.0,-10.0,0.0
-23.0,-20.0,-120.0,-84.0,-45.0,11.0,34.0,15.0,-7.0,-14.0,0.0
6.0,-13.0,-70.0,-92.0,-68.0,15.0,55.0,36.0,12.0,12.0,0.0
41.0,11.0,15.0,-70.0,-68.0,-7.0,80.0,30.0,38.0,42.0,0.0
36.0,19.0,-8.0,-48.0,-64.0,-28.0,14.0,7.0,34.0,27.0,0.0
25.0,11.0,20.0,-38.0,-39.0,-24.0,-114.0,3.0,23.0,15.0,0.0
29.0,9.0,34.0,-21.0,-8.0,-13.0,-197.0,8.0,20.0,16.0,0.0
27.0,7.0,40.0,-16.0,-3.0,-6.0,-195.0,2.0,13.0,27.0,0.0
14.0,7.0,50.0,-8.0,-6.0,-4.0,-152.0,-16.0,1.0,19.0,0.0
10.0,-3.0,42.0,0.0,5.0,3.0,-119.0,-25.0,0.0,13.0,0.0
11.0,1.0,42.0,8.0,13.0,2.0,-95.0,-26.0,-10.0,1.0,0.0
18.0,4.0,48.0,22.0,25.0,-3.0,-34.0,-31.0,-17.0,-3.0,0.0
13.0,7.0,24.0,8.0,28.0,-1.0,23.0,-42.0,-26.0,-14.0,0.0
16.0,-6.0,-79.0,-3.0,22.0,0.0,59.0,-44.0,-23.0,-13.0,0.0
33.0,-14.0,-84.0,-5.0,23.0,3.0,68.0,-53.0,-39.0,-12.0,0.0
26.0,-5.0,17.0,7.0,36.0,16.0,69.0,-44.0,-60.0,-9.0,0.0
19.0,1.0,-25.0,15.0,27.0,19.0,71.0,-35.0,-34.0,10.0,0.0
13.0,13.0,-71.0,3.0,15.0,11.0,75.0,-29.0,30.0,26.0,0.0
0.0,5.0,-26.0,-9.0,22.0,3.0,95.0,-22.0,44.0,18.0,0.0
-4.0,-16.0,-23.0,-35.0,12.0,5.0,106.0,-29.0,22.0,16.0,0.0
-8.0,-30.0,-13.0,-42.0,2.0,10.0,81.0,-20.0,55.0,0.0,0.0
-16.0,-30.0,32.0,-38.0,0.0,21.0,-5.0,-19.0,37.0,-4.0,0.0
-24.0,-36.0,43.0,-18.0,-4.0,11.0,-103.0,-29.0,9.0,-13.0,0.0
-5.0,-26.0,29.0,-12.0,-3.0,-9.0,-168.0,-31.0,0.0,-16.0,0.0
4.0,-7.0,-67.0,-4.0,-9.0,-18.0,-150.0,-27.0,-29.0,2.0,0.0
5.0,-3.0,-87.0,7.0,-5.0,-11.0,-83.0,-22.0,-33.0,-6.0,0.0
1.0,-3.0,15.0,7.0,15.0,10.0,-46.0,-21.0,-34.0,-12.0,0.0
4.0,-2.0,64.0,9.0,30.0,22.0,-7.0,-35.0,-50.0,-3.0,0.0
4.0,0.0,62.0,22.0,53.0,44.0,37.0,-35.0,-47.0,-5.0,0.0
-7.0,-10.0,-15.0,0.0,55.0,50.0,91.0,-31.0,37.0,1.0,0.0
-24.0,-31.0,-107.0,-15.0,49.0,73.0,103.0,-9.0,65.0,6.0,0.0
-25.0,-21.0,-9.0,-10.0,50.0,59.0,91.0,0.0,62.0,10.0,0.0
-4.0,-3.0,62.0,5.0,29.0,8.0,92.0,-9.0,40.0,26.0,0.0
6.0,6.0,59.0,4.0,22.0,-5.0,112.0,-11.0,15.0,24.0,0.0
3.0,0.0,57.0,5.0,21.0,4.0,122.0,-24.0,-2.0,10.0,0.0
7.0,-6.0,53.0,-4.0,3.0,-21.0,118.0,-29.0,11.0,0.0,0.0
4.0,-3.0,23.0,-2.0,7.0,-33.0,121.0,-28.0,9.0,-12.0,0.0
-5.0,-10.0,-83.0,13.0,30.0,-10.0,72.0,-24.0,0.0,-18.0,0.0
-18.0,-2.0,-128.0,29.0,39.0,-26.0,-56.0,-16.0,-2.0,-13.0,0.0
-17.0,16.0,-92.0,19.0,26.0,-39.0,-160.0,-3.0,-7.0,-10.0,0.0
-14.0,19.0,34.0,18.0,6.0,-23.0,-159.0,6.0,3.0,-7.0,0.0
-20.0,15.0,86.0,20.0,3.0,-3.0,-113.0,8.0,2.0,-11.0,0.0
-23.0,4.0,69.0,3.0,-8.0,0.0,-100.0,20.0,0.0,-18.0,0.0
-2.0,7.0,63.0,-19.0,-22.0,-9.0,-71.0,15.0,4.0,-9.0,0.0
12.0,23.0,59.0,-9.0,-19.0,-22.0,-11.0,1.0,-5.0,8.0,0.0
10.0,22.0,40.0,3.0,-12.0,-48.0,52.0,-6.0,-8.0,7.0,0.0
5.0,8.0,40.0,-9.0,-7.0,-69.0,78.0,-4.0,-14.0,2.0,0.0
0.0,-5.0,36.0,-7.0,2.0,-64.0,84.0,-2.0,-23.0,-13.0,0.0
-11.0,0.0,24.0,5.0,16.0,-48.0,71.0,-7.0,-16.0,-37.0,0.0
-18.0,-4.0,25.0,0.0,29.0,-32.0,41.0,-3.0,-40.0,-37.0,0.0
-8.0,0.0,24.0,6.0,29.0,-2.0,33.0,10.0,-31.0,-37.0,0.0
18.0,20.0,32.0,18.0,23.0,-4.0,54.0,28.0,-11.0,-19.0,0.0
20.0,25.0,29.0,21.0,3.0,-15.0,62.0,32.0,-13.0,-8.0,0.0
2.0,11.0,15.0,9.0,6.0,-8.0,29.0,19.0,-25.0,-26.0,0.0
-11.0,6.0,12.0,11.0,-3.0,3.0,-35.0,26.0,-33.0,-31.0,0.0
-1.0,5.0,22.0,0.0,-24.0,-13.0,-143.0,35.0,-28.0,-21.0,0.0
6.0,10.0,-30.0,-19.0,-27.0,3.0,-213.0,39.0,-7.0,-2.0,0.0
2.0,14.0,-45.0,-11.0,-33.0,26.0,-218.0,52.0,16.0,13.0,0.0
8.0,2.0,31.0,0.0,-29.0,4.0,-182.0,47.0,14.0,9.0,0.0
-1.0,-5.0,42.0,4.0,-13.0,4.0,-131.0,41.0,4.0,-8.0,0.0
-8.0,-6.0,42.0,12.0,4.0,18.0,-94.0,36.0,9.0,-1.0,0.0
-15.0,-12.0,41.0,17.0,21.0,5.0,-54.0,40.0,0.0,0.0,0.0
-24.0,-21.0,34.0,21.0,26.0,5.0,12.0,39.0,-10.0,0.0,0.0
-15.0,-19.0,26.0,19.0,24.0,8.0,69.0,37.0,-9.0,5.0,0.0
-12.0,-12.0,7.0,10.0,19.0,-12.0,107.0,20.0,-8.0,3.0,0.0
-11.0,-5.0,-39.0,11.0,0.0,-20.0,92.0,14.0,-7.0,-8.0,0.0
0.0,0.0,1.0,11.0,-10.0,-17.0,57.0,15.0,0.0,-6.0,0.0
2.0,-10.0,21.0,3.0,-24.0,-23.0,62.0,5.0,5.0,-5.0,0.0
-8.0,-18.0,6.0,-4.0,-32.0,-36.0,75.0,-5.0,-10.0,-15.0,0.0
-24.0,-17.0,4.0,2.0,-11.0,-40.0,81.0,-20.0,-31.0,-19.0,0.0
-23.0,-17.0,-41.0,7.0,15.0,-21.0,41.0,-26.0,-43.0,-22.0,0.0
-24.0,-7.0,-76.0,2.0,18.0,6.0,-33.0,-9.0,-32.0,-21.0,0.0
-13.0,-10.0,9.0,5.0,14.0,27.0,-148.0,1.0,-7.0,-4.0,0.0
-9.0,-15.0,22.0,1.0,14.0,26.0,-212.0,-4.0,12.0,-4.0,0.0
-24.0,-16.0,17.0,1.0,21.0,27.0,-164.0,-14.0,18.0,-7.0,0.0
-13.0,-12.0,-50.0,24.0,6.0,-13.0,-89.0,-7.0,27.0,10.0,0.0
-1.0,0.0,-121.0,24.0,-32.0,-48.0,-33.0,2.0,19.0,23.0,0.0
-5.0,0.0,-127.0,25.0,-43.0,-37.0,4.0,-7.0,2.0,6.0,0.0
-10.0,-9.0,-117.0,32.0,-41.0,-27.0,61.0,-6.0,14.0,-9.0,0.0
-6.0,-6.0,-99.0,17.0,-41.0,-11.0,95.0,-17.0,18.0,-12.0,0.0
-1.0,-3.0,-28.0,1.0,-39.0,0.0,90.0,-17.0,9.0,-3.0,0.0
6.0,-3.0,62.0,-7.0,-39.0,-5.0,70.0,-6.0,29.0,6.0,0.0
14.0,-5.0,59.0,-6.0,-30.0,-14.0,36.0,-5.0,15.0,11.0,0.0
10.0,0.0,59.0,3.0,-22.0,-14.0,47.0,-8.0,23.0,8.0,0.0
2.0,5.0,53.0,1.0,-10.0,5.0,76.0,-13.0,37.0,16.0,0.0
22.0,10.0,40.0,5.0,-5.0,14.0,71.0,-11.0,36.0,5.0,0.0
37.0,7.0,37.0,7.0,8.0,2.0,61.0,-13.0,17.0,1.0,0.0
44.0,-1.0,38.0,6.0,-4.0,0.0,2.0,-15.0,12.0,-11.0,0.0
29.0,-9.0,42.0,-1.0,-13.0,-5.0,-100.0,-2.0,0.0,-15.0,0.0
13.0,6.0,37.0,0.0,-22.0,-9.0,-189.0,-6.0,-19.0,-20.0,0.0
24.0,6.0,-8.0,-3.0,-18.0,-9.0,-199.0,-27.0,-24.0,-16.0,0.0
28.0,5.0,-19.0,-11.0,-12.0,4.0,-153.0,-25.0,-14.0,0.0,0.0
13.0,2.0,28.0,-21.0,-9.0,17.0,-123.0,-19.0,-5.0,0.0,0.0
10.0,-7.0,26.0,-29.0,-6.0,23.0,-89.0,-14.0,-5.0,-6.0,0.0
6.0,-10.0,21.0,-12.0,2.0,16.0,-26.0,-25.0,-16.0,-10.0,0.0
-10.0,-12.0,21.0,8.0,16.0,32.0,50.0,-41.0,-17.0,-25.0,0.0
-20.0,-11.0,28.0,-9.0,19.0,31.0,93.0,-33.0,-21.0,-26.0,0.0
-7.0,-1.0,41.0,-6.0,19.0,11.0,97.0,-7.0,-3.0,-5.0,0.0
9.0,5.0,35.0,1.0,6.0,-1.0,72.0,7.0,13.0,8.0,0.0
15.0,15.0,2.0,-8.0,-13.0,-8.0,39.0,16.0,7.0,8.0,0.0
8.0,20.0,-51.0,-19.0,-35.0,-17.0,34.0,21.0,-4.0,0.0,0.0
11.0,24.0,-63.0,-9.0,-29.0,-9.0,49.0,23.0,-11.0,-8.0,0.0
12.0,13.0,-94.0,-4.0,-17.0,2.0,52.0,16.0,-21.0,-1.0,0.0
19.0,13.0,4.0,-16.0,-16.0,2.0,42.0,7.0,-6.0,6.0,0.0
11.0,0.0,-45.0,-19.0,-16.0,-2.0,2.0,4.0,20.0,20.0,0.0
0.0,-2.0,-123.0,-24.0,-8.0,12.0,-114.0,0.0,5.0,24.0,0.0
7.0,6.0,-118.0,-15.0,-5.0,2.0,-202.0,-2.0,-1.0,23.0,0.0
9.0,4.0,-105.0,6.0,-6.0,1.0,-183.0,8.0,-7.0,24.0,0.0
19.0,1.0,-70.0,24.0,16.0,6.0,-110.0,18.0,-11.0,16.0,0.0
11.0,5.0,47.0,41.0,42.0,6.0,-71.0,12.0,-7.0,12.0,0.0
-3.0,6.0,89.0,55.0,56.0,7.0,-42.0,8.0,-12.0,2.0,0.0
-6.0,8.0,83.0,53.0,51.0,-1.0,-4.0,10.0,-17.0,-10.0,0.0
0.0,-5.0,66.0,40.0,4.0,13.0,8.0,10.0,-19.0,-6.0,0.0
15.0,-3.0,57.0,10.0,-8.0,48.0,52.0,28.0,-2.0,2.0,0.0
24.0,9.0,45.0,6.0,-19.0,31.0,91.0,38.0,13.0,10.0,0.0
22.0,19.0,-10.0,0.0,-7.0,13.0,77.0,39.0,9.0,0.0,0.0
23.0,11.0,13.0,-29.0,-13.0,16.0,55.0,40.0,3.0,-4.0,0.0
2.0,-2.0,44.0,-28.0,2.0,32.0,48.0,35.0,-18.0,-9.0,0.0
4.0,-12.0,44.0,-12.0,18.0,29.0,50.0,22.0,-25.0,-11.0,0.0
7.0,1.0,43.0,-1.0,13.0,31.0,41.0,14.0,-34.0,-9.0,0.0
11.0,5.0,46.0,4.0,0.0,29.0,-7.0,16.0,-25.0,0.0,0.0
27.0,9.0,52.0,12.0,-28.0,-1.0,-62.0,21.0,-3.0,23.0,0.0
36.0,13.0,53.0,24.0,-38.0,-46.0,-127.0,20.0,0.0,25.0,0.0
33.0,-1.0,51.0,22.0,-17.0,-39.0,-176.0,11.0,3.0,21.0,0.0
16.0,-7.0,42.0,13.0,-14.0,-18.0,-160.0,15.0,19.0,8.0,0.0
6.0,-3.0,37.0,22.0,1.0,-18.0,-131.0,15.0,11.0,-4.0,0.0
-3.0,-9.0,34.0,17.0,2.0,-2.0,-124.0,17.0,-4.0,-20.0,0.0
-16.0,-13.0,23.0,11.0,3.0,29.0,-97.0,23.0,-8.0,-19.0,0.0
-16.0,-6.0,16.0,0.0,0.0,18.0,-38.0,21.0,-17.0,-10.0,0.0
-3.0,-7.0,5.0,0.0,-7.0,10.0,9.0,0.0,-20.0,-7.0,0.0
-2.0,-23.0,10.0,9.0,-8.0,-1.0,27.0,-25.0,-26.0,-11.0,0.0
-11.0,-34.0,4.0,16.0,0.0,-22.0,16.0,-23.0,-20.0,-22.0,0.0
-13.0,-23.0,1.0,6.0,0.0,-30.0,-3.0,-10.0,-21.0,-18.0,0.0
-7.0,-19.0,7.0,4.0,-9.0,-40.0,-1.0,2.0,2.0,-18.0,0.0
4.0,-6.0,15.0,-9.0,-19.0,-61.0,5.0,34.0,20.0,8.0,0.0
9.0,11.0,23.0,-12.0,-41.0,-54.0,26.0,53.0,29.0,26.0,0.0
0.0,9.0,8.0,-33.0,-23.0,16.0,24.0,64.0,40.0,28.0,0.0
-3.0,-3.0,4.0,-37.0,-7.0,53.0,-18.0,70.0,85.0,27.0,0.0
5.0,8.0,22.0,-5.0,7.0,32.0,-113.0,48.0,69.0,13.0,0.0
-2.0,3.0,31.0,2.0,22.0,32.0,-199.0,26.0,26.0,10.0,0.0
-22.0,1.0,21.0,5.0,8.0,40.0,-169.0,-2.0,9.0,6.0,0.0
-22.0,1.0,22.0,9.0,-11.0,40.0,-78.0,-23.0,0.0,-4.0,0.0
-28.0,2.0,27.0,6.0,-37.0,21.0,-32.0,-3.0,-13.0,-1.0,0.0
-28.0,2.0,2.0,6.0,-62.0,0.0,-23.0,-4.0,-11.0,0.0,0.0
-23.0,1.0,25.0,-13.0,-71.0,-23.0,12.0,-4.0,4.0,-2.0,0.0
-28.0,-6.0,23.0,-10.0,-69.0,-47.0,81.0,2.0,5.0,-3.0,0.0
-30.0,-12.0,23.0,-14.0,-51.0,-30.0,103.0,6.0,6.0,-2.0,0.0
-24.0,-10.0,4.0,-21.0,-16.0,-10.0,107.0,10.0,9.0,-2.0,0.0
-17.0,-4.0,-74.0,-12.0,2.0,-4.0,93.0,13.0,12.0,6.0,0.0
-24.0,-4.0,-26.0,0.0,1.0,4.0,89.0,-1.0,4.0,13.0,0.0
-14.0,2.0,22.0,1.0,-7.0,15.0,95.0,-20.0,6.0,7.0,0.0
-19.0,-13.0,-32.0,-15.0,-7.0,25.0,75.0,-21.0,-11.0,-9.0,0.0
-28.0,-27.0,-42.0,-19.0,-5.0,21.0,71.0,-10.0,-35.0,-23.0,0.0
-22.0,-30.0,7.0,1.0,-2.0,-5.0,60.0,-11.0,-33.0,-23.0,0.0
-10.0,-12.0,-55.0,8.0,-14.0,-43.0,-4.0,-14.0,-42.0,-10.0,0.0
-7.0,11.0,-101.0,4.0,-13.0,-51.0,-99.0,-22.0,-43.0,2.0,0.0
-13.0,0.0,-15.0,-8.0,0.0,-45.0,-132.0,-10.0,5.0,11.0,0.0
-26.0,-18.0,35.0,-12.0,0.0,-23.0,-82.0,-3.0,50.0,10.0,0.0
-28.0,-9.0,51.0,-1.0,-5.0,-1.0,-36.0,-15.0,26.0,7.0,0.0
-9.0,4.0,50.0,8.0,-11.0,5.0,-6.0,-35.0,9.0,12.0,0.0
-15.0,8.0,40.0,-1.0,-5.0,17.0,42.0,-49.0,2.0,6.0,0.0
-17.0,-3.0,20.0,-11.0,-10.0,30.0,97.0,-43.0,13.0,2.0,0.0
-8.0,2.0,4.0,-10.0,-15.0,22.0,146.0,-26.0,14.0,11.0,0.0
-13.0,10.0,9.0,0.0,-6.0,14.0,164.0,-33.0,-2.0,25.0,0.0
-14.0,-4.0,17.0,0.0,1.0,15.0,170.0,-48.0,-1.0,12.0,0.0
-11.0,-2.0,8.0,-8.0,2.0,6.0,163.0,-41.0,-10.0,4.0,0.0
-2.0,-5.0,4.0,-1.0,-3.0,2.0,164.0,-34.0,-13.0,6.0,0.0
3.0,-19.0,12.0,-1.0,0.0,-4.0,168.0,-27.0,-21.0,-6.0,0.0
-12.0,-15.0,19.0,0.0,5.0,-1.0,160.0,-14.0,-22.0,-4.0,0.0
-14.0,-16.0,0.0,12.0,8.0,-3.0,150.0,-9.0,-32.0,-6.0,0.0
-7.0,-14.0,-77.0,6.0,17.0,-1.0,100.0,-15.0,-53.0,-8.0,0.0
-17.0,-12.0,-70.0,0.0,21.0,4.0,11.0,-20.0,-36.0,0.0,0.0
-14.0,-15.0,-96.0,0.0,5.0,2.0,-68.0,-22.0,31.0,7.0,0.0
-23.0,-22.0,-78.0,3.0,9.0,10.0,-69.0,-22.0,32.0,-7.0,0.0
-25.0,-5.0,-29.0,-3.0,19.0,31.0,-10.0,-9.0,-1.0,-3.0,0.0
-21.0,-4.0,6.0,2.0,13.0,19.0,20.0,-10.0,-6.0,-1.0,0.0
-13.0,1.0,7.0,13.0,1.0,8.0,49.0,-15.0,-4.0,-6.0,0.0
-3.0,11.0,18.0,7.0,5.0,2.0,118.0,-21.0,6.0,5.0,0.0
11.0,6.0,20.0,10.0,13.0,0.0,185.0,-9.0,3.0,7.0,0.0
9.0,3.0,18.0,14.0,18.0,0.0,206.0,0.0,-4.0,2.0,0.0
-1.0,8.0,21.0,9.0,13.0,-19.0,207.0,-6.0,-3.0,5.0,0.0
8.0,8.0,27.0,8.0,9.0,-42.0,177.0,-17.0,-15.0,6.0,0.0
8.0,1.0,25.0,13.0,8.0,-43.0,155.0,-30.0,-19.0,4.0,0.0
-9.0,4.0,17.0,10.0,2.0,-30.0,155.0,-24.0,-7.0,-2.0,0.0
10.0,4.0,4.0,5.0,7.0,-13.0,160.0,-22.0,-11.0,1.0,0.0
14.0,16.0,-9.0,0.0,1.0,-14.0,137.0,-14.0,-10.0,17.0,0.0
29.0,13.0,-5.0,-7.0,1.0,-24.0,107.0,-9.0,-10.0,18.0,0.0
34.0,11.0,-40.0,3.0,7.0,-23.0,44.0,-10.0,-3.0,13.0,0.0
28.0,19.0,-38.0,5.0,13.0,-24.0,-59.0,-18.0,7.0,5.0,0.0
11.0,-1.0,3.0,-1.0,21.0,-20.0,-132.0,-27.0,-1.0,-3.0,0.0
3.0,-8.0,0.0,-12.0,14.0,10.0,-128.0,-37.0,-16.0,-16.0,0.0
-3.0,-12.0,3.0,-9.0,22.0,25.0,-75.0,-40.0,-11.0,-23.0,0.0
7.0,-12.0,5.0,-9.0,24.0,38.0,-14.0,-26.0,-20.0,-16.0,0.0
23.0,0.0,18.0,-8.0,22.0,46.0,-14.0,-15.0,-38.0,-6.0,0.0
24.0,6.0,27.0,-3.0,15.0,15.0,5.0,-5.0,-41.0,3.0,0.0
27.0,23.0,28.0,5.0,-10.0,-34.0,64.0,17.0,-5.0,18.0,0.0
38.0,31.0,37.0,12.0,-29.0,-72.0,119.0,27.0,18.0,23.0,0.0
23.0,23.0,31.0,20.0,-27.0,-57.0,142.0,15.0,0.0,18.0,0.0
9.0,8.0,8.0,-9.0,-22.0,-32.0,98.0,15.0,-19.0,-3.0,0.0
0.0,8.0,-7.0,-38.0,-33.0,-24.0,62.0,17.0,-7.0,-6.0,0.0
-3.0,8.0,-7.0,-30.0,-29.0,-19.0,71.0,15.0,2.0,2.0,0.0
9.0,1.0,-8.0,-20.0,-1.0,-15.0,85.0,20.0,7.0,3.0,0.0
2.0,-6.0,-15.0,-31.0,13.0,-2.0,78.0,22.0,-2.0,-8.0,0.0
4.0,11.0,-7.0,-16.0,20.0,6.0,-5.0,27.0,-7.0,-2.0,0.0
7.0,17.0,12.0,-9.0,26.0,5.0,-125.0,26.0,-9.0,0.0,0.0
23.0,12.0,22.0,-13.0,32.0,-2.0,-218.0,23.0,-20.0,-2.0,0.0
28.0,9.0,22.0,0.0,36.0,-2.0,-246.0,12.0,-17.0,-9.0,0.0
34.0,16.0,23.0,8.0,35.0,4.0,-196.0,6.0,18.0,0.0,0.0
30.0,19.0,22.0,1.0,24.0,0.0,-137.0,5.0,38.0,13.0,0.0
23.0,7.0,15.0,11.0,20.0,-28.0,-107.0,1.0,29.0,2.0,0.0
12.0,4.0,15.0,21.0,39.0,-44.0,-77.0,0.0,27.0,0.0,0.0
0.0,-4.0,-4.0,8.0,35.0,-32.0,-46.0,-11.0,5.0,-9.0,0.0
-13.0,-12.0,-79.0,-2.0,23.0,-21.0,-17.0,-15.0,2.0,-25.0,0.0
-15.0,-21.0,-71.0,-12.0,23.0,6.0,30.0,-7.0,17.0,-25.0,0.0
-2.0,-4.0,-75.0,-11.0,24.0,48.0,38.0,2.0,28.0,4.0,0.0
34.0,30.0,-62.0,5.0,38.0,72.0,21.0,29.0,46.0,33.0,0.0
64.0,61.0,23.0,10.0,52.0,53.0,25.0,44.0,75.0,51.0,0.0
46.0,45.0,23.0,1.0,48.0,10.0,10.0,15.0,57.0,38.0,0.0
42.0,19.0,22.0,6.0,34.0,-20.0,-18.0,-12.0,29.0,23.0,0.0
52.0,28.0,46.0,6.0,1.0,-35.0,-41.0,-20.0,36.0,29.0,0.0
51.0,31.0,52.0,-11.0,-2.0,-36.0,-89.0,-10.0,33.0,19.0,0.0
27.0,6.0,31.0,-21.0,-4.0,10.0,-201.0,12.0,15.0,15.0,0.0
16.0,-3.0,23.0,-30.0,1.0,37.0,-295.0,20.0,4.0,12.0,0.0
11.0,0.0,23.0,-20.0,10.0,49.0,-278.0,14.0,0.0,-3.0,0.0
-5.0,-5.0,16.0,-10.0,32.0,100.0,-218.0,27.0,21.0,-14.0,0.0
-8.0,-8.0,11.0,2.0,48.0,103.0,-175.0,17.0,17.0,-15.0,0.0
0.0,1.0,-15.0,9.0,44.0,67.0,-134.0,0.0,-1.0,0.0,0.0
11.0,6.0,-12.0,0.0,26.0,40.0,-101.0,-8.0,5.0,6.0,0.0
-1.0,-2.0,27.0,-15.0,-7.0,7.0,-59.0,-14.0,7.0,7.0,0.0
-15.0,-13.0,38.0,-23.0,-24.0,-2.0,-52.0,-10.0,2.0,-1.0,0.0
-18.0,-3.0,24.0,-22.0,-20.0,0.0,-48.0,-6.0,-9.0,19.0,0.0
-20.0,4.0,-83.0,-14.0,-21.0,-16.0,-41.0,3.0,14.0,22.0,0.0
-13.0,0.0,-154.0,-27.0,-21.0,-20.0,-45.0,2.0,27.0,-4.0,0.0
0.0,-10.0,-121.0,-24.0,-15.0,-1.0,-46.0,0.0,22.0,-10.0,0.0
14.0,-4.0,-9.0,-26.0,-2.0,10.0,-34.0,-3.0,11.0,-11.0,0.0
21.0,-3.0,18.0,-24.0,-6.0,7.0,-16.0,-20.0,12.0,-14.0,0.0
18.0,-6.0,23.0,-13.0,-26.0,2.0,-28.0,-17.0,32.0,7.0,0.0
36.0,0.0,37.0,-12.0,-40.0,-33.0,-88.0,4.0,44.0,29.0,0.0
46.0,8.0,32.0,-7.0,-42.0,-46.0,-151.0,20.0,59.0,40.0,0.0
32.0,9.0,50.0,-1.0,-35.0,-26.0,-186.0,28.0,68.0,27.0,0.0
18.0,6.0,44.0,0.0,-28.0,5.0,-166.0,24.0,39.0,22.0,0.0
1.0,4.0,32.0,-2.0,-11.0,18.0,-103.0,16.0,39.0,12.0,0.0
-6.0,-1.0,31.0,2.0,-2.0,31.0,-35.0,21.0,32.0,-1.0,0.0
-21.0,-2.0,20.0,20.0,18.0,31.0,-9.0,9.0,21.0,-16.0,0.0
-8.0,-4.0,16.0,22.0,32.0,17.0,15.0,1.0,19.0,-18.0,0.0
4.0,-4.0,24.0,18.0,25.0,2.0,44.0,2.0,20.0,-13.0,0.0
6.0,-1.0,25.0,28.0,23.0,9.0,62.0,12.0,17.0,2.0,0.0
-3.0,-4.0,-34.0,42.0,64.0,0.0,80.0,5.0,-7.0,-6.0,0.0
-12.0,-22.0,-135.0,57.0,104.0,5.0,80.0,-5.0,-11.0,-13.0,0.0
-28.0,-42.0,-89.0,65.0,122.0,44.0,56.0,-4.0,-28.0,-17.0,0.0
-31.0,-35.0,-70.0,54.0,115.0,81.0,62.0,-12.0,-29.0,-27.0,0.0
-7.0,-1.0,-45.0,48.0,72.0,68.0,86.0,-19.0,-8.0,-12.0,0.0
2.0,7.0,44.0,28.0,22.0,55.0,101.0,-21.0,-3.0,-12.0,0.0
4.0,-4.0,28.0,-25.0,-57.0,20.0,55.0,1.0,-6.0,-2.0,0.0
13.0,2.0,18.0,-81.0,-132.0,-28.0,-52.0,31.0,0.0,21.0,0.0
31.0,12.0,24.0,-71.0,-107.0,-43.0,-155.0,30.0,22.0,40.0,0.0
25.0,10.0,22.0,-32.0,-48.0,-52.0,-167.0,25.0,-2.0,18.0,0.0
13.0,0.0,7.0,1.0,-13.0,-89.0,-103.0,0.0,-37.0,-11.0,0.0
-1.0,-21.0,3.0,13.0,-18.0,-106.0,-57.0,-12.0,-41.0,-31.0,0.0
-18.0,-20.0,6.0,-6.0,-42.0,-123.0,-40.0,-22.0,-17.0,-40.0,0.0
-44.0,-17.0,-71.0,-25.0,-27.0,-88.0,-7.0,-42.0,-29.0,-52.0,0.0
-38.0,-19.0,-119.0,-49.0,-19.0,21.0,70.0,-17.0,-32.0,-39.0,0.0
0.0,11.0,-5.0,-59.0,-23.0,119.0,141.0,43.0,2.0,2.0,0.0
55.0,61.0,49.0,-32.0,-3.0,136.0,195.0,84.0,55.0,56.0,0.0
69.0,59.0,34.0,-27.0,-16.0,53.0,182.0,62.0,20.0,54.0,0.0
45.0,36.0,45.0,-16.0,-14.0,-2.0,142.0,29.0,-8.0,25.0,0.0
28.0,27.0,38.0,-11.0,-11.0,-2.0,142.0,21.0,-24.0,10.0,0.0
6.0,29.0,33.0,-19.0,-6.0,-3.0,138.0,0.0,-48.0,2.0,0.0
11.0,31.0,21.0,-27.0,-13.0,-6.0,128.0,-19.0,-35.0,0.0,0.0
3.0,10.0,-15.0,-43.0,-14.0,13.0,119.0,-7.0,10.0,-1.0,0.0
-8.0,7.0,-28.0,-38.0,-1.0,11.0,57.0,4.0,-2.0,-13.0,0.0
-13.0,7.0,-29.0,-18.0,6.0,14.0,-65.0,10.0,-26.0,-19.0,0.0
0.0,0.0,-16.0,-9.0,16.0,21.0,-143.0,5.0,-22.0,-20.0,0.0
-7.0,0.0,-4.0,4.0,18.0,36.0,-147.0,0.0,-22.0,-19.0,0.0
-5.0,-9.0,-12.0,6.0,16.0,33.0,-73.0,-6.0,-28.0,-25.0,0.0
-11.0,-15.0,-49.0,6.0,16.0,15.0,-7.0,-18.0,-36.0,-34.0,0.0
-13.0,-13.0,-170.0,15.0,14.0,22.0,27.0,-14.0,-38.0,-40.0,0.0
-12.0,-6.0,-202.0,23.0,10.0,26.0,78.0,-12.0,-39.0,-35.0,0.0
-11.0,-5.0,-167.0,21.0,-3.0,34.0,139.0,-10.0,-35.0,-25.0,0.0
-10.0,-23.0,-53.0,12.0,-5.0,33.0,174.0,-6.0,-22.0,-22.0,0.0
2.0,-9.0,6.0,8.0,0.0,30.0,172.0,-2.0,-16.0,-10.0,0.0
17.0,11.0,11.0,-1.0,-16.0,10.0,154.0,14.0,-9.0,1.0,0.0
22.0,9.0,5.0,-27.0,-35.0,-15.0,129.0,26.0,10.0,13.0,0.0
26.0,5.0,-63.0,-28.0,-35.0,-29.0,128.0,23.0,10.0,7.0,0.0
8.0,6.0,-56.0,-10.0,-27.0,-29.0,148.0,15.0,-10.0,0.0,0.0
0.0,13.0,20.0,4.0,-30.0,-20.0,155.0,-4.0,-22.0,-9.0,0.0
4.0,4.0,25.0,8.0,-26.0,-15.0,140.0,-18.0,-31.0,-8.0,0.0
-5.0,-8.0,-43.0,15.0,-7.0,-20.0,43.0,-2.0,-46.0,-22.0,0.0
-17.0,-9.0,-45.0,13.0,8.0,-9.0,-67.0,8.0,-58.0,-25.0,0.0
-14.0,-18.0,15.0,25.0,23.0,2.0,-122.0,12.0,-56.0,-13.0,0.0
-5.0,-10.0,26.0,33.0,28.0,19.0,-78.0,15.0,-43.0,-15.0,0.0
-8.0,-2.0,16.0,39.0,46.0,45.0,-15.0,18.0,-37.0,-29.0,0.0
-9.0,2.0,13.0,42.0,51.0,44.0,54.0,20.0,-46.0,-24.0,0.0
6.0,10.0,18.0,30.0,44.0,31.0,131.0,6.0,-44.0,-8.0,0.0
7.0,-5.0,12.0,23.0,37.0,6.0,162.0,-5.0,-34.0,-5.0,0.0
-2.0,-12.0,9.0,29.0,27.0,-37.0,210.0,-5.0,-49.0,-8.0,0.0
0.0,-2.0,9.0,28.0,16.0,-53.0,232.0,5.0,-62.0,-5.0,0.0
1.0,-12.0,2.0,21.0,12.0,-36.0,220.0,0.0,-32.0,-3.0,0.0
0.0,-23.0,-5.0,-1.0,-8.0,0.0,183.0,6.0,49.0,10.0,0.0
7.0,-20.0,-8.0,-13.0,-4.0,3.0,147.0,16.0,48.0,8.0,0.0
-4.0,-21.0,-7.0,-18.0,-3.0,-12.0,124.0,9.0,28.0,-7.0,0.0
0.0,-17.0,-5.0,-16.0,-9.0,-27.0,122.0,15.0,11.0,-4.0,0.0
28.0,-17.0,-1.0,-14.0,0.0,-28.0,123.0,21.0,24.0,6.0,0.0
16.0,-7.0,3.0,-3.0,15.0,-19.0,68.0,6.0,24.0,-8.0,0.0
18.0,3.0,3.0,9.0,10.0,-13.0,-35.0,-8.0,4.0,-13.0,0.0
6.0,-5.0,-10.0,12.0,20.0,-2.0,-144.0,-17.0,-4.0,-12.0,0.0
-15.0,-13.0,-23.0,21.0,32.0,5.0,-152.0,-25.0,-23.0,-31.0,0.0
-24.0,-25.0,-22.0,25.0,36.0,17.0,-99.0,-17.0,-33.0,-34.0,0.0
-18.0,-25.0,-13.0,21.0,33.0,21.0,-52.0,-19.0,-30.0,-21.0,0.0
-13.0,-5.0,2.0,15.0,13.0,14.0,-26.0,-22.0,-17.0,-10.0,0.0
2.0,7.0,12.0,4.0,-18.0,-15.0,25.0,-25.0,-6.0,7.0,0.0
0.0,1.0,-2.0,-10.0,-37.0,-28.0,74.0,-11.0,-3.0,5.0,0.0
2.0,3.0,-16.0,-24.0,-82.0,-48.0,97.0,10.0,1.0,11.0,0.0
9.0,11.0,-15.0,-21.0,-91.0,-58.0,140.0,19.0,3.0,7.0,0.0
-2.0,7.0,-35.0,-11.0,-44.0,-27.0,128.0,18.0,4.0,0.0,0.0
-10.0,-5.0,-120.0,-5.0,-22.0,-17.0,100.0,14.0,4.0,2.0,0.0
-2.0,-7.0,-64.0,0.0,-18.0,-21.0,94.0,25.0,8.0,9.0,0.0
-6.0,-10.0,-13.0,-2.0,-11.0,-12.0,63.0,26.0,10.0,18.0,0.0
-17.0,-9.0,-13.0,-3.0,-6.0,-5.0,57.0,31.0,21.0,17.0,0.0
-18.0,1.0,-12.0,-7.0,-5.0,-17.0,49.0,30.0,26.0,8.0,0.0
-18.0,-2.0,-12.0,-5.0,2.0,-28.0,-25.0,18.0,12.0,19.0,0.0
-16.0,6.0,-13.0,6.0,15.0,-28.0,-129.0,18.0,-4.0,10.0,0.0
-17.0,-11.0,-17.0,8.0,21.0,-14.0,-189.0,21.0,-6.0,0.0,0.0
-21.0,-29.0,-7.0,19.0,26.0,3.0,-187.0,7.0,3.0,0.0,0.0
-35.0,-33.0,-7.0,26.0,33.0,11.0,-157.0,3.0,6.0,-19.0,0.0
-55.0,-34.0,-9.0,31.0,33.0,19.0,-121.0,4.0,0.0,-20.0,0.0
-58.0,-40.0,-14.0,26.0,34.0,15.0,-97.0,-12.0,3.0,-20.0,0.0
-43.0,-31.0,-13.0,12.0,28.0,0.0,-31.0,-19.0,-2.0,-18.0,0.0
-19.0,-8.0,-17.0,5.0,11.0,-6.0,14.0,-27.0,-3.0,-11.0,0.0
-11.0,-1.0,-77.0,2.0,5.0,-12.0,29.0,-29.0,-9.0,-13.0,0.0
-10.0,0.0,-36.0,0.0,0.0,-21.0,36.0,-30.0,-5.0,-13.0,0.0
-2.0,-2.0,16.0,0.0,0.0,-29.0,28.0,-35.0,5.0,-1.0,0.0
-2.0,3.0,11.0,-7.0,0.0,-32.0,14.0,-12.0,2.0,11.0,0.0
0.0,7.0,-59.0,-8.0,-3.0,-33.0,20.0,-9.0,-6.0,21.0,0.0
5.0,9.0,-73.0,-8.0,-4.0,-35.0,14.0,-16.0,-11.0,10.0,0.0
12.0,18.0,4.0,-15.0,-10.0,-29.0,13.0,-9.0,0.0,10.0,0.0
4.0,-2.0,20.0,-11.0,-7.0,-28.0,-24.0,-5.0,9.0,6.0,0.0
-11.0,-14.0,18.0,-5.0,-2.0,-28.0,-138.0,-2.0,-6.0,0.0,0.0
-26.0,-2.0,18.0,7.0,2.0,-33.0,-224.0,-5.0,-6.0,4.0,0.0
-36.0,-2.0,-2.0,14.0,20.0,-19.0,-239.0,-6.0,-5.0,-3.0,0.0
-49.0,-10.0,-30.0,7.0,30.0,5.0,-204.0,1.0,-3.0,-20.0,0.0
-65.0,-30.0,-5.0,-5.0,31.0,43.0,-169.0,2.0,-10.0,-26.0,0.0
-76.0,-35.0,-18.0,-6.0,32.0,108.0,-129.0,11.0,-22.0,-24.0,0.0
-51.0,-23.0,-22.0,10.0,28.0,103.0,-48.0,26.0,-5.0,-12.0,0.0
-29.0,-3.0,-73.0,14.0,0.0,27.0,-5.0,23.0,25.0,16.0,0.0
-19.0,13.0,-131.0,19.0,-12.0,-18.0,53.0,9.0,25.0,30.0,0.0
-15.0,17.0,-42.0,26.0,5.0,-16.0,102.0,5.0,14.0,21.0,0.0
-3.0,0.0,-31.0,38.0,31.0,7.0,83.0,1.0,0.0,1.0,0.0
-3.0,0.0,-140.0,38.0,22.0,3.0,30.0,-6.0,-1.0,-10.0,0.0
-18.0,-12.0,-138.0,37.0,6.0,-25.0,-30.0,-10.0,-8.0,-18.0,0.0
-12.0,-9.0,-63.0,28.0,-15.0,-52.0,-16.0,-15.0,-2.0,-18.0,0.0
-6.0,0.0,48.0,4.0,-33.0,-48.0,0.0,-4.0,0.0,-9.0,0.0
-31.0,-15.0,48.0,-19.0,-32.0,-5.0,-14.0,14.0,-4.0,0.0,0.0
-25.0,-27.0,30.0,-42.0,-39.0,42.0,-66.0,29.0,8.0,2.0,0.0
7.0,-24.0,39.0,-11.0,-29.0,80.0,-150.0,34.0,20.0,19.0,0.0
32.0,0.0,58.0,16.0,-5.0,105.0,-205.0,45.0,37.0,37.0,0.0
16.0,-1.0,66.0,29.0,4.0,61.0,-196.0,34.0,27.0,40.0,0.0
14.0,-6.0,49.0,48.0,17.0,28.0,-153.0,12.0,11.0,34.0,0.0
6.0,-3.0,40.0,41.0,18.0,44.0,-93.0,0.0,13.0,16.0,0.0
4.0,-18.0,13.0,30.0,5.0,41.0,-41.0,-14.0,18.0,8.0,0.0
3.0,-29.0,-10.0,14.0,-4.0,41.0,9.0,-22.0,12.0,4.0,0.0
1.0,-26.0,29.0,16.0,-8.0,19.0,54.0,-30.0,5.0,0.0,0.0
3.0,-30.0,21.0,19.0,9.0,-6.0,60.0,-30.0,-2.0,-4.0,0.0
15.0,-19.0,17.0,11.0,28.0,-38.0,73.0,-22.0,4.0,7.0,0.0
17.0,-15.0,9.0,23.0,25.0,-61.0,48.0,-14.0,17.0,14.0,0.0
20.0,-16.0,17.0,20.0,-3.0,-80.0,0.0,-34.0,-12.0,-4.0,0.0
15.0,-24.0,20.0,-2.0,-42.0,-69.0,-32.0,-46.0,-29.0,-19.0,0.0
19.0,-23.0,3.0,-40.0,-69.0,-8.0,-6.0,-26.0,-11.0,-12.0,0.0
43.0,5.0,9.0,-45.0,-81.0,20.0,27.0,16.0,39.0,22.0,0.0
69.0,46.0,33.0,-31.0,-90.0,-24.0,19.0,19.0,59.0,59.0,0.0
47.0,43.0,44.0,-13.0,-77.0,-47.0,-56.0,-2.0,40.0,39.0,0.0
33.0,27.0,45.0,-15.0,-63.0,-28.0,-168.0,-4.0,30.0,5.0,0.0
36.0,19.0,40.0,-22.0,-48.0,-10.0,-195.0,8.0,21.0,5.0,0.0
25.0,16.0,38.0,-14.0,-30.0,10.0,-126.0,13.0,14.0,4.0,0.0
13.0,-4.0,-2.0,-3.0,-17.0,18.0,-57.0,10.0,12.0,2.0,0.0
1.0,0.0,-12.0,-6.0,-15.0,29.0,-30.0,0.0,7.0,-3.0,0.0
-12.0,7.0,16.0,-5.0,-12.0,18.0,-4.0,-9.0,3.0,-8.0,0.0
-11.0,2.0,17.0,2.0,-15.0,7.0,62.0,-3.0,10.0,-5.0,0.0
-15.0,1.0,21.0,5.0,-13.0,14.0,131.0,7.0,11.0,-5.0,0.0
-23.0,5.0,24.0,10.0,-8.0,11.0,156.0,7.0,7.0,-1.0,0.0
-24.0,5.0,26.0,18.0,-12.0,6.0,148.0,8.0,3.0,-10.0,0.0
-10.0,5.0,7.0,8.0,-14.0,7.0,145.0,17.0,-6.0,-14.0,0.0
-18.0,3.0,-72.0,10.0,0.0,8.0,116.0,16.0,-28.0,-19.0,0.0
-37.0,2.0,-22.0,15.0,16.0,10.0,92.0,7.0,-20.0,-15.0,0.0
-31.0,-3.0,18.0,-4.0,9.0,5.0,76.0,17.0,24.0,-4.0,0.0
-30.0,-7.0,13.0,-10.0,-2.0,-9.0,70.0,23.0,46.0,4.0,0.0
-21.0,-7.0,-15.0,-2.0,0.0,0.0,41.0,12.0,30.0,3.0,0.0
-12.0,-8.0,-56.0,12.0,6.0,13.0,-49.0,8.0,9.0,0.0,0.0
-26.0,-8.0,3.0,10.0,14.0,9.0,-133.0,5.0,-5.0,0.0,0.0
-35.0,-9.0,25.0,13.0,12.0,20.0,-127.0,11.0,-17.0,2.0,0.0
-38.0,-2.0,31.0,17.0,14.0,27.0,-50.0,13.0,-24.0,-7.0,0.0
-28.0,0.0,10.0,22.0,17.0,24.0,20.0,13.0,-32.0,-8.0,0.0
-26.0,5.0,-102.0,22.0,8.0,14.0,75.0,4.0,-34.0,-5.0,0.0
-3.0,-3.0,-136.0,23.0,3.0,3.0,148.0,-3.0,-23.0,4.0,0.0
-8.0,-12.0,-49.0,19.0,4.0,-7.0,206.0,3.0,47.0,31.0,0.0
-1.0,-14.0,-31.0,18.0,10.0,-3.0,206.0,17.0,57.0,25.0,0.0
5.0,-8.0,-71.0,14.0,25.0,1.0,217.0,18.0,22.0,22.0,0.0
13.0,-7.0,22.0,6.0,29.0,0.0,214.0,10.0,18.0,28.0,0.0
21.0,-6.0,54.0,4.0,29.0,-13.0,178.0,-1.0,6.0,14.0,0.0
12.0,4.0,68.0,0.0,15.0,-28.0,140.0,-11.0,-6.0,6.0,0.0
12.0,10.0,73.0,7.0,-7.0,-42.0,123.0,-1.0,-2.0,11.0,0.0
-7.0,6.0,58.0,5.0,-4.0,-39.0,110.0,4.0,9.0,4.0,0.0
-3.0,-6.0,45.0,-3.0,8.0,-25.0,82.0,12.0,1.0,-1.0,0.0
3.0,-9.0,37.0,-5.0,10.0,-18.0,17.0,6.0,-16.0,-10.0,0.0
3.0,-3.0,47.0,14.0,24.0,-26.0,-80.0,-11.0,-28.0,-9.0,0.0
-4.0,-12.0,36.0,16.0,41.0,-8.0,-150.0,-21.0,-44.0,-17.0,0.0
-16.0,-22.0,-19.0,18.0,58.0,24.0,-109.0,-22.0,-50.0,-22.0,0.0
-18.0,-20.0,11.0,25.0,65.0,19.0,-15.0,-26.0,-49.0,-31.0,0.0
-1.0,7.0,60.0,15.0,32.0,2.0,57.0,-26.0,-39.0,-33.0,0.0
6.0,5.0,52.0,-4.0,3.0,-4.0,93.0,-16.0,33.0,-2.0,0.0
10.0,-10.0,25.0,-22.0,-24.0,-20.0,115.0,3.0,104.0,13.0,0.0
13.0,-9.0,35.0,-3.0,-5.0,-9.0,122.0,11.0,55.0,11.0,0.0
13.0,1.0,42.0,4.0,47.0,27.0,137.0,16.0,17.0,5.0,0.0
1.0,-7.0,32.0,0.0,80.0,67.0,117.0,9.0,-10.0,-4.0,0.0
0.0,-12.0,-32.0,0.0,90.0,67.0,94.0,10.0,-10.0,-18.0,0.0
15.0,4.0,-52.0,4.0,59.0,27.0,99.0,8.0,5.0,-2.0,0.0
18.0,14.0,-12.0,18.0,31.0,3.0,93.0,12.0,5.0,11.0,0.0
11.0,15.0,11.0,8.0,0.0,-34.0,84.0,8.0,18.0,8.0,0.0
10.0,14.0,-45.0,-19.0,-51.0,-69.0,49.0,11.0,25.0,6.0,0.0
13.0,12.0,-1.0,-21.0,-52.0,-29.0,13.0,12.0,18.0,4.0,0.0
9.0,19.0,24.0,-15.0,-39.0,0.0,-66.0,13.0,11.0,12.0,0.0
15.0,18.0,25.0,-26.0,-24.0,-1.0,-155.0,1.0,8.0,17.0,0.0
29.0,14.0,27.0,-11.0,-10.0,-4.0,-173.0,-9.0,0.0,12.0,0.0
21.0,14.0,30.0,6.0,6.0,-9.0,-120.0,-23.0,-19.0,12.0,0.0
-6.0,4.0,20.0,-1.0,10.0,-21.0,-64.0,-33.0,-31.0,-5.0,0.0
-32.0,-4.0,13.0,-6.0,-7.0,-39.0,-23.0,-32.0,-22.0,-6.0,0.0
-13.0,3.0,28.0,-16.0,-26.0,-42.0,38.0,-28.0,-12.0,2.0,0.0
5.0,12.0,10.0,-15.0,-10.0,-12.0,90.0,-17.0,3.0,19.0,0.0
20.0,25.0,-65.0,-20.0,1.0,16.0,123.0,0.0,31.0,30.0,0.0
11.0,12.0,-118.0,-33.0,0.0,-2.0,123.0,-7.0,27.0,17.0,0.0
7.0,-3.0,-84.0,-41.0,5.0,0.0,75.0,-6.0,21.0,4.0,0.0
13.0,-22.0,13.0,-43.0,21.0,46.0,41.0,9.0,30.0,5.0,0.0
11.0,-20.0,35.0,-41.0,16.0,50.0,6.0,11.0,22.0,0.0,0.0
23.0,-11.0,40.0,-39.0,3.0,25.0,8.0,12.0,33.0,0.0,0.0
32.0,2.0,43.0,-35.0,-5.0,0.0,18.0,-5.0,38.0,0.0,0.0
36.0,24.0,36.0,-26.0,-25.0,-48.0,13.0,-11.0,42.0,8.0,0.0
46.0,20.0,13.0,-5.0,-32.0,-54.0,-34.0,-5.0,36.0,12.0,0.0
35.0,3.0,35.0,11.0,-12.0,-5.0,-128.0,-6.0,16.0,8.0,0.0
31.0,-6.0,41.0,7.0,2.0,16.0,-206.0,-15.0,19.0,0.0,0.0
38.0,0.0,-20.0,-1.0,10.0,11.0,-213.0,-22.0,8.0,-11.0,0.0
39.0,11.0,-24.0,1.0,17.0,7.0,-165.0,-30.0,13.0,-20.0,0.0
39.0,6.0,21.0,9.0,14.0,22.0,-106.0,-36.0,-2.0,-23.0,0.0
30.0,8.0,-34.0,6.0,8.0,24.0,-64.0,-32.0,6.0,-10.0,0.0
13.0,8.0,-7.0,10.0,18.0,8.0,2.0,-41.0,-10.0,-25.0,0.0
-7.0,16.0,27.0,18.0,18.0,6.0,83.0,-35.0,-3.0,-19.0,0.0
-11.0,21.0,28.0,7.0,8.0,-1.0,66.0,-14.0,8.0,-12.0,0.0
-9.0,14.0,23.0,-4.0,-5.0,-1.0,23.0,-7.0,0.0,-12.0,0.0
-1.0,7.0,7.0,-15.0,-4.0,14.0,-4.0,0.0,-11.0,-7.0,0.0
4.0,13.0,15.0,-20.0,0.0,1.0,-44.0,13.0,-14.0,1.0,0.0
29.0,29.0,32.0,-18.0,-12.0,-27.0,-63.0,35.0,-10.0,16.0,0.0
40.0,40.0,43.0,-21.0,-18.0,-40.0,-57.0,40.0,7.0,26.0,0.0
40.0,36.0,37.0,-34.0,-10.0,-32.0,-57.0,16.0,1.0,6.0,0.0
24.0,25.0,28.0,-27.0,-5.0,-17.0,-78.0,7.0,-2.0,-8.0,0.0
21.0,8.0,29.0,0.0,5.0,-1.0,-159.0,-2.0,-1.0,-27.0,0.0
31.0,1.0,42.0,30.0,32.0,16.0,-265.0,-4.0,-15.0,-29.0,0.0
36.0,0.0,47.0,50.0,48.0,25.0,-298.0,-19.0,-22.0,-26.0,0.0
28.0,2.0,43.0,42.0,59.0,29.0,-248.0,-23.0,-10.0,-31.0,0.0
20.0,11.0,47.0,38.0,58.0,38.0,-182.0,-37.0,-5.0,-17.0,0.0
8.0,9.0,44.0,39.0,25.0,55.0,-122.0,-27.0,11.0,0.0,0.0
-7.0,-15.0,11.0,6.0,6.0,72.0,-86.0,-4.0,26.0,-4.0,0.0
-1.0,-26.0,-68.0,-6.0,-10.0,50.0,-44.0,8.0,15.0,-17.0,0.0
6.0,-14.0,-155.0,-7.0,-5.0,27.0,14.0,13.0,9.0,-12.0,0.0
1.0,6.0,-85.0,17.0,8.0,0.0,59.0,18.0,11.0,-6.0,0.0
8.0,20.0,42.0,10.0,1.0,-19.0,66.0,24.0,17.0,10.0,0.0
10.0,16.0,58.0,-10.0,2.0,-18.0,43.0,18.0,-2.0,4.0,0.0
-4.0,-12.0,8.0,-64.0,-18.0,10.0,15.0,4.0,-12.0,-18.0,0.0
-8.0,-22.0,-6.0,-95.0,-54.0,16.0,-3.0,-1.0,-8.0,-17.0,0.0
-16.0,-26.0,-1.0,-76.0,-56.0,-8.0,-1.0,-4.0,5.0,-7.0,0.0
-18.0,-29.0,5.0,-58.0,-55.0,-32.0,-17.0,-8.0,21.0,4.0,0.0
-15.0,-4.0,-50.0,-37.0,-35.0,-23.0,-67.0,-9.0,1.0,7.0,0.0
-5.0,0.0,-89.0,-3.0,-15.0,-18.0,-153.0,-19.0,-22.0,-2.0,0.0
4.0,4.0,-43.0,0.0,-11.0,-23.0,-210.0,-28.0,-37.0,-3.0,0.0
2.0,5.0,32.0,5.0,-2.0,-4.0,-186.0,-35.0,-43.0,-5.0,0.0
-9.0,9.0,51.0,9.0,8.0,11.0,-102.0,-36.0,-37.0,1.0,0.0
-4.0,11.0,-9.0,4.0,10.0,6.0,-49.0,-30.0,-15.0,8.0,0.0
-12.0,4.0,-30.0,-9.0,-14.0,-7.0,-16.0,-10.0,1.0,8.0,0.0
-3.0,0.0,46.0,-3.0,-20.0,-14.0,28.0,-3.0,6.0,9.0,0.0
6.0,9.0,51.0,0.0,-21.0,-14.0,65.0,-7.0,15.0,16.0,0.0
-15.0,-1.0,40.0,-8.0,-18.0,-3.0,74.0,-16.0,8.0,12.0,0.0
-24.0,-17.0,30.0,-9.0,-20.0,8.0,73.0,-5.0,4.0,3.0,0.0
-22.0,-23.0,-42.0,-4.0,-14.0,2.0,58.0,0.0,1.0,2.0,0.0
-14.0,-21.0,-46.0,-3.0,-5.0,-13.0,30.0,0.0,9.0,7.0,0.0
-5.0,-11.0,39.0,0.0,-15.0,-36.0,0.0,0.0,0.0,8.0,0.0
-8.0,-2.0,45.0,-6.0,-12.0,-38.0,3.0,0.0,-13.0,-1.0,0.0
-14.0,-11.0,44.0,-10.0,-5.0,-26.0,8.0,9.0,-9.0,10.0,0.0
-14.0,-15.0,22.0,-11.0,7.0,-18.0,1.0,9.0,-8.0,27.0,0.0
-12.0,-11.0,-73.0,-5.0,5.0,-10.0,-54.0,-2.0,-7.0,26.0,0.0
-10.0,-10.0,-34.0,1.0,1.0,-4.0,-126.0,-12.0,-4.0,27.0,0.0
-14.0,-19.0,45.0,6.0,0.0,-9.0,-168.0,-22.0,-13.0,19.0,0.0
-13.0,-18.0,45.0,5.0,0.0,-15.0,-140.0,-20.0,-10.0,7.0,0.0
-10.0,-10.0,37.0,16.0,2.0,1.0,-77.0,-15.0,-16.0,-1.0,0.0
-13.0,-7.0,33.0,24.0,16.0,15.0,-32.0,-27.0,-28.0,-8.0,0.0
-9.0,-9.0,42.0,15.0,21.0,11.0,35.0,-28.0,-17.0,-5.0,0.0
-4.0,1.0,39.0,9.0,14.0,9.0,109.0,-41.0,-21.0,3.0,0.0
-3.0,-5.0,35.0,-4.0,8.0,8.0,182.0,-39.0,-27.0,10.0,0.0
-7.0,-7.0,35.0,-13.0,4.0,-3.0,209.0,-20.0,-24.0,-7.0,0.0
-9.0,2.0,30.0,-15.0,7.0,-3.0,165.0,4.0,-27.0,0.0,0.0
-11.0,4.0,22.0,-21.0,11.0,7.0,147.0,28.0,1.0,-1.0,0.0
-7.0,-9.0,3.0,-12.0,8.0,5.0,125.0,22.0,14.0,2.0,0.0
-8.0,3.0,-10.0,-10.0,7.0,3.0,108.0,15.0,-5.0,17.0,0.0
-7.0,12.0,7.0,-2.0,6.0,-2.0,111.0,17.0,-5.0,19.0,0.0
-9.0,17.0,5.0,14.0,9.0,-21.0,82.0,12.0,16.0,9.0,0.0
-11.0,2.0,3.0,21.0,12.0,-35.0,17.0,-3.0,0.0,5.0,0.0
-22.0,-7.0,3.0,22.0,23.0,-24.0,-94.0,-7.0,-29.0,-14.0,0.0
-41.0,-8.0,-23.0,17.0,31.0,4.0,-200.0,-11.0,-32.0,-21.0,0.0
-53.0,-23.0,-134.0,9.0,35.0,44.0,-249.0,-8.0,10.0,-31.0,0.0
-49.0,-14.0,-102.0,13.0,51.0,96.0,-174.0,4.0,17.0,-20.0,0.0
-12.0,14.0,20.0,23.0,47.0,103.0,-75.0,1.0,12.0,0.0,0.0
2.0,24.0,32.0,19.0,39.0,53.0,-23.0,-4.0,7.0,3.0,0.0
3.0,7.0,19.0,27.0,43.0,25.0,16.0,-3.0,-8.0,5.0,0.0
1.0,-6.0,15.0,21.0,47.0,3.0,56.0,-6.0,-18.0,4.0,0.0
5.0,13.0,23.0,16.0,33.0,-38.0,93.0,5.0,-5.0,7.0,0.0
14.0,33.0,-13.0,17.0,9.0,-46.0,110.0,14.0,17.0,15.0,0.0
12.0,38.0,-31.0,17.0,-16.0,-22.0,92.0,18.0,39.0,17.0,0.0
6.0,29.0,19.0,1.0,-19.0,12.0,54.0,45.0,44.0,14.0,0.0
9.0,17.0,16.0,-9.0,-24.0,24.0,41.0,59.0,59.0,36.0,0.0
16.0,18.0,15.0,-14.0,-35.0,-2.0,29.0,57.0,49.0,38.0,0.0
17.0,13.0,11.0,-16.0,-17.0,-14.0,34.0,52.0,37.0,33.0,0.0
3.0,11.0,8.0,-3.0,6.0,-8.0,52.0,39.0,47.0,31.0,0.0
-17.0,-2.0,0.0,10.0,16.0,12.0,-8.0,28.0,12.0,-10.0,0.0
-25.0,-8.0,-13.0,10.0,23.0,52.0,-127.0,26.0,-6.0,-26.0,0.0
-13.0,0.0,-6.0,12.0,9.0,55.0,-199.0,22.0,-11.0,-16.0,0.0
-5.0,12.0,-54.0,8.0,-15.0,20.0,-191.0,17.0,-28.0,-20.0,0.0
-13.0,18.0,-50.0,4.0,-39.0,4.0,-119.0,6.0,-46.0,-15.0,0.0
1.0,27.0,26.0,-4.0,-48.0,-14.0,-59.0,-1.0,-49.0,-2.0,0.0
3.0,28.0,33.0,-4.0,-40.0,-3.0,-26.0,4.0,-34.0,-5.0,0.0
-6.0,23.0,21.0,-10.0,-33.0,10.0,18.0,14.0,24.0,0.0,0.0
1.0,22.0,23.0,-11.0,-32.0,6.0,74.0,11.0,46.0,3.0,0.0
11.0,24.0,28.0,-16.0,-31.0,4.0,126.0,10.0,38.0,18.0,0.0
11.0,21.0,22.0,-17.0,-33.0,-9.0,135.0,13.0,15.0,29.0,0.0
3.0,24.0,5.0,-19.0,-36.0,-15.0,105.0,5.0,31.0,17.0,0.0
2.0,16.0,-4.0,-25.0,-30.0,-9.0,76.0,-1.0,16.0,15.0,0.0
5.0,7.0,4.0,-18.0,-23.0,-11.0,51.0,4.0,24.0,10.0,0.0
8.0,11.0,18.0,-13.0,-20.0,-11.0,44.0,7.0,16.0,4.0,0.0
0.0,7.0,4.0,-14.0,-12.0,-5.0,28.0,6.0,11.0,0.0,0.0
-2.0,1.0,-71.0,-3.0,-1.0,4.0,-3.0,0.0,-10.0,-11.0,0.0
-18.0,-5.0,-52.0,0.0,15.0,24.0,-88.0,-2.0,-15.0,-19.0,0.0
-17.0,-17.0,9.0,-3.0,21.0,53.0,-187.0,-10.0,-45.0,-16.0,0.0
-18.0,-17.0,22.0,2.0,47.0,65.0,-215.0,-12.0,-49.0,-16.0,0.0
-21.0,-21.0,29.0,1.0,64.0,70.0,-168.0,-6.0,-46.0,-28.0,0.0
-8.0,-27.0,13.0,-1.0,54.0,55.0,-104.0,8.0,-45.0,-16.0,0.0
4.0,-6.0,8.0,13.0,2.0,20.0,-40.0,8.0,-25.0,13.0,0.0
17.0,11.0,53.0,21.0,-46.0,-43.0,25.0,2.0,-15.0,25.0,0.0
8.0,11.0,46.0,24.0,-43.0,-62.0,58.0,-6.0,-12.0,21.0,0.0
1.0,-5.0,13.0,17.0,-27.0,-43.0,109.0,-29.0,-24.0,16.0,0.0
13.0,-3.0,-37.0,5.0,-24.0,-11.0,142.0,-21.0,-36.0,11.0,0.0
14.0,-9.0,-30.0,9.0,-17.0,0.0,95.0,-14.0,-38.0,9.0,0.0
3.0,-6.0,-94.0,15.0,-6.0,-2.0,36.0,-11.0,-30.0,6.0,0.0
3.0,-3.0,-22.0,15.0,-5.0,-9.0,11.0,-15.0,51.0,27.0,0.0
-1.0,11.0,21.0,19.0,-6.0,-10.0,14.0,-5.0,70.0,36.0,0.0
-17.0,7.0,13.0,13.0,0.0,-1.0,13.0,-1.0,14.0,10.0,0.0
-10.0,-13.0,21.0,17.0,-5.0,11.0,0.0,6.0,-25.0,9.0,0.0
-10.0,-8.0,35.0,5.0,-10.0,20.0,-38.0,15.0,-29.0,2.0,0.0
-24.0,-19.0,-8.0,-9.0,0.0,42.0,-126.0,13.0,-26.0,-15.0,0.0
-21.0,-21.0,-73.0,-15.0,-7.0,54.0,-222.0,6.0,-24.0,-23.0,0.0
-26.0,-5.0,6.0,-2.0,-12.0,1.0,-233.0,-6.0,-28.0,-16.0,0.0
-18.0,7.0,29.0,13.0,-17.0,-85.0,-165.0,-11.0,-32.0,-8.0,0.0
-4.0,5.0,24.0,25.0,-13.0,-115.0,-103.0,-5.0,-28.0,-4.0,0.0
-8.0,-14.0,24.0,19.0,10.0,-97.0,-71.0,-14.0,-40.0,-23.0,0.0
-6.0,-35.0,-42.0,5.0,30.0,-46.0,-30.0,-19.0,-43.0,-37.0,0.0
-8.0,-23.0,-40.0,-10.0,28.0,9.0,15.0,-5.0,-24.0,-20.0,0.0
32.0,-2.0,32.0,-20.0,7.0,52.0,63.0,20.0,10.0,4.0,0.0
63.0,23.0,47.0,-22.0,-8.0,52.0,107.0,60.0,43.0,26.0,0.0
63.0,17.0,-17.0,-31.0,-36.0,3.0,76.0,55.0,43.0,29.0,0.0
43.0,-1.0,-64.0,-29.0,-30.0,-10.0,25.0,32.0,32.0,11.0,0.0
31.0,-1.0,14.0,-23.0,-23.0,-16.0,-16.0,12.0,19.0,17.0,0.0
34.0,5.0,27.0,-25.0,-20.0,-10.0,-28.0,4.0,18.0,17.0,0.0
32.0,5.0,28.0,-26.0,-1.0,-7.0,-29.0,7.0,15.0,8.0,0.0
23.0,9.0,30.0,-17.0,4.0,3.0,-55.0,-3.0,6.0,0.0,0.0
33.0,10.0,28.0,-9.0,2.0,8.0,-113.0,-4.0,12.0,1.0,0.0
33.0,3.0,36.0,-1.0,15.0,12.0,-198.0,-4.0,1.0,7.0,0.0
29.0,8.0,30.0,1.0,27.0,17.0,-247.0,-15.0,1.0,-1.0,0.0
36.0,-2.0,25.0,7.0,20.0,2.0,-202.0,-13.0,-18.0,-13.0,0.0
24.0,3.0,12.0,23.0,1.0,-27.0,-109.0,-14.0,-7.0,-17.0,0.0
20.0,2.0,-78.0,11.0,-5.0,-32.0,-40.0,-11.0,8.0,-3.0,0.0
10.0,-10.0,-51.0,2.0,-1.0,-23.0,-8.0,-4.0,-6.0,-9.0,0.0
-4.0,-18.0,23.0,0.0,11.0,-14.0,34.0,-9.0,-22.0,-23.0,0.0
-11.0,-25.0,28.0,-3.0,22.0,-3.0,69.0,-14.0,-27.0,-20.0,0.0
-6.0,-19.0,14.0,-4.0,20.0,-5.0,98.0,-12.0,-20.0,-12.0,0.0
13.0,-14.0,8.0,-9.0,16.0,-25.0,114.0,-15.0,-13.0,-14.0,0.0
22.0,-12.0,-71.0,-2.0,-1.0,-34.0,97.0,-15.0,-9.0,-26.0,0.0
32.0,1.0,-91.0,6.0,-20.0,-53.0,64.0,-10.0,10.0,-19.0,0.0
32.0,3.0,25.0,1.0,-22.0,-50.0,51.0,-10.0,21.0,-15.0,0.0
27.0,-9.0,37.0,-16.0,-19.0,-29.0,57.0,-8.0,23.0,-24.0,0.0
26.0,-18.0,35.0,-16.0,-20.0,-12.0,65.0,-11.0,26.0,-20.0,0.0
21.0,-18.0,45.0,1.0,-8.0,2.0,34.0,-9.0,4.0,-5.0,0.0
15.0,-14.0,43.0,9.0,10.0,14.0,-51.0,-4.0,2.0,-16.0,0.0
6.0,-13.0,36.0,12.0,15.0,1.0,-134.0,-12.0,7.0,-35.0,0.0
10.0,-7.0,31.0,22.0,30.0,5.0,-131.0,-22.0,-8.0,-26.0,0.0
5.0,-12.0,39.0,30.0,34.0,29.0,-73.0,-22.0,-16.0,-21.0,0.0
-9.0,-15.0,37.0,20.0,29.0,33.0,-29.0,-15.0,-2.0,-31.0,0.0
-16.0,-2.0,38.0,11.0,16.0,22.0,6.0,3.0,0.0,-20.0,0.0
-24.0,-1.0,23.0,9.0,16.0,20.0,39.0,13.0,9.0,-16.0,0.0
-37.0,-14.0,3.0,5.0,13.0,-3.0,60.0,11.0,10.0,-25.0,0.0
-38.0,-12.0,10.0,4.0,0.0,-27.0,108.0,-7.0,3.0,-23.0,0.0
-38.0,-11.0,-6.0,2.0,-9.0,-33.0,156.0,-24.0,-7.0,-27.0,0.0
-61.0,-10.0,4.0,11.0,4.0,-4.0,127.0,-29.0,-15.0,-35.0,0.0
-60.0,1.0,4.0,23.0,26.0,25.0,64.0,-42.0,-18.0,-32.0,0.0
-36.0,-6.0,0.0,19.0,53.0,48.0,21.0,-51.0,-25.0,-49.0,0.0
-42.0,-14.0,0.0,19.0,57.0,59.0,24.0,-42.0,-18.0,-61.0,0.0
-23.0,5.0,1.0,19.0,35.0,53.0,48.0,-18.0,5.0,-28.0,0.0
15.0,46.0,24.0,11.0,0.0,-7.0,43.0,-4.0,18.0,1.0,0.0
31.0,54.0,25.0,0.0,-32.0,-51.0,-13.0,-6.0,26.0,14.0,0.0
12.0,44.0,6.0,9.0,-50.0,-55.0,-105.0,-4.0,13.0,13.0,0.0
2.0,21.0,-9.0,-7.0,-42.0,-19.0,-165.0,0.0,22.0,0.0,0.0
-8.0,-4.0,-14.0,-16.0,-14.0,11.0,-152.0,0.0,12.0,-13.0,0.0
0.0,-7.0,-7.0,5.0,0.0,34.0,-96.0,3.0,4.0,0.0,0.0
3.0,-3.0,2.0,5.0,3.0,11.0,-28.0,15.0,18.0,8.0,0.0
1.0,4.0,17.0,18.0,2.0,-20.0,34.0,15.0,12.0,1.0,0.0
22.0,3.0,17.0,25.0,-3.0,-22.0,92.0,20.0,14.0,-3.0,0.0
17.0,-6.0,8.0,8.0,-17.0,-23.0,138.0,13.0,3.0,-9.0,0.0
7.0,-15.0,-3.0,8.0,-35.0,-24.0,152.0,7.0,11.0,-6.0,0.0
0.0,-17.0,-11.0,-13.0,-45.0,7.0,135.0,7.0,30.0,6.0,0.0
-7.0,4.0,-10.0,-21.0,-52.0,2.0,119.0,18.0,29.0,2.0,0.0
10.0,19.0,-11.0,-12.0,-59.0,-25.0,101.0,28.0,27.0,-5.0,0.0
15.0,11.0,-22.0,-22.0,-58.0,-29.0,109.0,19.0,14.0,6.0,0.0
0.0,9.0,-15.0,-19.0,-49.0,-27.0,107.0,7.0,27.0,19.0,0.0
-7.0,14.0,-9.0,-7.0,-33.0,-24.0,99.0,2.0,23.0,13.0,0.0
0.0,15.0,3.0,-6.0,-22.0,-14.0,50.0,2.0,14.0,3.0,0.0
0.0,15.0,-3.0,3.0,-7.0,-14.0,-20.0,-3.0,0.0,0.0,0.0
-6.0,17.0,-103.0,9.0,0.0,-3.0,-102.0,-3.0,0.0,7.0,0.0
3.0,12.0,-158.0,11.0,2.0,12.0,-181.0,-13.0,-12.0,-2.0,0.0
14.0,0.0,-62.0,10.0,12.0,31.0,-135.0,-20.0,-20.0,-10.0,0.0
1.0,7.0,-1.0,11.0,19.0,34.0,-65.0,-12.0,-20.0,-14.0,0.0
-6.0,22.0,9.0,12.0,37.0,33.0,-25.0,-17.0,-28.0,-19.0,0.0
4.0,25.0,25.0,18.0,36.0,26.0,26.0,-8.0,-38.0,-29.0,0.0
0.0,32.0,34.0,27.0,43.0,26.0,78.0,-6.0,-45.0,-24.0,0.0
-5.0,42.0,34.0,32.0,42.0,22.0,124.0,-3.0,-47.0,-17.0,0.0
-13.0,30.0,-9.0,9.0,27.0,40.0,154.0,3.0,-32.0,-8.0,0.0
-20.0,3.0,-56.0,-28.0,6.0,43.0,104.0,5.0,1.0,-19.0,0.0
-4.0,1.0,-150.0,-36.0,9.0,22.0,76.0,6.0,7.0,-16.0,0.0
0.0,14.0,-117.0,-24.0,33.0,1.0,55.0,-1.0,30.0,-9.0,0.0
-3.0,17.0,0.0,-23.0,23.0,-17.0,50.0,-4.0,69.0,0.0,0.0
-10.0,18.0,34.0,-7.0,18.0,-10.0,46.0,2.0,38.0,-4.0,0.0
-16.0,11.0,37.0,-18.0,12.0,5.0,39.0,10.0,8.0,-18.0,0.0
-1.0,6.0,33.0,-33.0,-21.0,-1.0,-3.0,11.0,-11.0,-14.0,0.0
11.0,4.0,8.0,-41.0,-35.0,1.0,-87.0,14.0,-18.0,-5.0,0.0
1.0,4.0,6.0,-35.0,-48.0,6.0,-158.0,34.0,0.0,25.0,0.0
18.0,12.0,15.0,-18.0,-61.0,-13.0,-156.0,28.0,5.0,25.0,0.0
18.0,17.0,17.0,-16.0,-42.0,-32.0,-99.0,18.0,4.0,11.0,0.0
23.0,14.0,8.0,-12.0,-29.0,-29.0,-47.0,25.0,11.0,14.0,0.0
13.0,-3.0,-55.0,-4.0,-12.0,-11.0,-5.0,26.0,1.0,9.0,0.0
6.0,-2.0,-43.0,6.0,21.0,0.0,43.0,20.0,4.0,4.0,0.0
3.0,12.0,-34.0,8.0,28.0,30.0,90.0,2.0,-2.0,-8.0,0.0
-2.0,5.0,-67.0,-4.0,16.0,46.0,104.0,-6.0,-8.0,-18.0,0.0
15.0,-2.0,-55.0,-22.0,-10.0,18.0,115.0,-14.0,-9.0,-2.0,0.0
19.0,-13.0,13.0,-46.0,-27.0,5.0,122.0,-2.0,5.0,17.0,0.0
11.0,-20.0,29.0,-58.0,-37.0,-9.0,70.0,7.0,16.0,13.0,0.0
16.0,-21.0,2.0,-27.0,-38.0,-20.0,49.0,3.0,24.0,9.0,0.0
8.0,-27.0,-38.0,-11.0,-40.0,-23.0,43.0,3.0,15.0,-1.0,0.0
8.0,-28.0,9.0,-18.0,-26.0,-30.0,29.0,15.0,15.0,-1.0,0.0
-7.0,-30.0,6.0,-15.0,-34.0,-52.0,-10.0,15.0,16.0,-9.0,0.0
-13.0,-32.0,11.0,-23.0,-33.0,-61.0,-93.0,11.0,21.0,-19.0,0.0
-8.0,-27.0,18.0,-18.0,-28.0,-52.0,-167.0,-2.0,18.0,-11.0,0.0
-17.0,-23.0,12.0,-10.0,-31.0,-22.0,-215.0,-12.0,-4.0,-2.0,0.0
1.0,-15.0,22.0,3.0,-15.0,31.0,-212.0,-19.0,-10.0,4.0,0.0
31.0,2.0,46.0,17.0,5.0,52.0,-138.0,-5.0,9.0,30.0,0.0
10.0,13.0,37.0,13.0,2.0,44.0,-56.0,8.0,9.0,38.0,0.0
-21.0,1.0,25.0,12.0,-9.0,14.0,-11.0,4.0,-6.0,26.0,0.0
-17.0,-10.0,31.0,7.0,-3.0,13.0,18.0,3.0,-6.0,11.0,0.0
-20.0,-4.0,-9.0,13.0,-4.0,20.0,52.0,2.0,-3.0,5.0,0.0
-22.0,-11.0,-93.0,21.0,-4.0,16.0,54.0,1.0,-14.0,0.0,0.0
-16.0,-13.0,-28.0,28.0,-8.0,3.0,38.0,11.0,-7.0,3.0,0.0
-8.0,-10.0,16.0,34.0,-13.0,-13.0,21.0,15.0,1.0,16.0,0.0
-9.0,-13.0,19.0,34.0,-6.0,-11.0,13.0,4.0,2.0,7.0,0.0
-16.0,-6.0,24.0,40.0,0.0,-4.0,1.0,12.0,6.0,8.0,0.0
-13.0,-6.0,28.0,32.0,-11.0,-11.0,9.0,25.0,3.0,8.0,0.0
-9.0,-10.0,25.0,26.0,-16.0,-18.0,27.0,27.0,-4.0,6.0,0.0
-3.0,-9.0,24.0,39.0,-7.0,-22.0,2.0,23.0,-17.0,12.0,0.0
0.0,0.0,29.0,42.0,0.0,-18.0,-76.0,19.0,-34.0,9.0,0.0
-6.0,-7.0,25.0,45.0,12.0,-10.0,-148.0,18.0,-23.0,2.0,0.0
-15.0,-12.0,16.0,43.0,14.0,-7.0,-207.0,31.0,-30.0,1.0,0.0
-10.0,-5.0,19.0,50.0,14.0,-7.0,-165.0,24.0,-30.0,2.0,0.0
-6.0,-10.0,21.0,45.0,20.0,-1.0,-89.0,32.0,-31.0,1.0,0.0
-2.0,-17.0,21.0,37.0,23.0,7.0,-11.0,26.0,-36.0,0.0,0.0
-9.0,-18.0,2.0,33.0,17.0,22.0,69.0,14.0,-24.0,4.0,0.0
-34.0,-15.0,-101.0,21.0,24.0,21.0,133.0,15.0,-19.0,5.0,0.0
-52.0,-8.0,-115.0,14.0,25.0,13.0,144.0,23.0,-7.0,2.0,0.0
-37.0,-5.0,-15.0,17.0,18.0,26.0,140.0,34.0,13.0,8.0,0.0
-27.0,-16.0,24.0,12.0,18.0,24.0,111.0,42.0,18.0,11.0,0.0
-32.0,-15.0,29.0,10.0,8.0,20.0,63.0,41.0,14.0,18.0,0.0
-20.0,-14.0,21.0,-2.0,5.0,35.0,45.0,37.0,20.0,18.0,0.0
-12.0,-22.0,1.0,-26.0,5.0,28.0,16.0,35.0,11.0,12.0,0.0
-10.0,-20.0,1.0,-23.0,3.0,19.0,12.0,36.0,1.0,14.0,0.0
-10.0,-11.0,10.0,-9.0,3.0,1.0,33.0,22.0,-3.0,12.0,0.0
-6.0,-6.0,7.0,-4.0,6.0,-11.0,5.0,6.0,-15.0,20.0,0.0
-3.0,-15.0,-9.0,-13.0,16.0,5.0,-81.0,-24.0,-29.0,-9.0,0.0
-9.0,-25.0,-6.0,-2.0,35.0,21.0,-148.0,-38.0,-52.0,-24.0,0.0
1.0,-18.0,2.0,22.0,61.0,33.0,-126.0,-26.0,-51.0,-17.0,0.0
10.0,-8.0,14.0,41.0,69.0,51.0,-75.0,-14.0,-34.0,9.0,0.0
17.0,4.0,47.0,50.0,56.0,32.0,-46.0,0.0,-28.0,14.0,0.0
12.0,7.0,1.0,41.0,23.0,-31.0,-17.0,4.0,-10.0,22.0,0.0
3.0,9.0,2.0,35.0,-13.0,-66.0,29.0,-1.0,-3.0,22.0,0.0
8.0,14.0,35.0,31.0,-22.0,-89.0,65.0,-7.0,9.0,19.0,0.0
-13.0,-7.0,7.0,12.0,-4.0,-55.0,63.0,-12.0,-13.0,-12.0,0.0
-4.0,-5.0,2.0,-8.0,1.0,-16.0,81.0,-6.0,-15.0,-3.0,0.0
29.0,21.0,-31.0,-5.0,-20.0,-29.0,102.0,19.0,-8.0,16.0,0.0
49.0,34.0,-28.0,0.0,-46.0,-42.0,67.0,34.0,9.0,47.0,0.0
64.0,40.0,16.0,-12.0,-64.0,-51.0,55.0,59.0,15.0,60.0,0.0
55.0,32.0,-23.0,-13.0,-71.0,-57.0,49.0,43.0,12.0,41.0,0.0
44.0,14.0,-75.0,-17.0,-43.0,-46.0,51.0,32.0,9.0,29.0,0.0
29.0,14.0,16.0,-17.0,1.0,-33.0,54.0,25.0,2.0,21.0,0.0
29.0,16.0,47.0,0.0,17.0,-25.0,-11.0,16.0,-1.0,25.0,0.0
19.0,11.0,45.0,16.0,15.0,-44.0,-117.0,13.0,-10.0,9.0,0.0
35.0,3.0,47.0,9.0,-2.0,-74.0,-190.0,-7.0,-18.0,-5.0,0.0
28.0,-8.0,30.0,-5.0,-19.0,-80.0,-173.0,-37.0,-44.0,-21.0,0.0
18.0,-15.0,-11.0,-24.0,-14.0,-2.0,-93.0,-35.0,-31.0,-18.0,0.0
30.0,-7.0,-100.0,-19.0,0.0,56.0,-43.0,-18.0,0.0,1.0,0.0
42.0,-3.0,-101.0,4.0,1.0,51.0,-15.0,7.0,30.0,34.0,0.0
62.0,3.0,-93.0,4.0,2.0,25.0,42.0,15.0,31.0,29.0,0.0
44.0,7.0,-55.0,-6.0,7.0,5.0,80.0,9.0,19.0,11.0,0.0
35.0,-8.0,43.0,0.0,5.0,0.0,88.0,7.0,12.0,12.0,0.0
40.0,-13.0,45.0,-11.0,1.0,11.0,83.0,2.0,16.0,11.0,0.0
28.0,-24.0,14.0,-30.0,-5.0,13.0,72.0,-3.0,19.0,23.0,0.0
21.0,-17.0,27.0,-25.0,-15.0,-1.0,20.0,-3.0,13.0,10.0,0.0
24.0,0.0,30.0,-6.0,-15.0,-10.0,-1.0,-10.0,15.0,0.0,0.0
24.0,1.0,30.0,4.0,-20.0,-12.0,24.0,-17.0,16.0,5.0,0.0
21.0,1.0,29.0,4.0,-18.0,-28.0,49.0,-16.0,24.0,16.0,0.0
20.0,3.0,22.0,13.0,-2.0,-26.0,14.0,-15.0,26.0,20.0,0.0
1.0,-2.0,31.0,23.0,-1.0,-30.0,-67.0,-34.0,-3.0,11.0,0.0
-4.0,-9.0,34.0,17.0,-2.0,-19.0,-132.0,-34.0,0.0,21.0,0.0
-7.0,-2.0,29.0,10.0,17.0,1.0,-139.0,-29.0,7.0,12.0,0.0
1.0,4.0,33.0,10.0,20.0,20.0,-75.0,-48.0,-8.0,6.0,0.0
14.0,-2.0,27.0,19.0,13.0,20.0,-14.0,-53.0,-15.0,6.0,0.0
7.0,-3.0,-3.0,26.0,11.0,-2.0,14.0,-51.0,-28.0,1.0,0.0
-1.0,7.0,30.0,15.0,21.0,-19.0,81.0,-56.0,-25.0,-9.0,0.0
-10.0,6.0,38.0,13.0,27.0,-24.0,142.0,-55.0,-40.0,-22.0,0.0
-18.0,17.0,25.0,17.0,35.0,-6.0,146.0,-43.0,-66.0,-26.0,0.0
-13.0,16.0,-4.0,15.0,39.0,13.0,120.0,-46.0,-30.0,-20.0,0.0
-23.0,-2.0,-92.0,-3.0,14.0,3.0,101.0,-38.0,38.0,-9.0,0.0
-34.0,-6.0,-35.0,-13.0,10.0,-1.0,82.0,-19.0,25.0,-22.0,0.0
-22.0,-10.0,15.0,2.0,20.0,-1.0,88.0,-13.0,-11.0,-37.0,0.0
4.0,-9.0,32.0,0.0,11.0,-26.0,75.0,-13.0,-17.0,-39.0,0.0
17.0,3.0,49.0,-13.0,-2.0,-34.0,95.0,-11.0,2.0,-31.0,0.0
11.0,2.0,34.0,-22.0,-4.0,-27.0,60.0,-10.0,16.0,-18.0,0.0
12.0,-1.0,27.0,-28.0,-9.0,-11.0,-37.0,-7.0,25.0,-9.0,0.0
1.0,1.0,29.0,-37.0,0.0,19.0,-131.0,-2.0,9.0,-4.0,0.0
7.0,1.0,20.0,-37.0,15.0,17.0,-185.0,-6.0,-2.0,-4.0,0.0
2.0,6.0,16.0,-28.0,17.0,7.0,-148.0,-5.0,-4.0,-10.0,0.0
16.0,6.0,14.0,-7.0,22.0,14.0,-83.0,-10.0,8.0,-18.0,0.0
2.0,-12.0,-29.0,17.0,47.0,38.0,-33.0,-16.0,9.0,-23.0,0.0
-17.0,-20.0,-33.0,37.0,66.0,52.0,-12.0,-15.0,-13.0,-31.0,0.0
-15.0,-26.0,-11.0,39.0,71.0,56.0,30.0,-15.0,-15.0,-40.0,0.0
-21.0,-13.0,19.0,35.0,69.0,44.0,101.0,-39.0,-13.0,-37.0,0.0
-11.0,-2.0,41.0,36.0,52.0,36.0,122.0,-22.0,-9.0,-21.0,0.0
3.0,-10.0,28.0,-5.0,16.0,9.0,104.0,19.0,6.0,-3.0,0.0
11.0,-5.0,-2.0,-38.0,-28.0,-1.0,100.0,54.0,23.0,13.0,0.0
0.0,8.0,-83.0,-41.0,-36.0,-5.0,81.0,62.0,23.0,23.0,0.0
-1.0,-3.0,-110.0,-35.0,-32.0,-15.0,45.0,39.0,13.0,1.0,0.0
-7.0,-16.0,-153.0,-27.0,-26.0,-28.0,16.0,13.0,10.0,-12.0,0.0
-11.0,-16.0,-140.0,-18.0,-18.0,-22.0,-7.0,-3.0,6.0,-10.0,0.0
-22.0,-16.0,-38.0,-13.0,7.0,0.0,-55.0,-7.0,-7.0,-12.0,0.0
-20.0,-13.0,34.0,6.0,23.0,27.0,-105.0,-11.0,-16.0,-10.0,0.0
-12.0,-17.0,19.0,-6.0,23.0,35.0,-178.0,-8.0,-14.0,-22.0,0.0
-3.0,-6.0,-24.0,-10.0,19.0,40.0,-213.0,0.0,-12.0,-12.0,0.0
8.0,18.0,20.0,0.0,5.0,18.0,-154.0,9.0,1.0,5.0,0.0
0.0,28.0,30.0,10.0,-2.0,-7.0,-67.0,1.0,12.0,13.0,0.0
-22.0,32.0,-78.0,19.0,0.0,-11.0,-16.0,-2.0,30.0,-2.0,0.0
-18.0,20.0,-83.0,4.0,-3.0,-15.0,33.0,-2.0,26.0,-5.0,0.0
-39.0,13.0,8.0,-4.0,-10.0,-7.0,83.0,9.0,29.0,-12.0,0.0
-57.0,-6.0,46.0,-19.0,-14.0,18.0,100.0,11.0,20.0,-17.0,0.0
-52.0,-19.0,38.0,-36.0,-15.0,37.0,93.0,0.0,24.0,-8.0,0.0
-35.0,0.0,44.0,-31.0,-20.0,19.0,84.0,4.0,26.0,7.0,0.0
-22.0,21.0,57.0,-14.0,-26.0,-4.0,55.0,7.0,25.0,12.0,0.0
-25.0,14.0,55.0,-8.0,-27.0,-15.0,52.0,8.0,36.0,9.0,0.0
-21.0,7.0,2.0,-12.0,-27.0,-14.0,53.0,2.0,26.0,3.0,0.0
-24.0,15.0,-89.0,-16.0,-40.0,-7.0,52.0,2.0,25.0,-1.0,0.0
-30.0,22.0,5.0,-13.0,-40.0,-6.0,46.0,1.0,7.0,1.0,0.0
-23.0,28.0,61.0,-26.0,-35.0,-12.0,-6.0,-12.0,0.0,7.0,0.0
-18.0,24.0,66.0,-10.0,-28.0,-10.0,-127.0,-12.0,2.0,11.0,0.0
-21.0,20.0,68.0,2.0,-8.0,-2.0,-210.0,-5.0,2.0,12.0,0.0
-19.0,9.0,76.0,8.0,-2.0,0.0,-214.0,0.0,16.0,-2.0,0.0
-17.0,-1.0,78.0,19.0,-8.0,4.0,-163.0,4.0,7.0,-5.0,0.0
-17.0,-8.0,74.0,29.0,-16.0,2.0,-99.0,-2.0,15.0,2.0,0.0
-43.0,-19.0,70.0,24.0,-20.0,-1.0,-37.0,-7.0,14.0,-4.0,0.0
-55.0,-23.0,50.0,13.0,-7.0,-4.0,-4.0,-22.0,4.0,-10.0,0.0
-48.0,-17.0,35.0,-5.0,-14.0,14.0,45.0,-17.0,15.0,-8.0,0.0
-19.0,-9.0,24.0,-15.0,-26.0,42.0,84.0,1.0,33.0,15.0,0.0
8.0,8.0,26.0,-5.0,-25.0,66.0,88.0,18.0,42.0,36.0,0.0
9.0,18.0,-34.0,3.0,-28.0,37.0,89.0,21.0,57.0,23.0,0.0
-1.0,5.0,-33.0,-2.0,-26.0,-4.0,54.0,1.0,36.0,7.0,0.0
1.0,3.0,16.0,5.0,-20.0,-19.0,14.0,-12.0,32.0,11.0,0.0
5.0,3.0,12.0,21.0,-13.0,-25.0,16.0,-18.0,20.0,17.0,0.0
6.0,-4.0,10.0,16.0,-5.0,-29.0,29.0,-26.0,11.0,0.0,0.0
7.0,-20.0,11.0,9.0,9.0,-16.0,7.0,-29.0,-3.0,-25.0,0.0
-14.0,-26.0,-2.0,23.0,49.0,43.0,-56.0,-21.0,4.0,-24.0,0.0
-43.0,-24.0,-8.0,43.0,70.0,82.0,-159.0,-12.0,-2.0,-12.0,0.0
-40.0,-25.0,23.0,40.0,72.0,94.0,-207.0,-17.0,2.0,-11.0,0.0
-46.0,-31.0,7.0,21.0,54.0,111.0,-190.0,-34.0,-3.0,-17.0,0.0
-37.0,-11.0,11.0,29.0,16.0,70.0,-126.0,-26.0,12.0,-1.0,0.0
-14.0,5.0,-15.0,29.0,-7.0,26.0,-74.0,-13.0,1.0,28.0,0.0
-9.0,-5.0,-21.0,18.0,17.0,42.0,-32.0,-29.0,-20.0,10.0,0.0
1.0,5.0,15.0,29.0,18.0,30.0,18.0,-28.0,-15.0,10.0,0.0
6.0,25.0,-22.0,30.0,-10.0,-29.0,62.0,-32.0,8.0,26.0,0.0
32.0,39.0,17.0,8.0,-36.0,-68.0,86.0,-35.0,30.0,37.0,0.0
28.0,29.0,12.0,-13.0,-34.0,-64.0,91.0,-36.0,17.0,27.0,0.0
7.0,16.0,-101.0,-22.0,-35.0,-56.0,95.0,-39.0,-19.0,10.0,0.0
-12.0,-4.0,-80.0,-19.0,-17.0,-17.0,87.0,-31.0,-35.0,13.0,0.0
-12.0,12.0,18.0,-11.0,-4.0,18.0,51.0,-6.0,-1.0,14.0,0.0
-3.0,35.0,51.0,-12.0,-33.0,-13.0,34.0,-2.0,2.0,20.0,0.0
14.0,42.0,57.0,-21.0,-79.0,-65.0,25.0,7.0,8.0,41.0,0.0
5.0,28.0,37.0,-32.0,-95.0,-76.0,-30.0,32.0,17.0,26.0,0.0
-8.0,16.0,25.0,-31.0,-78.0,-34.0,-103.0,41.0,51.0,17.0,0.0
0.0,8.0,22.0,-29.0,-67.0,-12.0,-173.0,38.0,32.0,21.0,0.0
1.0,15.0,22.0,-24.0,-46.0,-9.0,-193.0,28.0,25.0,6.0,0.0
-16.0,15.0,20.0,-8.0,-22.0,-3.0,-135.0,20.0,20.0,16.0,0.0
-15.0,13.0,24.0,0.0,-5.0,-9.0,-55.0,20.0,9.0,13.0,0.0
-3.0,15.0,22.0,8.0,-3.0,-10.0,21.0,27.0,6.0,8.0,0.0
2.0,10.0,18.0,-7.0,-1.0,4.0,68.0,35.0,-3.0,3.0,0.0
5.0,6.0,11.0,-26.0,-10.0,10.0,112.0,15.0,-8.0,-6.0,0.0
-8.0,1.0,-3.0,-23.0,-11.0,-3.0,119.0,2.0,-16.0,-9.0,0.0
-8.0,2.0,-10.0,-21.0,-12.0,-14.0,116.0,13.0,-23.0,-13.0,0.0
6.0,7.0,7.0,-18.0,-8.0,-6.0,131.0,30.0,-29.0,-14.0,0.0
11.0,3.0,12.0,-33.0,5.0,4.0,135.0,39.0,-40.0,-11.0,0.0
16.0,8.0,1.0,-24.0,22.0,-9.0,133.0,33.0,-47.0,-8.0,0.0
4.0,5.0,-4.0,-2.0,18.0,-16.0,115.0,34.0,-5.0,1.0,0.0
-25.0,-3.0,-26.0,-4.0,21.0,-2.0,109.0,34.0,34.0,14.0,0.0
-42.0,-5.0,-22.0,-15.0,30.0,-6.0,91.0,25.0,16.0,2.0,0.0
-5.0,8.0,-9.0,-7.0,38.0,-7.0,8.0,14.0,-14.0,-7.0,0.0
8.0,18.0,-31.0,-11.0,41.0,0.0,-87.0,-2.0,-22.0,0.0,0.0
-3.0,17.0,-98.0,-19.0,43.0,-1.0,-128.0,-12.0,-46.0,-3.0,0.0
-1.0,5.0,-36.0,-7.0,47.0,-1.0,-97.0,-19.0,-53.0,-15.0,0.0
19.0,5.0,-2.0,2.0,41.0,3.0,-36.0,-27.0,-44.0,-21.0,0.0
19.0,18.0,1.0,0.0,34.0,16.0,13.0,-25.0,-24.0,-12.0,0.0
15.0,14.0,-9.0,0.0,30.0,19.0,30.0,-14.0,-7.0,-9.0,0.0
11.0,4.0,-8.0,-2.0,21.0,6.0,77.0,-14.0,-1.0,-12.0,0.0
7.0,7.0,-13.0,0.0,10.0,0.0,129.0,-11.0,3.0,-9.0,0.0
13.0,8.0,-31.0,-13.0,9.0,-5.0,147.0,0.0,5.0,-1.0,0.0
26.0,5.0,-63.0,-14.0,14.0,-13.0,148.0,-1.0,-6.0,4.0,0.0
