channel0,channel1,channel2,channel3,channel4,channel5,channel6,channel7,channel8,channel9,true_locs
-5.0,-2.0,45.0,20.0,6.0,16.0,24.0,15.0,16.0,-5.0,0.0
-11.0,-8.0,-9.0,20.0,-9.0,21.0,10.0,-2.0,14.0,-9.0,0.0
-20.0,-14.0,-45.0,25.0,-18.0,5.0,-6.0,-13.0,8.0,-9.0,0.0
-19.0,-6.0,-25.0,7.0,-19.0,0.0,-11.0,-6.0,3.0,-8.0,0.0
-2.0,6.0,-15.0,1.0,-14.0,-2.0,-8.0,-4.0,7.0,0.0,0.0
3.0,13.0,-15.0,6.0,-7.0,-11.0,-8.0,-11.0,7.0,8.0,0.0
7.0,7.0,-2.0,19.0,6.0,-5.0,-6.0,-17.0,8.0,24.0,0.0
8.0,-2.0,5.0,16.0,13.0,-4.0,0.0,-17.0,11.0,18.0,0.0
2.0,0.0,16.0,14.0,12.0,1.0,-9.0,-5.0,6.0,13.0,0.0
-6.0,0.0,17.0,11.0,10.0,-2.0,-14.0,-1.0,0.0,11.0,0.0
-11.0,2.0,11.0,2.0,18.0,-1.0,-13.0,-1.0,-8.0,9.0,0.0
-13.0,4.0,11.0,6.0,22.0,3.0,-15.0,-7.0,-5.0,7.0,0.0
-15.0,-7.0,-8.0,12.0,14.0,6.0,-7.0,-4.0,5.0,7.0,0.0
-9.0,1.0,-3.0,8.0,19.0,-3.0,-11.0,-4.0,15.0,6.0,0.0
11.0,17.0,8.0,5.0,10.0,-11.0,-17.0,-9.0,13.0,9.0,0.0
17.0,9.0,11.0,1.0,8.0,-18.0,-13.0,-15.0,20.0,19.0,0.0
17.0,9.0,14.0,1.0,3.0,-15.0,2.0,-26.0,17.0,15.0,0.0
13.0,16.0,9.0,6.0,-9.0,-19.0,6.0,-14.0,4.0,7.0,0.0
15.0,22.0,6.0,8.0,-8.0,-11.0,7.0,-1.0,4.0,13.0,0.0
12.0,23.0,3.0,3.0,-17.0,-4.0,6.0,0.0,9.0,23.0,0.0
2.0,17.0,-2.0,9.0,-14.0,-2.0,10.0,-7.0,10.0,22.0,0.0
-2.0,9.0,-5.0,0.0,-1.0,7.0,13.0,-6.0,5.0,25.0,0.0
-5.0,4.0,0.0,-20.0,-2.0,22.0,2.0,4.0,8.0,20.0,0.0
0.0,0.0,7.0,-8.0,5.0,11.0,1.0,0.0,13.0,14.0,0.0
-9.0,0.0,-2.0,-16.0,23.0,9.0,0.0,-4.0,4.0,11.0,0.0
-5.0,3.0,-2.0,-31.0,22.0,16.0,-5.0,-8.0,-10.0,13.0,0.0
-11.0,6.0,-1.0,-39.0,13.0,9.0,-16.0,-8.0,-25.0,10.0,0.0
-19.0,11.0,2.0,-27.0,16.0,6.0,-14.0,-12.0,-12.0,2.0,0.0
-24.0,1.0,3.0,-23.0,11.0,0.0,-8.0,-18.0,0.0,9.0,0.0
-17.0,0.0,1.0,-12.0,8.0,-11.0,-5.0,-15.0,-1.0,-3.0,0.0
-8.0,16.0,-1.0,-26.0,24.0,-11.0,-1.0,-9.0,0.0,-5.0,0.0
-9.0,14.0,2.0,-39.0,11.0,-11.0,4.0,-4.0,3.0,-5.0,0.0
-7.0,10.0,-13.0,-35.0,4.0,-20.0,2.0,-11.0,-2.0,5.0,0.0
-18.0,0.0,-8.0,-39.0,7.0,-23.0,4.0,-15.0,-2.0,17.0,0.0
-20.0,-8.0,-16.0,-39.0,8.0,-20.0,8.0,-13.0,2.0,12.0,0.0
-12.0,-5.0,-5.0,-23.0,13.0,-19.0,11.0,-11.0,2.0,15.0,0.0
13.0,2.0,3.0,-2.0,13.0,-9.0,6.0,-13.0,-5.0,14.0,0.0
12.0,7.0,7.0,3.0,12.0,-10.0,6.0,-13.0,-15.0,10.0,0.0
8.0,7.0,17.0,-10.0,15.0,-29.0,2.0,-16.0,-7.0,3.0,0.0
19.0,5.0,10.0,-14.0,7.0,-29.0,1.0,-15.0,-6.0,6.0,0.0
14.0,-5.0,3.0,-20.0,7.0,-32.0,-15.0,-25.0,-20.0,6.0,0.0
9.0,3.0,-15.0,-11.0,15.0,-22.0,-5.0,-20.0,-5.0,6.0,0.0
13.0,16.0,-21.0,2.0,18.0,-9.0,14.0,-17.0,6.0,8.0,0.0
15.0,22.0,-9.0,9.0,13.0,-8.0,3.0,-20.0,-13.0,7.0,0.0
3.0,13.0,0.0,5.0,11.0,-14.0,-3.0,-34.0,-7.0,0.0,0.0
-7.0,15.0,20.0,-2.0,4.0,-45.0,-17.0,-28.0,-18.0,-17.0,0.0
-2.0,28.0,40.0,-7.0,-6.0,-37.0,-9.0,-25.0,-11.0,-13.0,0.0
-16.0,10.0,36.0,-25.0,-15.0,-45.0,-38.0,-32.0,-37.0,-26.0,0.0
-39.0,-45.0,15.0,-47.0,-29.0,-76.0,-89.0,-48.0,-105.0,-58.0,0.0
-41.0,-41.0,15.0,-36.0,-18.0,-53.0,-71.0,-40.0,-85.0,-60.0,0.0
-40.0,-38.0,12.0,-15.0,-8.0,-39.0,-51.0,-25.0,-50.0,-54.0,0.0
-35.0,-31.0,8.0,-22.0,-12.0,-27.0,-37.0,-17.0,-41.0,-52.0,0.0
-23.0,-20.0,-2.0,-24.0,-17.0,1.0,-12.0,-5.0,11.0,-32.0,0.0
-15.0,-16.0,3.0,-31.0,-21.0,12.0,-11.0,0.0,24.0,-3.0,0.0
-15.0,-6.0,17.0,-29.0,-22.0,0.0,-15.0,-9.0,29.0,0.0,0.0
-10.0,-9.0,38.0,-9.0,-24.0,-1.0,-25.0,-18.0,39.0,-2.0,0.0
-23.0,-29.0,32.0,15.0,-27.0,1.0,-35.0,-26.0,5.0,-21.0,0.0
-25.0,-14.0,12.0,44.0,-18.0,9.0,-13.0,-24.0,23.0,-9.0,0.0
-20.0,12.0,17.0,59.0,-9.0,10.0,-3.0,-25.0,22.0,-13.0,0.0
-18.0,45.0,20.0,46.0,-17.0,22.0,5.0,-16.0,11.0,-22.0,0.0
-8.0,52.0,1.0,27.0,-20.0,29.0,8.0,-16.0,4.0,-22.0,0.0
-2.0,42.0,-47.0,11.0,-18.0,10.0,-9.0,-19.0,-16.0,-31.0,0.0
16.0,64.0,-65.0,-15.0,-21.0,22.0,6.0,-22.0,-7.0,-12.0,0.0
31.0,50.0,-61.0,-48.0,-29.0,28.0,12.0,-10.0,13.0,8.0,0.0
35.0,27.0,-59.0,-51.0,-29.0,22.0,16.0,3.0,33.0,18.0,0.0
14.0,-6.0,-65.0,-50.0,-19.0,10.0,1.0,0.0,19.0,-1.0,0.0
-9.0,-41.0,-70.0,-55.0,-13.0,-15.0,-12.0,-10.0,-21.0,-18.0,0.0
-10.0,-25.0,-53.0,-51.0,-11.0,-8.0,-5.0,-15.0,-2.0,16.0,0.0
-1.0,-17.0,-44.0,-38.0,-4.0,6.0,12.0,-4.0,17.0,42.0,0.0
7.0,-15.0,-36.0,-21.0,2.0,17.0,25.0,18.0,26.0,59.0,0.0
0.0,-32.0,-34.0,-11.0,-3.0,24.0,11.0,19.0,21.0,41.0,0.0
-1.0,-48.0,-39.0,-10.0,-5.0,23.0,-7.0,11.0,-9.0,18.0,0.0
11.0,-26.0,-38.0,-2.0,-6.0,17.0,12.0,24.0,26.0,26.0,0.0
1.0,-21.0,-31.0,11.0,-11.0,4.0,8.0,16.0,22.0,28.0,0.0
-9.0,-22.0,-29.0,12.0,-16.0,-2.0,-11.0,3.0,8.0,19.0,0.0
-1.0,-9.0,-12.0,12.0,-15.0,-14.0,-40.0,-10.0,-5.0,8.0,0.0
7.0,10.0,26.0,33.0,-8.0,-8.0,-62.0,-13.0,-20.0,-9.0,0.0
0.0,26.0,46.0,54.0,-12.0,5.0,-36.0,-13.0,-1.0,-11.0,0.0
-7.0,11.0,36.0,49.0,-15.0,4.0,-9.0,-6.0,-4.0,1.0,0.0
-9.0,-10.0,12.0,34.0,-8.0,16.0,-2.0,-6.0,0.0,0.0,0.0
-14.0,-37.0,-34.0,24.0,-3.0,19.0,0.0,-2.0,-14.0,-3.0,0.0
-22.0,-56.0,-58.0,9.0,-3.0,11.0,1.0,0.0,-27.0,1.0,0.0
-6.0,-33.0,-58.0,12.0,8.0,18.0,19.0,11.0,6.0,14.0,0.0
25.0,-1.0,-46.0,-14.0,0.0,16.0,11.0,17.0,11.0,10.0,0.0
21.0,31.0,-24.0,-41.0,-11.0,8.0,-3.0,11.0,-5.0,18.0,0.0
19.0,35.0,-30.0,-53.0,-18.0,0.0,-21.0,6.0,-32.0,22.0,0.0
27.0,24.0,-27.0,-58.0,-11.0,-5.0,-25.0,-1.0,-42.0,21.0,0.0
0.0,8.0,-12.0,-39.0,-19.0,11.0,2.0,8.0,0.0,57.0,0.0
-10.0,6.0,4.0,-8.0,-11.0,0.0,6.0,10.0,9.0,51.0,0.0
-9.0,-6.0,26.0,8.0,-9.0,-13.0,-16.0,-5.0,-12.0,40.0,0.0
15.0,-36.0,10.0,-14.0,-16.0,-48.0,-86.0,-14.0,-96.0,0.0,0.0
38.0,60.0,37.0,37.0,-9.0,-6.0,-3.0,3.0,-18.0,1.0,0.0
-3.0,11.0,18.0,34.0,12.0,-7.0,-10.0,4.0,-15.0,-13.0,0.0
-23.0,-50.0,11.0,17.0,4.0,-55.0,-65.0,-23.0,-103.0,-40.0,0.0
-9.0,-38.0,18.0,16.0,-7.0,-38.0,-37.0,-19.0,-86.0,-29.0,0.0
-3.0,-32.0,23.0,15.0,-7.0,-30.0,-31.0,-1.0,-92.0,-37.0,0.0
-9.0,2.0,36.0,12.0,-1.0,9.0,10.0,22.0,-6.0,-20.0,0.0
-13.0,3.0,26.0,7.0,0.0,18.0,19.0,26.0,19.0,-3.0,0.0
-13.0,4.0,30.0,6.0,-12.0,19.0,19.0,19.0,17.0,1.0,0.0
-13.0,6.0,38.0,14.0,-13.0,26.0,27.0,12.0,16.0,7.0,0.0
-12.0,-4.0,33.0,25.0,-20.0,31.0,21.0,8.0,19.0,0.0,1.0
-6.0,-7.0,37.0,20.0,-22.0,29.0,22.0,12.0,10.0,1.0,1.0
-21.0,-18.0,39.0,7.0,-17.0,23.0,21.0,14.0,-11.0,0.0,1.0
-37.0,-39.0,34.0,-4.0,1.0,21.0,12.0,10.0,-28.0,-1.0,1.0
-25.0,-17.0,41.0,-6.0,-3.0,36.0,26.0,2.0,17.0,12.0,1.0
-9.0,4.0,35.0,-10.0,-17.0,23.0,17.0,-5.0,20.0,7.0,1.0
-10.0,20.0,39.0,4.0,-21.0,17.0,11.0,-12.0,6.0,3.0,1.0
17.0,28.0,50.0,18.0,-18.0,15.0,-4.0,-17.0,-9.0,-5.0,1.0
35.0,34.0,76.0,25.0,-15.0,11.0,-9.0,-16.0,-22.0,-23.0,1.0
23.0,43.0,62.0,34.0,-13.0,11.0,16.0,-9.0,-4.0,-9.0,1.0
18.0,39.0,37.0,43.0,-7.0,15.0,12.0,-2.0,-8.0,5.0,1.0
21.0,38.0,40.0,46.0,0.0,16.0,9.0,-7.0,-1.0,13.0,1.0
25.0,31.0,29.0,51.0,10.0,4.0,8.0,-14.0,-14.0,7.0,1.0
26.0,23.0,5.0,50.0,-4.0,9.0,10.0,-7.0,-21.0,2.0,1.0
24.0,21.0,-45.0,23.0,-21.0,28.0,33.0,2.0,12.0,17.0,1.0
22.0,24.0,-67.0,-12.0,-25.0,16.0,36.0,5.0,17.0,10.0,1.0
16.0,21.0,-49.0,-5.0,-18.0,5.0,26.0,4.0,17.0,3.0,1.0
1.0,23.0,-18.0,-3.0,-12.0,1.0,15.0,7.0,16.0,11.0,1.0
-7.0,-5.0,-7.0,-7.0,-12.0,-7.0,-9.0,2.0,-7.0,-3.0,0.0
0.0,-7.0,6.0,2.0,-1.0,9.0,11.0,14.0,6.0,-5.0,0.0
9.0,10.0,23.0,6.0,3.0,6.0,16.0,16.0,11.0,-6.0,0.0
3.0,3.0,-3.0,14.0,-5.0,4.0,11.0,3.0,18.0,-11.0,0.0
-10.0,-11.0,-39.0,12.0,-14.0,0.0,3.0,-8.0,16.0,-8.0,0.0
-16.0,-16.0,-32.0,-12.0,-8.0,2.0,1.0,-4.0,23.0,-4.0,0.0
-13.0,-26.0,-32.0,-31.0,-6.0,10.0,3.0,3.0,36.0,-13.0,0.0
2.0,-16.0,-16.0,-37.0,-8.0,-4.0,0.0,0.0,10.0,-25.0,0.0
2.0,-1.0,0.0,-26.0,-2.0,2.0,0.0,-5.0,-1.0,-30.0,0.0
-4.0,-18.0,12.0,-30.0,13.0,-1.0,7.0,-8.0,3.0,-24.0,0.0
-12.0,-28.0,17.0,-35.0,15.0,-3.0,-5.0,-10.0,-22.0,-21.0,0.0
-16.0,-4.0,28.0,-22.0,20.0,9.0,6.0,-6.0,-11.0,-16.0,0.0
-11.0,1.0,27.0,-18.0,19.0,16.0,4.0,-5.0,4.0,-40.0,0.0
-4.0,1.0,33.0,-8.0,18.0,18.0,-1.0,-4.0,20.0,-42.0,0.0
7.0,15.0,41.0,16.0,15.0,10.0,0.0,0.0,10.0,-30.0,0.0
5.0,25.0,43.0,31.0,17.0,8.0,2.0,7.0,4.0,-17.0,0.0
0.0,22.0,38.0,20.0,17.0,8.0,6.0,15.0,7.0,-23.0,0.0
-3.0,11.0,28.0,17.0,26.0,19.0,16.0,16.0,5.0,-31.0,0.0
-2.0,1.0,38.0,21.0,43.0,10.0,19.0,16.0,0.0,-27.0,0.0
5.0,-8.0,27.0,25.0,24.0,-7.0,0.0,0.0,-11.0,-31.0,0.0
6.0,-20.0,26.0,24.0,18.0,-10.0,-22.0,-5.0,-23.0,-33.0,0.0
7.0,1.0,42.0,14.0,10.0,-7.0,-2.0,7.0,-7.0,-13.0,0.0
-1.0,13.0,44.0,-3.0,-2.0,-6.0,4.0,10.0,-12.0,-2.0,0.0
1.0,20.0,23.0,7.0,-18.0,-6.0,3.0,5.0,-4.0,3.0,0.0
3.0,6.0,22.0,16.0,-23.0,-6.0,-10.0,-6.0,-23.0,-8.0,0.0
10.0,5.0,19.0,16.0,-16.0,0.0,-8.0,-17.0,-16.0,-10.0,0.0
17.0,24.0,30.0,26.0,-12.0,24.0,18.0,-15.0,26.0,5.0,0.0
14.0,27.0,36.0,15.0,-10.0,24.0,21.0,-7.0,17.0,11.0,0.0
10.0,46.0,42.0,10.0,-16.0,14.0,14.0,-4.0,9.0,3.0,0.0
26.0,48.0,62.0,15.0,-9.0,21.0,4.0,2.0,9.0,12.0,0.0
21.0,39.0,50.0,13.0,-3.0,24.0,-3.0,5.0,7.0,22.0,0.0
12.0,24.0,42.0,-5.0,-13.0,17.0,1.0,9.0,16.0,28.0,0.0
12.0,9.0,33.0,-17.0,-7.0,1.0,17.0,6.0,15.0,35.0,0.0
9.0,0.0,0.0,-13.0,-5.0,5.0,15.0,5.0,13.0,24.0,0.0
-1.0,2.0,-16.0,-8.0,-11.0,0.0,3.0,13.0,12.0,13.0,0.0
-7.0,10.0,-18.0,-5.0,-5.0,8.0,6.0,10.0,2.0,10.0,0.0
2.0,16.0,-4.0,-9.0,-4.0,8.0,3.0,9.0,0.0,18.0,0.0
7.0,8.0,0.0,0.0,-8.0,6.0,0.0,18.0,11.0,34.0,0.0
14.0,5.0,18.0,-8.0,-2.0,7.0,10.0,20.0,14.0,43.0,0.0
20.0,14.0,39.0,-7.0,2.0,9.0,1.0,2.0,15.0,25.0,0.0
19.0,16.0,36.0,-3.0,5.0,23.0,-9.0,6.0,15.0,23.0,0.0
8.0,9.0,41.0,-6.0,16.0,28.0,-3.0,10.0,7.0,27.0,0.0
-2.0,0.0,26.0,5.0,23.0,16.0,-5.0,8.0,14.0,28.0,0.0
-3.0,0.0,39.0,14.0,19.0,2.0,-2.0,7.0,7.0,27.0,0.0
-2.0,11.0,48.0,35.0,13.0,7.0,3.0,13.0,-7.0,34.0,0.0
-9.0,8.0,24.0,45.0,13.0,0.0,21.0,17.0,-6.0,32.0,0.0
-41.0,0.0,-38.0,8.0,0.0,-8.0,11.0,2.0,5.0,10.0,0.0
-41.0,-16.0,-65.0,-13.0,-8.0,-9.0,5.0,13.0,17.0,2.0,0.0
-28.0,-39.0,-63.0,-21.0,-16.0,-20.0,0.0,22.0,-1.0,-1.0,0.0
-14.0,-56.0,-54.0,-31.0,-17.0,-44.0,-28.0,13.0,-65.0,-27.0,0.0
15.0,-5.0,-12.0,-7.0,-9.0,-11.0,3.0,19.0,-10.0,-3.0,0.0
17.0,18.0,0.0,-1.0,-13.0,2.0,19.0,31.0,29.0,23.0,0.0
16.0,10.0,5.0,4.0,-18.0,-7.0,4.0,27.0,28.0,26.0,0.0
19.0,11.0,5.0,16.0,-10.0,2.0,2.0,17.0,24.0,27.0,0.0
20.0,14.0,13.0,17.0,-3.0,0.0,0.0,0.0,30.0,19.0,0.0
10.0,10.0,7.0,21.0,0.0,-1.0,-11.0,-8.0,27.0,16.0,0.0
-1.0,9.0,7.0,25.0,1.0,-4.0,-12.0,-4.0,18.0,2.0,0.0
-7.0,2.0,13.0,32.0,-5.0,-4.0,-4.0,0.0,11.0,-10.0,0.0
-15.0,-6.0,11.0,26.0,-2.0,-5.0,-1.0,-6.0,1.0,-1.0,0.0
-29.0,-15.0,4.0,9.0,4.0,-3.0,6.0,-6.0,1.0,-4.0,0.0
-29.0,-12.0,10.0,6.0,8.0,-7.0,15.0,-6.0,3.0,-16.0,0.0
-16.0,-4.0,23.0,-6.0,-1.0,-2.0,13.0,-5.0,7.0,-20.0,0.0
7.0,14.0,36.0,-35.0,-10.0,-6.0,17.0,-11.0,6.0,-14.0,0.0
35.0,33.0,25.0,-52.0,-21.0,-24.0,11.0,-11.0,-4.0,-1.0,0.0
35.0,32.0,24.0,-56.0,-26.0,-28.0,-7.0,-12.0,-20.0,1.0,0.0
29.0,47.0,41.0,-35.0,-9.0,1.0,12.0,-6.0,7.0,25.0,0.0
11.0,38.0,34.0,0.0,3.0,10.0,22.0,18.0,17.0,27.0,0.0
-8.0,7.0,25.0,2.0,9.0,20.0,37.0,30.0,6.0,18.0,0.0
-21.0,-24.0,13.0,1.0,15.0,18.0,29.0,26.0,-5.0,-3.0,0.0
-15.0,-20.0,17.0,2.0,2.0,-1.0,14.0,15.0,-39.0,-13.0,0.0
3.0,5.0,5.0,-1.0,-1.0,1.0,21.0,13.0,-14.0,7.0,0.0
4.0,-4.0,-32.0,-9.0,-11.0,0.0,12.0,14.0,8.0,13.0,0.0
-8.0,-19.0,-71.0,12.0,-8.0,9.0,12.0,14.0,14.0,0.0,0.0
-23.0,-37.0,-67.0,26.0,-4.0,11.0,14.0,8.0,15.0,-13.0,0.0
-27.0,-51.0,-46.0,7.0,-11.0,8.0,21.0,1.0,14.0,5.0,0.0
-9.0,-21.0,-18.0,-7.0,-16.0,10.0,18.0,0.0,22.0,18.0,0.0
9.0,10.0,9.0,-1.0,-31.0,-5.0,3.0,-7.0,14.0,5.0,0.0
7.0,31.0,15.0,-9.0,-26.0,-16.0,0.0,-9.0,8.0,9.0,0.0
1.0,22.0,-4.0,-17.0,-8.0,-10.0,13.0,9.0,9.0,16.0,0.0
3.0,11.0,-22.0,-29.0,0.0,-8.0,30.0,23.0,29.0,18.0,0.0
-3.0,7.0,-17.0,-42.0,-2.0,-8.0,25.0,17.0,34.0,11.0,0.0
-9.0,6.0,-10.0,-30.0,-1.0,3.0,13.0,9.0,22.0,1.0,0.0
-12.0,11.0,-8.0,-19.0,8.0,2.0,10.0,6.0,28.0,-2.0,0.0
0.0,6.0,-13.0,-27.0,8.0,1.0,14.0,9.0,29.0,12.0,0.0
11.0,0.0,-37.0,-61.0,-3.0,1.0,-4.0,11.0,21.0,14.0,0.0
21.0,4.0,-59.0,-79.0,-6.0,4.0,-9.0,-5.0,20.0,7.0,0.0
49.0,29.0,-26.0,-60.0,-2.0,8.0,-1.0,-21.0,16.0,-1.0,0.0
47.0,31.0,0.0,-20.0,1.0,5.0,0.0,-18.0,9.0,-6.0,0.0
21.0,12.0,-9.0,0.0,-11.0,-10.0,-12.0,-20.0,3.0,-3.0,0.0
23.0,-1.0,-18.0,-16.0,-7.0,-27.0,-35.0,-17.0,-27.0,-2.0,0.0
22.0,9.0,-33.0,-17.0,0.0,-14.0,-9.0,-7.0,6.0,-3.0,0.0
6.0,5.0,-41.0,-19.0,4.0,-5.0,-9.0,-3.0,11.0,-18.0,0.0
0.0,8.0,-40.0,-28.0,-9.0,-4.0,-9.0,-3.0,12.0,-32.0,0.0
-5.0,0.0,-36.0,-32.0,-11.0,1.0,0.0,-9.0,9.0,-29.0,0.0
-15.0,-8.0,-27.0,-14.0,-13.0,3.0,7.0,-7.0,4.0,-26.0,0.0
-14.0,-18.0,-27.0,9.0,-5.0,9.0,20.0,9.0,13.0,-20.0,0.0
-9.0,-28.0,-18.0,19.0,-10.0,9.0,27.0,18.0,12.0,-23.0,0.0
24.0,-27.0,-8.0,14.0,-5.0,-1.0,26.0,5.0,11.0,-29.0,0.0
52.0,-9.0,-4.0,12.0,7.0,7.0,50.0,-3.0,7.0,-40.0,0.0
27.0,-8.0,-6.0,12.0,15.0,17.0,48.0,-4.0,6.0,-46.0,0.0
10.0,-10.0,5.0,3.0,22.0,14.0,28.0,-2.0,-2.0,-39.0,0.0
13.0,-3.0,4.0,1.0,16.0,2.0,2.0,-11.0,-10.0,-31.0,0.0
19.0,1.0,3.0,0.0,3.0,-8.0,-19.0,-16.0,-2.0,-28.0,0.0
25.0,19.0,9.0,1.0,-1.0,-22.0,-36.0,-14.0,-21.0,-21.0,0.0
20.0,38.0,20.0,3.0,0.0,-18.0,-32.0,-14.0,-32.0,-12.0,0.0
17.0,31.0,52.0,57.0,15.0,15.0,-4.0,-8.0,-3.0,1.0,0.0
16.0,8.0,29.0,60.0,24.0,16.0,1.0,3.0,0.0,-2.0,0.0
-4.0,-32.0,-6.0,49.0,18.0,0.0,-30.0,-9.0,-30.0,-10.0,0.0
-38.0,-98.0,-72.0,14.0,-7.0,-58.0,-99.0,-31.0,-121.0,-49.0,0.0
-37.0,-44.0,-71.0,35.0,-14.0,-33.0,-32.0,-12.0,-44.0,-30.0,0.0
-15.0,-3.0,-47.0,48.0,-7.0,-11.0,12.0,-8.0,8.0,-7.0,0.0
1.0,4.0,-43.0,33.0,-4.0,-9.0,20.0,-4.0,17.0,10.0,0.0
18.0,30.0,-6.0,14.0,-12.0,0.0,13.0,-15.0,14.0,10.0,0.0
33.0,43.0,19.0,22.0,-14.0,0.0,-8.0,-26.0,10.0,8.0,0.0
22.0,37.0,26.0,31.0,0.0,-5.0,-4.0,-16.0,4.0,0.0,0.0
9.0,24.0,43.0,44.0,18.0,-13.0,-3.0,-6.0,-9.0,-2.0,0.0
-4.0,3.0,40.0,52.0,24.0,-6.0,-10.0,0.0,-17.0,-9.0,0.0
-17.0,-2.0,36.0,47.0,23.0,1.0,-4.0,8.0,-10.0,-4.0,0.0
-20.0,2.0,37.0,28.0,27.0,3.0,10.0,11.0,-10.0,-11.0,0.0
-18.0,0.0,12.0,14.0,33.0,5.0,22.0,16.0,-1.0,-12.0,0.0
-21.0,8.0,-14.0,6.0,25.0,1.0,25.0,6.0,0.0,-4.0,0.0
-27.0,14.0,-36.0,-17.0,16.0,-10.0,9.0,-7.0,-6.0,6.0,0.0
-17.0,10.0,-28.0,-32.0,13.0,-9.0,-8.0,-5.0,-13.0,25.0,0.0
-10.0,0.0,-12.0,-34.0,29.0,-6.0,-18.0,-15.0,-49.0,26.0,0.0
-17.0,3.0,-14.0,-8.0,41.0,6.0,8.0,-9.0,-15.0,16.0,0.0
-35.0,5.0,-24.0,-1.0,39.0,15.0,23.0,0.0,6.0,6.0,0.0
-37.0,2.0,-32.0,0.0,33.0,15.0,18.0,2.0,3.0,-3.0,0.0
-26.0,9.0,-33.0,-26.0,29.0,0.0,6.0,10.0,-19.0,-7.0,0.0
-13.0,7.0,-37.0,-43.0,17.0,-23.0,-6.0,7.0,-24.0,-3.0,0.0
5.0,19.0,-30.0,-27.0,7.0,-10.0,0.0,11.0,1.0,11.0,0.0
21.0,28.0,-21.0,-9.0,10.0,-1.0,9.0,6.0,0.0,18.0,0.0
26.0,25.0,-15.0,11.0,15.0,6.0,4.0,12.0,10.0,24.0,0.0
16.0,23.0,-3.0,14.0,14.0,8.0,-3.0,8.0,0.0,6.0,0.0
-3.0,13.0,0.0,30.0,14.0,5.0,-4.0,1.0,0.0,6.0,0.0
-15.0,7.0,6.0,44.0,24.0,20.0,-9.0,16.0,-3.0,5.0,0.0
-6.0,18.0,16.0,33.0,31.0,29.0,-1.0,19.0,-5.0,2.0,0.0
-2.0,16.0,6.0,17.0,30.0,20.0,0.0,17.0,7.0,-2.0,0.0
-6.0,23.0,-3.0,11.0,29.0,8.0,-8.0,8.0,-5.0,0.0,0.0
-6.0,28.0,-9.0,15.0,24.0,15.0,-3.0,5.0,-20.0,-1.0,0.0
0.0,19.0,-9.0,13.0,22.0,19.0,4.0,4.0,-12.0,-3.0,0.0
6.0,14.0,-4.0,6.0,26.0,17.0,2.0,3.0,-1.0,4.0,0.0
9.0,6.0,-1.0,2.0,21.0,16.0,-5.0,9.0,3.0,8.0,0.0
3.0,-3.0,1.0,-3.0,17.0,6.0,-5.0,12.0,-9.0,0.0,0.0
-4.0,-25.0,1.0,-11.0,16.0,-4.0,-8.0,0.0,-38.0,-5.0,0.0
6.0,-15.0,-10.0,-7.0,3.0,7.0,11.0,0.0,-1.0,3.0,0.0
17.0,1.0,-8.0,-6.0,0.0,17.0,23.0,-2.0,4.0,0.0,0.0
23.0,0.0,-11.0,-5.0,1.0,19.0,10.0,-3.0,-1.0,-10.0,0.0
20.0,-13.0,-15.0,-5.0,2.0,17.0,1.0,-6.0,-1.0,-8.0,0.0
2.0,-12.0,-14.0,-4.0,0.0,7.0,-3.0,-9.0,-1.0,-4.0,0.0
2.0,-12.0,-16.0,1.0,11.0,-2.0,-9.0,-1.0,-5.0,-6.0,0.0
2.0,1.0,-16.0,1.0,9.0,-3.0,-6.0,1.0,-5.0,-13.0,0.0
6.0,5.0,-10.0,10.0,-8.0,2.0,-6.0,3.0,-3.0,-5.0,0.0
8.0,0.0,-3.0,15.0,-9.0,-6.0,-16.0,-8.0,-11.0,0.0,0.0
5.0,6.0,-6.0,18.0,-9.0,-11.0,-20.0,-22.0,-19.0,7.0,0.0
10.0,19.0,-2.0,23.0,-2.0,0.0,-19.0,-21.0,-11.0,8.0,0.0
11.0,16.0,8.0,20.0,5.0,12.0,-20.0,-14.0,-10.0,-6.0,0.0
13.0,4.0,18.0,23.0,9.0,19.0,-25.0,0.0,-7.0,-12.0,0.0
19.0,4.0,16.0,27.0,5.0,23.0,-21.0,2.0,7.0,-16.0,0.0
29.0,2.0,21.0,17.0,0.0,10.0,-31.0,-2.0,5.0,-21.0,0.0
26.0,6.0,16.0,2.0,-8.0,10.0,-28.0,0.0,0.0,-27.0,0.0
4.0,7.0,9.0,0.0,-7.0,7.0,-11.0,-1.0,2.0,-20.0,0.0
-11.0,13.0,17.0,1.0,5.0,0.0,-8.0,5.0,4.0,-19.0,0.0
-18.0,5.0,24.0,9.0,8.0,6.0,2.0,11.0,2.0,-32.0,0.0
-27.0,-13.0,20.0,7.0,0.0,17.0,7.0,7.0,-4.0,-42.0,0.0
-17.0,-16.0,10.0,0.0,-13.0,10.0,-1.0,2.0,-9.0,-47.0,0.0
-8.0,-15.0,4.0,0.0,-11.0,-4.0,-8.0,-2.0,-10.0,-42.0,0.0
-7.0,-22.0,5.0,11.0,0.0,1.0,-7.0,-3.0,-2.0,-34.0,0.0
-1.0,-17.0,9.0,6.0,6.0,12.0,-15.0,-3.0,-13.0,-10.0,0.0
7.0,-14.0,36.0,1.0,7.0,-6.0,-32.0,1.0,-37.0,11.0,0.0
7.0,-8.0,49.0,8.0,8.0,-3.0,-4.0,16.0,-20.0,22.0,0.0
7.0,-10.0,40.0,16.0,9.0,13.0,15.0,9.0,-5.0,8.0,0.0
10.0,0.0,42.0,18.0,7.0,8.0,16.0,4.0,13.0,5.0,0.0
15.0,24.0,32.0,4.0,9.0,4.0,13.0,-2.0,12.0,3.0,0.0
15.0,41.0,17.0,-5.0,-8.0,-1.0,14.0,-2.0,12.0,7.0,0.0
7.0,23.0,-19.0,-9.0,-17.0,-4.0,12.0,11.0,21.0,16.0,0.0
-21.0,-18.0,-59.0,-17.0,-18.0,-22.0,15.0,26.0,9.0,3.0,0.0
-41.0,-50.0,-89.0,-40.0,-16.0,-33.0,3.0,10.0,-7.0,-6.0,0.0
-46.0,-53.0,-83.0,-38.0,-16.0,-34.0,-12.0,1.0,-25.0,-3.0,0.0
-44.0,-40.0,-44.0,-14.0,-13.0,-33.0,-10.0,-1.0,-22.0,-3.0,0.0
-17.0,-22.0,7.0,-4.0,-9.0,-23.0,-11.0,-10.0,-9.0,5.0,0.0
-15.0,0.0,43.0,-18.0,-3.0,-19.0,-3.0,-14.0,3.0,2.0,0.0
-19.0,20.0,52.0,-13.0,-4.0,-13.0,-2.0,-1.0,5.0,8.0,0.0
-17.0,10.0,55.0,6.0,2.0,-22.0,-23.0,-11.0,-7.0,-1.0,0.0
-14.0,2.0,42.0,-6.0,4.0,-31.0,-30.0,-9.0,-12.0,2.0,0.0
-10.0,17.0,37.0,-1.0,4.0,-8.0,-2.0,3.0,19.0,16.0,0.0
-10.0,23.0,13.0,-1.0,7.0,2.0,8.0,10.0,26.0,16.0,0.0
-15.0,3.0,-22.0,-12.0,10.0,0.0,10.0,22.0,26.0,31.0,0.0
-14.0,-25.0,-59.0,-29.0,12.0,-15.0,-10.0,10.0,1.0,13.0,0.0
-30.0,-36.0,-87.0,-56.0,1.0,-35.0,-28.0,-2.0,-23.0,-13.0,0.0
-31.0,-34.0,-85.0,-53.0,-2.0,-21.0,-20.0,-4.0,-7.0,1.0,0.0
-14.0,-33.0,-64.0,-35.0,-9.0,-25.0,-21.0,-5.0,-3.0,11.0,0.0
2.0,-12.0,-37.0,-22.0,-5.0,-23.0,-19.0,-7.0,-12.0,24.0,0.0
7.0,9.0,-5.0,-16.0,-1.0,-23.0,-18.0,-9.0,3.0,11.0,0.0
5.0,32.0,14.0,-8.0,-1.0,-28.0,-21.0,-22.0,3.0,-4.0,0.0
18.0,59.0,37.0,-2.0,6.0,-35.0,-23.0,-15.0,-11.0,0.0,0.0
10.0,59.0,52.0,1.0,7.0,-40.0,-19.0,-12.0,-13.0,-4.0,0.0
6.0,56.0,25.0,-7.0,-4.0,-34.0,-22.0,-8.0,-7.0,0.0,0.0
5.0,40.0,7.0,-9.0,-8.0,-28.0,-23.0,-4.0,0.0,2.0,0.0
15.0,26.0,12.0,-12.0,-4.0,-23.0,-29.0,-6.0,7.0,10.0,0.0
5.0,17.0,9.0,-5.0,0.0,-17.0,-14.0,1.0,3.0,11.0,0.0
-7.0,-1.0,-18.0,5.0,3.0,-5.0,-5.0,4.0,1.0,-1.0,0.0
-6.0,11.0,-33.0,7.0,11.0,-7.0,-4.0,-4.0,-4.0,-20.0,0.0
0.0,13.0,-33.0,7.0,12.0,-14.0,-23.0,-16.0,-21.0,-17.0,0.0
13.0,-1.0,-39.0,7.0,4.0,-27.0,-44.0,-18.0,-20.0,-14.0,0.0
17.0,0.0,-45.0,12.0,0.0,-18.0,0.0,-14.0,22.0,2.0,0.0
-2.0,-13.0,-57.0,7.0,-4.0,-2.0,22.0,-8.0,30.0,18.0,0.0
-15.0,-30.0,-49.0,1.0,2.0,10.0,19.0,6.0,30.0,27.0,0.0
-29.0,-35.0,-20.0,0.0,8.0,21.0,0.0,6.0,16.0,11.0,0.0
-34.0,-29.0,-12.0,-6.0,1.0,15.0,-19.0,-6.0,-8.0,4.0,0.0
-26.0,-7.0,-10.0,-9.0,-4.0,22.0,-2.0,-15.0,10.0,11.0,0.0
-20.0,-2.0,-5.0,-5.0,5.0,20.0,3.0,-22.0,18.0,1.0,0.0
-24.0,-2.0,9.0,3.0,13.0,16.0,-2.0,-14.0,3.0,-16.0,0.0
-23.0,-7.0,9.0,5.0,23.0,13.0,-4.0,-2.0,-4.0,-13.0,0.0
-27.0,-13.0,13.0,6.0,28.0,22.0,-5.0,-1.0,5.0,-10.0,0.0
-24.0,-11.0,30.0,13.0,18.0,27.0,-1.0,6.0,6.0,-4.0,0.0
-20.0,-14.0,28.0,13.0,14.0,32.0,9.0,6.0,1.0,-4.0,0.0
-9.0,-7.0,33.0,-2.0,7.0,27.0,17.0,17.0,5.0,7.0,0.0
19.0,25.0,46.0,-15.0,-5.0,22.0,10.0,24.0,12.0,28.0,0.0
26.0,28.0,51.0,-24.0,-15.0,21.0,7.0,30.0,1.0,26.0,0.0
7.0,-2.0,55.0,-27.0,-25.0,15.0,12.0,21.0,15.0,18.0,0.0
-5.0,-28.0,-6.0,-22.0,-33.0,0.0,15.0,18.0,4.0,6.0,0.0
-16.0,-73.0,-66.0,-34.0,-35.0,-28.0,-15.0,2.0,-32.0,-10.0,0.0
-24.0,-123.0,-50.0,-54.0,-33.0,-68.0,-68.0,-3.0,-108.0,-24.0,0.0
2.0,-59.0,-16.0,-30.0,-28.0,-18.0,-2.0,16.0,-18.0,0.0,0.0
17.0,-26.0,-15.0,-24.0,-26.0,9.0,31.0,14.0,25.0,0.0,0.0
4.0,-24.0,-5.0,-5.0,-9.0,8.0,34.0,2.0,17.0,5.0,0.0
-13.0,-41.0,-8.0,-11.0,-10.0,-8.0,9.0,-1.0,-7.0,1.0,0.0
-17.0,-35.0,-4.0,-33.0,-18.0,-11.0,-4.0,15.0,3.0,10.0,0.0
-16.0,-19.0,-17.0,-32.0,-26.0,9.0,15.0,13.0,29.0,29.0,0.0
-26.0,-32.0,-29.0,-12.0,-19.0,17.0,31.0,8.0,16.0,35.0,0.0
-34.0,-41.0,-25.0,-11.0,-11.0,18.0,39.0,15.0,9.0,35.0,0.0
-13.0,-18.0,-12.0,-5.0,-6.0,10.0,23.0,5.0,14.0,20.0,0.0
32.0,23.0,11.0,5.0,-4.0,1.0,11.0,-10.0,11.0,8.0,0.0
45.0,29.0,22.0,4.0,-3.0,2.0,3.0,-2.0,13.0,5.0,0.0
35.0,20.0,31.0,4.0,-9.0,-1.0,7.0,15.0,16.0,19.0,0.0
33.0,16.0,36.0,1.0,-7.0,-5.0,8.0,19.0,0.0,6.0,0.0
33.0,25.0,43.0,-2.0,-15.0,-4.0,2.0,14.0,2.0,4.0,0.0
38.0,40.0,48.0,-4.0,-17.0,-5.0,0.0,0.0,9.0,19.0,0.0
24.0,39.0,41.0,-3.0,-12.0,-7.0,8.0,8.0,7.0,25.0,0.0
11.0,24.0,31.0,-21.0,0.0,-1.0,6.0,17.0,11.0,22.0,0.0
7.0,2.0,20.0,-25.0,-5.0,1.0,-1.0,17.0,5.0,33.0,0.0
11.0,4.0,18.0,-23.0,-11.0,-10.0,-15.0,19.0,1.0,39.0,0.0
27.0,8.0,27.0,-19.0,-13.0,-17.0,-23.0,20.0,12.0,47.0,0.0
28.0,6.0,21.0,-15.0,-4.0,-15.0,-15.0,20.0,7.0,44.0,0.0
21.0,1.0,18.0,-13.0,11.0,-3.0,-7.0,8.0,2.0,19.0,0.0
-1.0,-20.0,-1.0,-21.0,36.0,17.0,-3.0,-4.0,-3.0,2.0,0.0
-5.0,-37.0,0.0,-18.0,37.0,9.0,-16.0,-9.0,-25.0,0.0,0.0
6.0,-23.0,20.0,18.0,19.0,0.0,-28.0,-11.0,-34.0,0.0,0.0
-4.0,9.0,30.0,59.0,10.0,10.0,0.0,11.0,-11.0,1.0,0.0
-27.0,-10.0,7.0,33.0,5.0,15.0,7.0,19.0,2.0,3.0,0.0
-38.0,-27.0,-33.0,0.0,13.0,20.0,16.0,20.0,5.0,-13.0,0.0
-43.0,-29.0,-52.0,-4.0,13.0,31.0,14.0,18.0,2.0,-21.0,0.0
-31.0,-22.0,-26.0,11.0,16.0,20.0,0.0,12.0,-7.0,-20.0,0.0
-22.0,-14.0,-3.0,14.0,5.0,4.0,-5.0,3.0,0.0,-30.0,0.0
-8.0,-9.0,16.0,14.0,0.0,3.0,1.0,11.0,2.0,-28.0,0.0
-8.0,-12.0,19.0,12.0,-5.0,2.0,1.0,14.0,23.0,-24.0,0.0
-12.0,-12.0,7.0,0.0,-9.0,0.0,-6.0,14.0,18.0,-6.0,0.0
-15.0,-14.0,7.0,-12.0,-12.0,1.0,5.0,11.0,12.0,8.0,0.0
-22.0,-15.0,6.0,0.0,-8.0,9.0,9.0,3.0,13.0,3.0,0.0
-26.0,-18.0,-1.0,17.0,1.0,17.0,7.0,-2.0,3.0,0.0,0.0
-17.0,-2.0,-3.0,23.0,0.0,18.0,10.0,6.0,0.0,-11.0,0.0
2.0,0.0,-4.0,27.0,-4.0,6.0,14.0,15.0,9.0,-12.0,0.0
-2.0,0.0,-3.0,23.0,-10.0,6.0,21.0,9.0,16.0,-6.0,0.0
-4.0,10.0,-3.0,6.0,-16.0,-5.0,13.0,-3.0,18.0,-1.0,0.0
-2.0,12.0,2.0,3.0,-18.0,-9.0,-1.0,0.0,3.0,1.0,0.0
7.0,6.0,11.0,8.0,-18.0,-19.0,3.0,1.0,-10.0,1.0,0.0
17.0,5.0,12.0,12.0,-17.0,-20.0,0.0,0.0,-23.0,10.0,0.0
14.0,-1.0,8.0,16.0,-10.0,-21.0,-11.0,-7.0,-23.0,15.0,0.0
18.0,17.0,13.0,23.0,-2.0,-19.0,11.0,-11.0,-2.0,23.0,0.0
9.0,28.0,15.0,9.0,-10.0,-20.0,12.0,-24.0,-1.0,15.0,0.0
9.0,33.0,17.0,13.0,-12.0,-10.0,11.0,-15.0,10.0,9.0,0.0
15.0,30.0,13.0,19.0,-6.0,-15.0,-1.0,-10.0,5.0,12.0,0.0
20.0,17.0,4.0,16.0,-23.0,-19.0,0.0,-5.0,1.0,17.0,0.0
21.0,12.0,-4.0,0.0,-32.0,-13.0,2.0,-14.0,4.0,24.0,0.0
14.0,5.0,-20.0,-16.0,-23.0,-11.0,0.0,-3.0,-8.0,25.0,0.0
22.0,0.0,-26.0,-15.0,-13.0,-21.0,9.0,-2.0,-18.0,30.0,0.0
35.0,-9.0,-13.0,-4.0,-16.0,-23.0,15.0,-2.0,-7.0,27.0,0.0
26.0,-22.0,-7.0,0.0,-18.0,-9.0,18.0,0.0,7.0,19.0,0.0
3.0,-17.0,-18.0,0.0,-7.0,-1.0,22.0,5.0,0.0,1.0,0.0
7.0,9.0,-12.0,0.0,9.0,22.0,24.0,-5.0,-14.0,-15.0,0.0
13.0,24.0,-13.0,0.0,21.0,24.0,19.0,-8.0,-6.0,-19.0,0.0
25.0,28.0,0.0,-4.0,14.0,10.0,7.0,-9.0,-8.0,-7.0,0.0
23.0,12.0,8.0,-15.0,4.0,-6.0,-15.0,-11.0,-29.0,0.0,0.0
24.0,15.0,8.0,-16.0,5.0,0.0,-7.0,-15.0,-9.0,0.0,0.0
21.0,10.0,4.0,-11.0,0.0,-5.0,0.0,-18.0,-2.0,-5.0,0.0
15.0,2.0,-1.0,-16.0,-9.0,-14.0,-5.0,-19.0,-1.0,-2.0,0.0
28.0,6.0,-11.0,-13.0,-11.0,-22.0,-26.0,-23.0,-22.0,0.0,0.0
35.0,7.0,-15.0,-2.0,-16.0,-38.0,-58.0,-31.0,-46.0,12.0,0.0
35.0,30.0,-5.0,14.0,-9.0,-21.0,-28.0,-16.0,-16.0,41.0,0.0
20.0,29.0,-9.0,22.0,-3.0,-21.0,-14.0,-15.0,-13.0,34.0,0.0
5.0,20.0,-21.0,4.0,-5.0,-17.0,-15.0,-21.0,-21.0,13.0,0.0
9.0,26.0,-19.0,0.0,6.0,-7.0,-9.0,-15.0,-21.0,9.0,0.0
20.0,16.0,2.0,-3.0,9.0,0.0,5.0,-9.0,-11.0,4.0,0.0
24.0,16.0,0.0,-21.0,5.0,13.0,22.0,-5.0,-7.0,4.0,0.0
27.0,19.0,-21.0,-53.0,6.0,18.0,42.0,-5.0,6.0,10.0,0.0
22.0,11.0,-23.0,-46.0,8.0,21.0,52.0,3.0,13.0,1.0,0.0
13.0,-5.0,-17.0,-32.0,12.0,15.0,34.0,4.0,-2.0,0.0,0.0
6.0,-7.0,-12.0,-14.0,18.0,4.0,30.0,-6.0,-12.0,0.0,0.0
-10.0,-15.0,-14.0,0.0,24.0,12.0,31.0,8.0,-8.0,-6.0,0.0
-11.0,-10.0,-17.0,5.0,13.0,18.0,34.0,25.0,-7.0,-10.0,0.0
0.0,-9.0,-10.0,13.0,11.0,14.0,32.0,19.0,-8.0,-4.0,0.0
14.0,-9.0,3.0,7.0,6.0,2.0,11.0,8.0,-11.0,-3.0,0.0
26.0,5.0,-4.0,-12.0,-7.0,-20.0,-3.0,0.0,-20.0,-14.0,0.0
24.0,23.0,-2.0,-14.0,-5.0,-21.0,4.0,-5.0,-5.0,-10.0,0.0
20.0,23.0,23.0,-9.0,0.0,-16.0,-1.0,-1.0,-17.0,-4.0,0.0
2.0,27.0,21.0,-14.0,6.0,-17.0,-8.0,-1.0,-20.0,-2.0,0.0
-8.0,0.0,18.0,-10.0,5.0,-23.0,-22.0,1.0,-50.0,-13.0,0.0
-3.0,-11.0,29.0,-3.0,5.0,-32.0,-25.0,0.0,-68.0,-17.0,0.0
-2.0,-7.0,35.0,-2.0,5.0,-34.0,-11.0,-4.0,-42.0,-6.0,0.0
-15.0,-21.0,35.0,21.0,4.0,-38.0,-6.0,-6.0,-35.0,1.0,0.0
-13.0,-22.0,31.0,30.0,1.0,-27.0,11.0,-2.0,-19.0,23.0,0.0
-13.0,-15.0,20.0,-5.0,11.0,-13.0,14.0,8.0,-8.0,11.0,0.0
-2.0,-3.0,-13.0,-33.0,-1.0,-18.0,2.0,14.0,1.0,-6.0,0.0
7.0,9.0,-38.0,-46.0,-2.0,-20.0,-13.0,8.0,0.0,-16.0,0.0
-1.0,-7.0,-63.0,-50.0,1.0,-10.0,-13.0,7.0,0.0,-22.0,0.0
-24.0,-3.0,-43.0,-34.0,8.0,-5.0,0.0,13.0,3.0,-23.0,0.0
-21.0,7.0,-27.0,-20.0,7.0,-11.0,2.0,11.0,1.0,-21.0,0.0
-9.0,14.0,-22.0,-2.0,5.0,-7.0,-5.0,14.0,0.0,-20.0,0.0
-8.0,16.0,-22.0,19.0,14.0,-9.0,-9.0,13.0,5.0,-6.0,0.0
-5.0,12.0,-11.0,29.0,14.0,-13.0,-11.0,22.0,14.0,0.0,0.0
6.0,20.0,-7.0,39.0,19.0,-6.0,-15.0,4.0,2.0,-7.0,0.0
14.0,15.0,-9.0,43.0,10.0,3.0,-2.0,-10.0,-1.0,-4.0,0.0
15.0,3.0,-8.0,36.0,4.0,8.0,1.0,-6.0,2.0,-6.0,0.0
7.0,5.0,0.0,28.0,3.0,5.0,7.0,-5.0,6.0,-4.0,0.0
-11.0,0.0,-2.0,19.0,0.0,4.0,25.0,-1.0,8.0,12.0,0.0
-32.0,-20.0,-7.0,-4.0,-2.0,4.0,32.0,9.0,5.0,16.0,0.0
-42.0,-32.0,12.0,-2.0,7.0,-4.0,9.0,-2.0,-18.0,9.0,0.0
-60.0,-40.0,12.0,3.0,4.0,-6.0,7.0,-4.0,-18.0,2.0,0.0
-74.0,-49.0,-29.0,12.0,-13.0,10.0,19.0,-5.0,0.0,-1.0,0.0
-24.0,-17.0,-22.0,33.0,-19.0,4.0,4.0,-20.0,-16.0,-31.0,0.0
15.0,14.0,5.0,27.0,-9.0,-7.0,10.0,-12.0,-16.0,-28.0,0.0
17.0,16.0,9.0,0.0,-2.0,-30.0,19.0,-5.0,3.0,-14.0,0.0
23.0,41.0,4.0,-3.0,-10.0,-30.0,7.0,-9.0,13.0,-2.0,0.0
30.0,65.0,3.0,-5.0,-5.0,-18.0,4.0,-9.0,7.0,10.0,0.0
-1.0,33.0,-26.0,0.0,12.0,-4.0,8.0,-2.0,5.0,0.0,0.0
-36.0,-26.0,-54.0,10.0,24.0,12.0,21.0,16.0,4.0,-8.0,0.0
-41.0,-51.0,-66.0,2.0,33.0,30.0,33.0,25.0,7.0,0.0,0.0
-32.0,-43.0,-74.0,-7.0,20.0,34.0,32.0,23.0,12.0,10.0,0.0
2.0,-18.0,-58.0,-17.0,7.0,29.0,27.0,18.0,8.0,24.0,0.0
33.0,22.0,-22.0,-13.0,4.0,24.0,16.0,10.0,7.0,34.0,0.0
27.0,41.0,2.0,8.0,-10.0,19.0,3.0,4.0,-3.0,31.0,0.0
7.0,40.0,24.0,20.0,-5.0,9.0,-1.0,2.0,-2.0,9.0,0.0
-9.0,24.0,18.0,20.0,0.0,-5.0,-4.0,-4.0,0.0,1.0,0.0
-16.0,-14.0,-1.0,23.0,1.0,-3.0,6.0,-6.0,0.0,6.0,0.0
-14.0,-30.0,-37.0,19.0,5.0,1.0,6.0,-6.0,-4.0,-15.0,0.0
24.0,-8.0,-81.0,-16.0,4.0,0.0,-12.0,-14.0,-19.0,-16.0,0.0
31.0,2.0,-104.0,-42.0,3.0,-3.0,-4.0,-28.0,-11.0,-23.0,0.0
26.0,6.0,-73.0,-40.0,-4.0,-1.0,-8.0,-22.0,-3.0,-24.0,0.0
29.0,18.0,-21.0,-25.0,-11.0,-14.0,-22.0,-6.0,4.0,-12.0,0.0
23.0,15.0,10.0,-10.0,-9.0,-16.0,-17.0,-1.0,-1.0,-7.0,0.0
9.0,7.0,29.0,-4.0,-5.0,-4.0,-5.0,-5.0,8.0,-14.0,0.0
8.0,11.0,49.0,-10.0,0.0,7.0,-5.0,2.0,4.0,-7.0,0.0
6.0,9.0,52.0,-1.0,-3.0,16.0,-10.0,0.0,-1.0,-2.0,0.0
-2.0,3.0,52.0,20.0,4.0,19.0,-16.0,-9.0,-5.0,9.0,0.0
-8.0,-1.0,43.0,32.0,6.0,14.0,-25.0,-13.0,-16.0,-5.0,0.0
-10.0,-11.0,2.0,40.0,10.0,5.0,-30.0,-16.0,-30.0,-25.0,0.0
-7.0,-21.0,-35.0,24.0,4.0,-13.0,-12.0,-6.0,-19.0,-10.0,0.0
1.0,-18.0,-60.0,-15.0,-14.0,-17.0,-2.0,7.0,-7.0,6.0,0.0
8.0,-14.0,-84.0,-45.0,-27.0,-14.0,3.0,11.0,-15.0,6.0,0.0
10.0,-5.0,-58.0,-41.0,-25.0,-19.0,0.0,1.0,-25.0,-11.0,0.0
2.0,4.0,-39.0,-22.0,-13.0,-3.0,-3.0,-6.0,-17.0,-24.0,0.0
1.0,8.0,-28.0,-12.0,-9.0,5.0,4.0,-5.0,-2.0,-24.0,0.0
-7.0,10.0,-23.0,-13.0,-12.0,4.0,9.0,5.0,0.0,-11.0,0.0
-20.0,-2.0,2.0,-19.0,-12.0,4.0,1.0,12.0,-8.0,-5.0,0.0
-21.0,-9.0,17.0,-18.0,0.0,1.0,-1.0,1.0,-19.0,-9.0,0.0
-16.0,-16.0,13.0,-13.0,3.0,-10.0,-3.0,-11.0,-13.0,-10.0,0.0
-15.0,-18.0,19.0,-17.0,4.0,-15.0,-13.0,-11.0,-4.0,-17.0,0.0
-13.0,-14.0,21.0,-22.0,11.0,-10.0,-22.0,-5.0,-1.0,-16.0,0.0
-4.0,-7.0,14.0,-30.0,1.0,0.0,-18.0,0.0,8.0,-9.0,0.0
0.0,-9.0,27.0,-23.0,1.0,-4.0,-14.0,-9.0,6.0,-8.0,0.0
-6.0,-15.0,17.0,0.0,3.0,-9.0,-14.0,-30.0,-16.0,-20.0,0.0
-12.0,-22.0,-1.0,20.0,-5.0,-13.0,-7.0,-36.0,-20.0,-21.0,0.0
-9.0,-15.0,2.0,16.0,3.0,-9.0,-9.0,-32.0,-2.0,-13.0,0.0
-17.0,-11.0,7.0,12.0,10.0,-9.0,-17.0,-28.0,1.0,-7.0,0.0
-8.0,-15.0,24.0,13.0,3.0,-19.0,-26.0,-21.0,-13.0,2.0,0.0
2.0,-16.0,31.0,-1.0,10.0,-10.0,-30.0,-10.0,-5.0,2.0,0.0
9.0,-7.0,38.0,-1.0,6.0,-4.0,-28.0,-2.0,3.0,18.0,0.0
20.0,-2.0,43.0,8.0,-4.0,3.0,-16.0,-1.0,5.0,20.0,0.0
35.0,24.0,24.0,-16.0,-2.0,8.0,6.0,7.0,18.0,19.0,0.0
45.0,33.0,2.0,-23.0,2.0,2.0,5.0,10.0,23.0,31.0,0.0
33.0,22.0,9.0,-7.0,-3.0,-4.0,3.0,5.0,19.0,30.0,0.0
14.0,7.0,6.0,2.0,0.0,-2.0,11.0,6.0,15.0,22.0,0.0
-6.0,6.0,16.0,-1.0,-1.0,-7.0,-1.0,0.0,7.0,12.0,0.0
-8.0,-4.0,37.0,-6.0,-6.0,-6.0,2.0,1.0,6.0,-3.0,0.0
-12.0,-14.0,21.0,-22.0,-3.0,1.0,-4.0,13.0,4.0,-14.0,0.0
-11.0,-3.0,16.0,-28.0,0.0,8.0,-7.0,21.0,4.0,2.0,0.0
-4.0,6.0,25.0,-18.0,-2.0,6.0,-10.0,24.0,5.0,2.0,0.0
9.0,16.0,33.0,-6.0,-9.0,-1.0,-14.0,17.0,-2.0,-4.0,0.0
7.0,16.0,34.0,3.0,-16.0,-2.0,-6.0,7.0,-1.0,-2.0,0.0
-8.0,-8.0,11.0,2.0,-13.0,6.0,6.0,11.0,7.0,-3.0,0.0
-7.0,-29.0,-13.0,-14.0,-13.0,16.0,3.0,17.0,20.0,-1.0,0.0
-4.0,-24.0,-13.0,-10.0,-8.0,11.0,8.0,29.0,20.0,26.0,0.0
5.0,-6.0,2.0,-1.0,-5.0,9.0,18.0,33.0,22.0,42.0,0.0
0.0,-6.0,-3.0,-18.0,-9.0,11.0,20.0,33.0,30.0,7.0,0.0
-12.0,-13.0,-12.0,-27.0,-14.0,5.0,1.0,27.0,29.0,-8.0,0.0
4.0,-11.0,5.0,-36.0,-16.0,0.0,-3.0,21.0,12.0,-1.0,0.0
15.0,-5.0,17.0,-24.0,-17.0,-4.0,-4.0,10.0,9.0,0.0,0.0
13.0,0.0,10.0,-21.0,-15.0,5.0,0.0,-3.0,5.0,-10.0,0.0
7.0,0.0,1.0,-14.0,1.0,10.0,2.0,8.0,4.0,-11.0,0.0
9.0,3.0,7.0,-13.0,4.0,6.0,-3.0,18.0,10.0,-2.0,0.0
8.0,6.0,1.0,-8.0,-2.0,7.0,-5.0,12.0,13.0,-1.0,0.0
2.0,5.0,14.0,0.0,-5.0,8.0,-13.0,15.0,19.0,-7.0,0.0
13.0,-1.0,31.0,3.0,1.0,14.0,-10.0,6.0,10.0,-4.0,0.0
17.0,-1.0,50.0,16.0,8.0,16.0,-12.0,3.0,-6.0,-8.0,0.0
11.0,7.0,60.0,39.0,22.0,23.0,-7.0,3.0,-10.0,-4.0,0.0
8.0,8.0,60.0,51.0,27.0,20.0,-2.0,13.0,2.0,-3.0,0.0
0.0,0.0,57.0,63.0,23.0,11.0,-4.0,18.0,5.0,-5.0,0.0
-5.0,6.0,53.0,82.0,17.0,16.0,-11.0,9.0,1.0,-19.0,0.0
7.0,15.0,65.0,86.0,11.0,15.0,-21.0,10.0,-4.0,-18.0,0.0
30.0,3.0,53.0,64.0,0.0,3.0,-16.0,5.0,6.0,-8.0,0.0
42.0,-11.0,-7.0,23.0,-5.0,14.0,1.0,10.0,20.0,7.0,0.0
31.0,-26.0,-75.0,-6.0,-15.0,8.0,-4.0,15.0,17.0,26.0,0.0
30.0,-33.0,-120.0,-24.0,-28.0,2.0,-13.0,-4.0,7.0,29.0,0.0
35.0,-2.0,-87.0,-10.0,-19.0,0.0,-16.0,2.0,18.0,11.0,0.0
31.0,20.0,-42.0,-5.0,-6.0,-7.0,-8.0,4.0,20.0,6.0,0.0
19.0,14.0,-11.0,0.0,7.0,0.0,4.0,9.0,18.0,-6.0,0.0
18.0,21.0,-3.0,22.0,14.0,19.0,1.0,5.0,-1.0,-16.0,0.0
22.0,27.0,6.0,32.0,20.0,18.0,-3.0,5.0,-10.0,-15.0,0.0
-1.0,5.0,31.0,29.0,19.0,5.0,5.0,10.0,-7.0,-17.0,0.0
-11.0,-15.0,51.0,43.0,24.0,17.0,-1.0,10.0,8.0,-5.0,0.0
-11.0,-24.0,54.0,31.0,26.0,29.0,14.0,22.0,23.0,6.0,0.0
-6.0,-36.0,27.0,5.0,17.0,36.0,24.0,25.0,24.0,10.0,0.0
8.0,-38.0,-36.0,-16.0,2.0,20.0,14.0,2.0,14.0,-1.0,0.0
8.0,-40.0,-98.0,-23.0,-6.0,-5.0,-1.0,-21.0,-3.0,-11.0,0.0
2.0,-24.0,-85.0,-8.0,-7.0,-9.0,-5.0,-18.0,-5.0,-10.0,0.0
-1.0,-8.0,-51.0,-2.0,-5.0,-6.0,0.0,-7.0,5.0,0.0,0.0
2.0,-4.0,-32.0,3.0,-5.0,-6.0,-1.0,-9.0,8.0,8.0,0.0
11.0,6.0,-24.0,14.0,-11.0,-3.0,-11.0,-3.0,6.0,8.0,0.0
30.0,9.0,-23.0,8.0,-17.0,-15.0,-18.0,-7.0,0.0,5.0,0.0
38.0,4.0,0.0,8.0,-20.0,-22.0,-12.0,-17.0,9.0,18.0,0.0
45.0,10.0,0.0,5.0,-21.0,-20.0,-8.0,-14.0,15.0,21.0,0.0
40.0,12.0,6.0,15.0,-15.0,-15.0,-7.0,-12.0,21.0,9.0,0.0
25.0,10.0,6.0,19.0,-7.0,5.0,-5.0,-8.0,21.0,-6.0,0.0
-1.0,-3.0,12.0,31.0,12.0,26.0,-4.0,-5.0,18.0,-9.0,0.0
-11.0,-8.0,19.0,35.0,26.0,33.0,-12.0,3.0,15.0,-17.0,0.0
-11.0,1.0,17.0,28.0,23.0,29.0,-14.0,7.0,10.0,-2.0,0.0
-3.0,7.0,20.0,38.0,16.0,26.0,-15.0,4.0,6.0,7.0,0.0
5.0,10.0,17.0,41.0,10.0,17.0,-7.0,6.0,5.0,-13.0,0.0
9.0,2.0,28.0,27.0,4.0,14.0,-11.0,15.0,9.0,-17.0,0.0
7.0,1.0,25.0,19.0,2.0,15.0,-12.0,8.0,9.0,-19.0,0.0
4.0,-1.0,0.0,18.0,11.0,15.0,-4.0,13.0,7.0,-20.0,0.0
-8.0,-23.0,-14.0,24.0,3.0,20.0,2.0,17.0,16.0,-8.0,0.0
-13.0,-24.0,-21.0,13.0,-4.0,22.0,-21.0,12.0,16.0,18.0,0.0
-10.0,-28.0,-16.0,0.0,-9.0,16.0,-18.0,15.0,20.0,36.0,0.0
-9.0,-27.0,-13.0,-9.0,-1.0,10.0,-1.0,28.0,32.0,28.0,0.0
-13.0,-32.0,-13.0,2.0,5.0,9.0,3.0,22.0,35.0,8.0,0.0
0.0,-9.0,0.0,22.0,0.0,7.0,0.0,8.0,23.0,22.0,0.0
45.0,33.0,22.0,17.0,-1.0,10.0,-8.0,-10.0,18.0,31.0,0.0
72.0,44.0,30.0,3.0,-5.0,2.0,-18.0,-4.0,9.0,33.0,0.0
65.0,35.0,24.0,-2.0,1.0,1.0,-23.0,5.0,17.0,38.0,0.0
50.0,11.0,18.0,11.0,0.0,0.0,-19.0,-4.0,15.0,24.0,0.0
28.0,-16.0,21.0,22.0,5.0,9.0,-16.0,2.0,14.0,9.0,0.0
3.0,-25.0,7.0,25.0,14.0,20.0,-13.0,9.0,14.0,-1.0,0.0
-15.0,-31.0,-10.0,27.0,15.0,15.0,-8.0,15.0,15.0,0.0,0.0
-15.0,-28.0,0.0,33.0,14.0,16.0,-4.0,25.0,-1.0,-8.0,0.0
-12.0,-2.0,14.0,38.0,11.0,17.0,2.0,13.0,9.0,-15.0,0.0
-14.0,6.0,22.0,44.0,4.0,18.0,12.0,5.0,22.0,-4.0,0.0
-21.0,-1.0,18.0,36.0,-7.0,18.0,16.0,3.0,15.0,-12.0,0.0
-43.0,-16.0,-12.0,32.0,-17.0,11.0,12.0,-7.0,0.0,-23.0,0.0
-47.0,-20.0,-19.0,23.0,-28.0,-2.0,3.0,-5.0,0.0,-27.0,0.0
-45.0,-21.0,-26.0,11.0,-23.0,1.0,-1.0,-11.0,-8.0,-25.0,0.0
-29.0,3.0,-10.0,16.0,-14.0,-3.0,-1.0,-12.0,-10.0,-17.0,0.0
-6.0,41.0,11.0,17.0,-9.0,-7.0,-12.0,-5.0,-13.0,-17.0,0.0
-3.0,32.0,8.0,11.0,-9.0,-4.0,-12.0,1.0,-18.0,-13.0,0.0
-5.0,17.0,-2.0,-1.0,-16.0,-6.0,11.0,0.0,2.0,-7.0,0.0
-8.0,4.0,0.0,-27.0,-13.0,0.0,32.0,3.0,25.0,9.0,0.0
-25.0,-10.0,-11.0,-33.0,-5.0,6.0,41.0,16.0,34.0,28.0,0.0
-28.0,-5.0,6.0,-23.0,-7.0,9.0,27.0,7.0,27.0,16.0,0.0
-41.0,-13.0,33.0,-5.0,-12.0,7.0,11.0,10.0,20.0,20.0,0.0
-36.0,-17.0,35.0,1.0,-14.0,0.0,-5.0,-1.0,4.0,11.0,0.0
8.0,22.0,43.0,10.0,-13.0,-1.0,-14.0,-18.0,-6.0,-7.0,0.0
56.0,53.0,49.0,13.0,-4.0,-12.0,-14.0,-31.0,-27.0,-16.0,0.0
33.0,40.0,0.0,10.0,1.0,-17.0,-12.0,-32.0,-29.0,-16.0,0.0
3.0,-6.0,-36.0,6.0,6.0,-12.0,-14.0,-27.0,-37.0,-20.0,0.0
-13.0,-18.0,-70.0,-3.0,8.0,-15.0,-1.0,-19.0,-39.0,-17.0,0.0
-10.0,-9.0,-73.0,-3.0,2.0,-9.0,5.0,-11.0,-39.0,-12.0,0.0
-4.0,1.0,-65.0,-11.0,-5.0,-18.0,17.0,-1.0,-29.0,0.0,0.0
-3.0,3.0,-57.0,-7.0,0.0,-14.0,27.0,0.0,-5.0,5.0,0.0
-2.0,-6.0,-37.0,-11.0,9.0,-15.0,24.0,5.0,-5.0,0.0,0.0
-2.0,3.0,-23.0,-9.0,8.0,-11.0,10.0,-7.0,-19.0,0.0,0.0
9.0,5.0,-12.0,-5.0,11.0,-4.0,15.0,1.0,-18.0,-1.0,0.0
8.0,-8.0,7.0,1.0,23.0,-1.0,24.0,4.0,-4.0,1.0,0.0
4.0,-8.0,34.0,3.0,19.0,0.0,27.0,-1.0,-4.0,-5.0,0.0
3.0,10.0,39.0,7.0,12.0,-5.0,26.0,15.0,-13.0,-9.0,0.0
-4.0,19.0,41.0,0.0,4.0,1.0,26.0,13.0,-15.0,3.0,0.0
-8.0,15.0,29.0,-8.0,0.0,12.0,19.0,-3.0,-14.0,12.0,0.0
-14.0,15.0,3.0,-24.0,0.0,11.0,15.0,-10.0,-8.0,13.0,0.0
-30.0,11.0,-22.0,-39.0,-15.0,1.0,15.0,-10.0,-4.0,3.0,0.0
-32.0,11.0,-5.0,-37.0,-19.0,-9.0,12.0,-5.0,2.0,-3.0,0.0
-24.0,26.0,25.0,-23.0,-22.0,-16.0,1.0,-12.0,-12.0,-5.0,0.0
-3.0,25.0,27.0,-13.0,-19.0,-4.0,7.0,-21.0,-10.0,18.0,0.0
-4.0,-7.0,2.0,-6.0,-6.0,-6.0,18.0,-12.0,-5.0,48.0,0.0
-15.0,-18.0,2.0,3.0,0.0,-5.0,27.0,-5.0,-2.0,45.0,0.0
-25.0,-16.0,0.0,13.0,10.0,1.0,25.0,2.0,5.0,18.0,0.0
-30.0,-21.0,-2.0,16.0,12.0,-15.0,21.0,0.0,-3.0,8.0,0.0
-6.0,3.0,-18.0,5.0,4.0,-30.0,8.0,-4.0,-16.0,-6.0,0.0
12.0,50.0,-6.0,-6.0,0.0,-42.0,-13.0,-7.0,-22.0,-14.0,0.0
10.0,75.0,15.0,-15.0,2.0,-31.0,-12.0,-1.0,-18.0,-20.0,0.0
0.0,60.0,13.0,-19.0,-7.0,-17.0,1.0,1.0,-9.0,-23.0,0.0
-14.0,15.0,-15.0,-10.0,-9.0,6.0,12.0,13.0,2.0,-3.0,0.0
-16.0,-2.0,-18.0,-10.0,-4.0,17.0,23.0,33.0,22.0,-6.0,0.0
-13.0,-5.0,-18.0,-9.0,-8.0,4.0,16.0,20.0,13.0,0.0,0.0
-12.0,-18.0,-38.0,5.0,-13.0,0.0,0.0,9.0,-9.0,-4.0,0.0
-30.0,-53.0,-69.0,17.0,0.0,7.0,-19.0,6.0,-21.0,-16.0,0.0
-43.0,-63.0,-103.0,13.0,-1.0,-2.0,-23.0,-7.0,-27.0,-6.0,0.0
-36.0,-52.0,-99.0,-20.0,-15.0,-11.0,-23.0,-14.0,-30.0,-11.0,0.0
-21.0,-40.0,-72.0,-15.0,-8.0,0.0,-20.0,-21.0,-31.0,0.0,0.0
-13.0,-36.0,-44.0,-2.0,-3.0,1.0,-5.0,-17.0,-21.0,6.0,0.0
-19.0,-36.0,-17.0,-1.0,-7.0,-10.0,0.0,-19.0,-4.0,-3.0,0.0
-24.0,-32.0,-2.0,9.0,-6.0,-6.0,0.0,-25.0,-5.0,-14.0,0.0
-21.0,-31.0,11.0,2.0,-12.0,-4.0,4.0,-21.0,-15.0,-11.0,0.0
-10.0,-23.0,16.0,-10.0,-4.0,-6.0,13.0,-17.0,-10.0,5.0,0.0
-5.0,-19.0,13.0,-19.0,8.0,0.0,10.0,-12.0,-6.0,26.0,0.0
2.0,-11.0,24.0,-19.0,7.0,0.0,12.0,-15.0,-12.0,16.0,0.0
10.0,9.0,29.0,-14.0,7.0,0.0,6.0,-27.0,-21.0,3.0,0.0
8.0,12.0,25.0,1.0,12.0,7.0,4.0,-24.0,-22.0,13.0,0.0
5.0,-3.0,28.0,14.0,6.0,0.0,11.0,-11.0,-15.0,7.0,0.0
0.0,-12.0,33.0,20.0,10.0,-2.0,5.0,-6.0,-21.0,-5.0,0.0
0.0,-7.0,28.0,11.0,11.0,4.0,-3.0,-14.0,-19.0,3.0,0.0
-9.0,-15.0,17.0,10.0,14.0,10.0,0.0,-16.0,-7.0,5.0,0.0
-19.0,-25.0,12.0,26.0,22.0,18.0,8.0,-18.0,-2.0,2.0,0.0
-20.0,-25.0,22.0,24.0,28.0,13.0,5.0,-20.0,-2.0,7.0,0.0
-21.0,-17.0,21.0,26.0,19.0,0.0,0.0,-17.0,4.0,2.0,0.0
-24.0,-11.0,16.0,22.0,5.0,0.0,10.0,-25.0,6.0,-1.0,0.0
-24.0,-16.0,11.0,8.0,15.0,-9.0,8.0,-15.0,9.0,-1.0,0.0
-19.0,-8.0,15.0,8.0,17.0,-12.0,13.0,-8.0,6.0,-10.0,0.0
-14.0,-9.0,19.0,3.0,13.0,-9.0,22.0,-1.0,0.0,13.0,0.0
-2.0,-2.0,16.0,-3.0,1.0,-18.0,19.0,0.0,2.0,27.0,0.0
12.0,22.0,24.0,2.0,0.0,-16.0,7.0,0.0,-9.0,30.0,0.0
25.0,30.0,31.0,2.0,2.0,-15.0,-6.0,5.0,-8.0,31.0,0.0
14.0,9.0,24.0,-1.0,-3.0,-1.0,-13.0,3.0,-4.0,30.0,0.0
-8.0,-5.0,15.0,6.0,1.0,-1.0,-14.0,2.0,-1.0,24.0,0.0
-14.0,-6.0,30.0,2.0,16.0,-10.0,-14.0,-5.0,-2.0,12.0,0.0
-12.0,-3.0,31.0,0.0,17.0,-7.0,-13.0,-7.0,-5.0,0.0,0.0
0.0,7.0,17.0,4.0,15.0,1.0,-22.0,-14.0,-5.0,2.0,0.0
12.0,28.0,7.0,8.0,18.0,-4.0,-38.0,-31.0,-10.0,10.0,0.0
11.0,34.0,15.0,17.0,14.0,-11.0,-42.0,-29.0,-2.0,19.0,0.0
-4.0,23.0,36.0,20.0,13.0,-12.0,-33.0,-22.0,-3.0,18.0,0.0
-12.0,23.0,65.0,28.0,0.0,-12.0,-33.0,-12.0,-3.0,5.0,0.0
-11.0,29.0,78.0,13.0,-5.0,-10.0,-17.0,-3.0,7.0,11.0,0.0
-11.0,9.0,60.0,3.0,6.0,3.0,0.0,18.0,15.0,15.0,0.0
3.0,-1.0,43.0,-3.0,1.0,6.0,-8.0,9.0,17.0,7.0,0.0
33.0,6.0,-32.0,-16.0,-3.0,-6.0,1.0,4.0,14.0,11.0,0.0
24.0,10.0,-86.0,-20.0,7.0,-10.0,14.0,-2.0,15.0,5.0,0.0
-3.0,-8.0,-73.0,3.0,18.0,-1.0,6.0,-2.0,15.0,-3.0,0.0
-15.0,-23.0,-52.0,15.0,20.0,0.0,1.0,0.0,10.0,-15.0,0.0
-22.0,-33.0,-44.0,14.0,32.0,-2.0,-2.0,5.0,4.0,-18.0,0.0
-20.0,-33.0,-33.0,0.0,22.0,5.0,-3.0,9.0,-2.0,-22.0,0.0
-6.0,-28.0,-32.0,-7.0,10.0,-7.0,5.0,12.0,-7.0,-7.0,0.0
-1.0,-15.0,-32.0,-14.0,2.0,-10.0,6.0,7.0,0.0,0.0,0.0
-9.0,-12.0,-15.0,-13.0,-10.0,-3.0,-16.0,8.0,0.0,3.0,0.0
-2.0,-14.0,-6.0,-21.0,-13.0,3.0,-29.0,7.0,-10.0,7.0,0.0
-2.0,-15.0,11.0,-20.0,-15.0,4.0,-17.0,5.0,-4.0,11.0,0.0
6.0,-10.0,31.0,-8.0,-15.0,9.0,-4.0,0.0,-8.0,17.0,0.0
13.0,0.0,34.0,8.0,-8.0,10.0,0.0,0.0,-11.0,28.0,0.0
17.0,0.0,24.0,2.0,0.0,2.0,0.0,5.0,-11.0,23.0,0.0
18.0,-12.0,17.0,-6.0,2.0,5.0,-2.0,11.0,1.0,15.0,0.0
14.0,-17.0,21.0,-10.0,2.0,7.0,0.0,10.0,5.0,14.0,0.0
2.0,-14.0,25.0,-5.0,0.0,-4.0,0.0,16.0,-4.0,-4.0,0.0
1.0,-29.0,31.0,-15.0,5.0,-11.0,-15.0,11.0,-27.0,-21.0,0.0
-4.0,-35.0,30.0,-2.0,10.0,-11.0,-23.0,6.0,-44.0,-29.0,0.0
-22.0,-12.0,36.0,22.0,15.0,18.0,1.0,11.0,-1.0,-2.0,0.0
-2.0,-4.0,22.0,17.0,3.0,13.0,4.0,-5.0,7.0,1.0,0.0
-3.0,-56.0,-39.0,-59.0,-32.0,-44.0,-67.0,-43.0,-87.0,-33.0,0.0
-3.0,-54.0,-34.0,-71.0,-28.0,-44.0,-65.0,-21.0,-64.0,-33.0,0.0
3.0,-32.0,-8.0,-48.0,-20.0,-22.0,-50.0,-13.0,-27.0,-17.0,0.0
-2.0,-64.0,-18.0,-40.0,-13.0,-58.0,-90.0,-31.0,-99.0,-35.0,0.0
9.0,-25.0,-11.0,-31.0,-19.0,-32.0,-44.0,-23.0,-51.0,-19.0,0.0
29.0,20.0,0.0,-15.0,-19.0,5.0,4.0,-9.0,23.0,9.0,0.0
34.0,8.0,-6.0,-5.0,-11.0,9.0,16.0,-8.0,40.0,19.0,0.0
41.0,9.0,11.0,3.0,-1.0,16.0,15.0,-3.0,24.0,14.0,0.0
45.0,5.0,26.0,9.0,0.0,17.0,-3.0,-11.0,22.0,2.0,0.0
35.0,0.0,24.0,21.0,-4.0,9.0,-15.0,-13.0,19.0,-4.0,0.0
31.0,18.0,29.0,24.0,0.0,3.0,-1.0,-6.0,21.0,-13.0,0.0
20.0,25.0,28.0,12.0,-10.0,2.0,7.0,-9.0,22.0,-14.0,0.0
13.0,17.0,15.0,9.0,-8.0,10.0,0.0,-12.0,21.0,-13.0,0.0
16.0,21.0,4.0,-3.0,-6.0,9.0,3.0,-7.0,18.0,-2.0,0.0
23.0,24.0,3.0,-3.0,-2.0,8.0,12.0,-4.0,24.0,2.0,0.0
20.0,4.0,-15.0,-1.0,1.0,8.0,5.0,-7.0,29.0,16.0,0.0
14.0,-4.0,-27.0,-7.0,2.0,17.0,-1.0,8.0,30.0,21.0,0.0
2.0,0.0,-18.0,-17.0,0.0,32.0,11.0,3.0,29.0,10.0,0.0
-6.0,-8.0,-23.0,-15.0,6.0,26.0,20.0,14.0,32.0,7.0,0.0
-19.0,-17.0,-30.0,-4.0,5.0,18.0,9.0,16.0,12.0,14.0,0.0
-18.0,-25.0,-10.0,9.0,-3.0,3.0,-5.0,7.0,-15.0,-1.0,0.0
0.0,1.0,10.0,13.0,-5.0,17.0,4.0,7.0,0.0,-9.0,0.0
9.0,8.0,2.0,11.0,-3.0,25.0,6.0,10.0,1.0,-16.0,0.0
28.0,5.0,-3.0,2.0,-8.0,36.0,16.0,6.0,5.0,-20.0,0.0
46.0,8.0,-34.0,-8.0,-14.0,26.0,15.0,0.0,2.0,-21.0,0.0
36.0,-3.0,-57.0,-31.0,-16.0,21.0,4.0,-2.0,18.0,-25.0,0.0
26.0,-7.0,-47.0,-25.0,-17.0,19.0,2.0,14.0,30.0,-14.0,0.0
29.0,5.0,-28.0,-13.0,-8.0,19.0,7.0,20.0,28.0,-8.0,0.0
25.0,6.0,-4.0,-9.0,-6.0,24.0,15.0,15.0,32.0,-6.0,0.0
12.0,19.0,-2.0,-4.0,-15.0,14.0,10.0,12.0,29.0,-7.0,0.0
30.0,44.0,10.0,-8.0,-19.0,6.0,15.0,-4.0,25.0,-12.0,0.0
28.0,48.0,9.0,-17.0,-13.0,-11.0,-4.0,-10.0,13.0,-19.0,0.0
16.0,23.0,3.0,-19.0,-10.0,-26.0,-24.0,-15.0,-8.0,-24.0,0.0
14.0,27.0,18.0,-18.0,-11.0,-12.0,-4.0,-23.0,31.0,-6.0,0.0
11.0,6.0,10.0,-12.0,-9.0,0.0,-2.0,-34.0,22.0,-2.0,0.0
3.0,8.0,0.0,-6.0,6.0,12.0,-5.0,-23.0,13.0,10.0,0.0
3.0,2.0,-4.0,-3.0,10.0,23.0,-3.0,-10.0,25.0,43.0,0.0
15.0,1.0,7.0,15.0,15.0,29.0,2.0,8.0,31.0,63.0,0.0
16.0,17.0,5.0,32.0,13.0,21.0,5.0,-1.0,30.0,41.0,0.0
13.0,30.0,1.0,24.0,8.0,26.0,1.0,0.0,12.0,21.0,0.0
-1.0,26.0,13.0,26.0,12.0,37.0,13.0,2.0,9.0,11.0,0.0
-3.0,-2.0,3.0,5.0,15.0,27.0,0.0,13.0,-4.0,1.0,0.0
3.0,-10.0,-14.0,-3.0,8.0,19.0,1.0,11.0,-13.0,11.0,0.0
12.0,4.0,-9.0,0.0,0.0,24.0,0.0,8.0,14.0,18.0,0.0
8.0,7.0,0.0,-2.0,-3.0,17.0,-1.0,6.0,13.0,5.0,0.0
0.0,5.0,1.0,5.0,0.0,18.0,8.0,4.0,1.0,7.0,0.0
2.0,2.0,-16.0,18.0,4.0,24.0,12.0,12.0,4.0,17.0,0.0
5.0,-3.0,-36.0,34.0,0.0,22.0,11.0,3.0,-2.0,26.0,0.0
7.0,-9.0,-47.0,31.0,0.0,13.0,-1.0,0.0,-12.0,16.0,0.0
8.0,-10.0,-55.0,20.0,4.0,6.0,-3.0,0.0,-3.0,-2.0,0.0
1.0,-23.0,-56.0,16.0,14.0,18.0,0.0,9.0,5.0,-11.0,0.0
9.0,-27.0,-49.0,17.0,22.0,17.0,-4.0,14.0,10.0,-4.0,0.0
29.0,-11.0,-20.0,18.0,10.0,14.0,1.0,9.0,13.0,-1.0,0.0
35.0,-4.0,0.0,21.0,1.0,28.0,7.0,15.0,17.0,6.0,0.0
24.0,5.0,19.0,19.0,4.0,34.0,11.0,25.0,21.0,9.0,0.0
15.0,35.0,25.0,26.0,15.0,33.0,19.0,31.0,17.0,5.0,0.0
15.0,49.0,6.0,7.0,13.0,22.0,10.0,21.0,2.0,-16.0,0.0
-2.0,28.0,-14.0,-22.0,13.0,9.0,8.0,16.0,0.0,-23.0,0.0
-18.0,0.0,-25.0,-40.0,9.0,19.0,22.0,36.0,3.0,-19.0,0.0
-23.0,-10.0,-29.0,-54.0,14.0,30.0,31.0,42.0,11.0,-14.0,0.0
-31.0,-18.0,-32.0,-48.0,18.0,36.0,26.0,33.0,18.0,-12.0,0.0
-39.0,-31.0,-35.0,-35.0,19.0,14.0,14.0,26.0,-4.0,-21.0,0.0
-41.0,-39.0,-42.0,-31.0,23.0,-3.0,-2.0,22.0,-21.0,-17.0,0.0
-44.0,-27.0,-37.0,-24.0,21.0,6.0,17.0,30.0,-5.0,-1.0,0.0
-21.0,-18.0,-27.0,-9.0,14.0,5.0,14.0,18.0,-4.0,-6.0,0.0
3.0,5.0,-13.0,10.0,14.0,-5.0,6.0,-6.0,-3.0,-20.0,0.0
3.0,28.0,5.0,29.0,14.0,-3.0,5.0,-3.0,2.0,-18.0,0.0
-11.0,19.0,34.0,37.0,16.0,14.0,0.0,3.0,-4.0,-14.0,0.0
-25.0,1.0,53.0,35.0,11.0,7.0,-13.0,-8.0,-1.0,-14.0,0.0
-25.0,-8.0,67.0,58.0,4.0,3.0,-27.0,-18.0,-7.0,-14.0,0.0
-22.0,-17.0,76.0,69.0,4.0,-10.0,-37.0,-17.0,-14.0,-19.0,0.0
-9.0,-21.0,83.0,52.0,5.0,-10.0,-37.0,-16.0,-32.0,-29.0,0.0
15.0,-4.0,42.0,11.0,1.0,2.0,-16.0,-5.0,-21.0,-21.0,0.0
38.0,24.0,-17.0,-30.0,-1.0,17.0,15.0,-2.0,13.0,-14.0,0.0
37.0,19.0,-56.0,-59.0,-7.0,11.0,13.0,-1.0,8.0,-19.0,0.0
35.0,9.0,-33.0,-51.0,-8.0,11.0,9.0,-3.0,3.0,-26.0,0.0
18.0,12.0,0.0,-20.0,1.0,14.0,23.0,2.0,13.0,-25.0,0.0
-5.0,6.0,27.0,0.0,7.0,15.0,31.0,7.0,27.0,-18.0,0.0
-8.0,-2.0,25.0,0.0,2.0,8.0,28.0,15.0,26.0,-18.0,0.0
-26.0,-31.0,27.0,-38.0,-6.0,-24.0,-19.0,2.0,-37.0,-41.0,0.0
-36.0,-49.0,11.0,-71.0,0.0,-38.0,-34.0,-4.0,-72.0,-53.0,0.0
-20.0,8.0,-6.0,-55.0,14.0,1.0,29.0,25.0,27.0,-5.0,0.0
0.0,20.0,-4.0,-48.0,17.0,-3.0,26.0,13.0,37.0,11.0,0.0
8.0,26.0,-4.0,-47.0,6.0,-15.0,7.0,-8.0,20.0,6.0,0.0
10.0,26.0,7.0,-36.0,8.0,-2.0,3.0,-6.0,15.0,7.0,0.0
-6.0,27.0,13.0,-18.0,24.0,4.0,3.0,-8.0,19.0,12.0,0.0
-11.0,3.0,3.0,16.0,30.0,-3.0,1.0,-9.0,21.0,14.0,0.0
-15.0,-14.0,12.0,25.0,29.0,2.0,5.0,-14.0,15.0,21.0,0.0
-15.0,-13.0,24.0,7.0,21.0,0.0,11.0,-9.0,18.0,32.0,0.0
2.0,-16.0,1.0,-29.0,7.0,-23.0,-4.0,-5.0,-6.0,46.0,0.0
27.0,13.0,-32.0,-50.0,-2.0,-17.0,8.0,-3.0,16.0,38.0,0.0
21.0,17.0,-51.0,-68.0,1.0,-1.0,20.0,0.0,0.0,14.0,0.0
9.0,13.0,-41.0,-48.0,0.0,6.0,28.0,-9.0,0.0,2.0,0.0
-11.0,-14.0,-22.0,-32.0,-20.0,-9.0,-2.0,-20.0,-10.0,-4.0,0.0
-7.0,-10.0,-37.0,-22.0,-24.0,-8.0,0.0,-9.0,1.0,0.0,0.0
-9.0,-8.0,-19.0,-27.0,-19.0,-11.0,0.0,-12.0,-13.0,-5.0,0.0
-25.0,-71.0,-5.0,-38.0,-6.0,-70.0,-85.0,-37.0,-137.0,-52.0,0.0
-21.0,-69.0,-9.0,-19.0,-3.0,-67.0,-74.0,-35.0,-126.0,-51.0,0.0
0.0,9.0,12.0,21.0,6.0,7.0,18.0,6.0,35.0,2.0,0.0
-2.0,16.0,11.0,12.0,7.0,17.0,22.0,6.0,43.0,6.0,0.0
3.0,23.0,29.0,1.0,8.0,16.0,21.0,1.0,40.0,11.0,0.0
14.0,39.0,42.0,20.0,10.0,22.0,22.0,9.0,29.0,5.0,0.0
12.0,38.0,51.0,29.0,7.0,20.0,10.0,-2.0,25.0,9.0,0.0
-3.0,31.0,52.0,26.0,9.0,17.0,-4.0,-8.0,34.0,8.0,0.0
-10.0,40.0,45.0,25.0,14.0,4.0,6.0,-11.0,30.0,6.0,0.0
-3.0,46.0,34.0,19.0,10.0,-4.0,17.0,-5.0,24.0,2.0,0.0
2.0,34.0,23.0,6.0,12.0,-3.0,23.0,4.0,23.0,-3.0,0.0
-6.0,25.0,10.0,-5.0,14.0,0.0,19.0,0.0,13.0,-6.0,0.0
-14.0,15.0,-19.0,-7.0,11.0,-4.0,8.0,-5.0,8.0,5.0,0.0
-21.0,-5.0,-45.0,-7.0,10.0,-15.0,-4.0,-11.0,-30.0,-11.0,0.0
-19.0,-1.0,-49.0,-2.0,-3.0,-9.0,4.0,-4.0,-26.0,-15.0,0.0
-4.0,7.0,-42.0,1.0,-6.0,0.0,12.0,2.0,-7.0,-2.0,0.0
7.0,11.0,-30.0,9.0,0.0,0.0,16.0,2.0,0.0,4.0,0.0
-2.0,-11.0,-40.0,7.0,0.0,3.0,18.0,6.0,3.0,16.0,0.0
-2.0,-8.0,-33.0,16.0,0.0,6.0,10.0,6.0,8.0,17.0,0.0
14.0,12.0,-11.0,18.0,-1.0,0.0,2.0,4.0,19.0,4.0,0.0
24.0,19.0,19.0,14.0,0.0,-8.0,-5.0,-5.0,16.0,8.0,0.0
32.0,20.0,29.0,18.0,-3.0,-17.0,-10.0,-8.0,4.0,17.0,0.0
14.0,13.0,18.0,25.0,-4.0,-10.0,-6.0,-7.0,-3.0,-1.0,0.0
-11.0,11.0,0.0,37.0,0.0,0.0,-6.0,4.0,-14.0,-7.0,0.0
-14.0,21.0,3.0,43.0,5.0,-5.0,-9.0,8.0,-9.0,3.0,0.0
-22.0,20.0,17.0,40.0,8.0,-7.0,-9.0,2.0,-7.0,-2.0,0.0
-8.0,24.0,17.0,38.0,1.0,-8.0,-15.0,-14.0,3.0,-4.0,0.0
11.0,34.0,17.0,32.0,-12.0,-12.0,-17.0,-17.0,2.0,0.0,0.0
3.0,16.0,29.0,24.0,-14.0,-11.0,-10.0,-12.0,6.0,-5.0,0.0
-22.0,1.0,17.0,-2.0,-13.0,-7.0,-1.0,-7.0,8.0,-17.0,0.0
-23.0,3.0,4.0,-6.0,0.0,-7.0,4.0,-4.0,18.0,-19.0,0.0
-25.0,5.0,1.0,-14.0,2.0,-4.0,3.0,1.0,21.0,-11.0,0.0
-37.0,3.0,0.0,-14.0,-17.0,-12.0,12.0,12.0,18.0,6.0,0.0
-38.0,1.0,0.0,-3.0,-10.0,-7.0,16.0,27.0,24.0,32.0,0.0
-34.0,9.0,15.0,10.0,-5.0,2.0,16.0,41.0,33.0,32.0,0.0
-28.0,11.0,43.0,18.0,-7.0,10.0,6.0,33.0,34.0,0.0,0.0
5.0,35.0,61.0,21.0,-19.0,16.0,-5.0,22.0,15.0,-20.0,0.0
19.0,41.0,70.0,18.0,-22.0,17.0,-7.0,15.0,-3.0,-12.0,0.0
24.0,28.0,71.0,17.0,-12.0,17.0,-6.0,14.0,-1.0,-15.0,0.0
29.0,21.0,62.0,18.0,-2.0,22.0,-9.0,20.0,12.0,-8.0,0.0
3.0,0.0,-14.0,17.0,-14.0,12.0,-16.0,9.0,6.0,-17.0,0.0
-6.0,-7.0,-59.0,13.0,-29.0,7.0,-20.0,10.0,-9.0,-17.0,0.0
-20.0,-22.0,-66.0,18.0,-21.0,5.0,-9.0,5.0,-6.0,-1.0,0.0
-27.0,-31.0,-67.0,6.0,-25.0,-7.0,-1.0,0.0,1.0,1.0,0.0
-24.0,-34.0,-52.0,7.0,-30.0,-5.0,-3.0,-3.0,-6.0,-4.0,0.0
-15.0,-30.0,-27.0,0.0,-14.0,-3.0,0.0,-8.0,-2.0,-2.0,0.0
3.0,-18.0,-23.0,-5.0,-10.0,-8.0,-2.0,-6.0,-3.0,-10.0,0.0
32.0,12.0,5.0,11.0,-5.0,-7.0,-7.0,-3.0,-5.0,-25.0,0.0
28.0,24.0,21.0,15.0,-9.0,3.0,1.0,4.0,-11.0,-19.0,0.0
3.0,7.0,12.0,15.0,-13.0,1.0,-2.0,-11.0,-17.0,-20.0,0.0
-1.0,0.0,6.0,15.0,-8.0,2.0,0.0,-13.0,1.0,-8.0,0.0
-3.0,-1.0,-5.0,11.0,-1.0,11.0,21.0,2.0,18.0,12.0,0.0
-14.0,-11.0,-17.0,-13.0,1.0,19.0,19.0,9.0,23.0,10.0,0.0
-8.0,-8.0,10.0,-23.0,-2.0,25.0,16.0,4.0,16.0,12.0,0.0
-2.0,6.0,44.0,-12.0,8.0,15.0,12.0,4.0,11.0,17.0,0.0
-11.0,-8.0,54.0,9.0,9.0,8.0,17.0,13.0,14.0,5.0,0.0
-25.0,-30.0,13.0,-1.0,15.0,14.0,23.0,11.0,15.0,-2.0,0.0
-23.0,-40.0,-23.0,-11.0,25.0,19.0,28.0,12.0,15.0,-10.0,0.0
-29.0,-40.0,-26.0,21.0,17.0,18.0,21.0,8.0,15.0,-14.0,0.0
-13.0,-38.0,-11.0,20.0,0.0,2.0,19.0,-5.0,8.0,0.0,0.0
14.0,2.0,-16.0,-10.0,-18.0,-11.0,3.0,-10.0,4.0,0.0,0.0
19.0,-11.0,-25.0,-56.0,-13.0,-23.0,30.0,-7.0,-7.0,12.0,0.0
16.0,-7.0,-19.0,-40.0,-10.0,-15.0,32.0,0.0,3.0,13.0,0.0
16.0,-7.0,-8.0,-27.0,-10.0,-10.0,30.0,-4.0,19.0,-1.0,0.0
22.0,3.0,-4.0,-14.0,-9.0,-12.0,24.0,-24.0,10.0,-13.0,0.0
5.0,-5.0,-7.0,-3.0,-9.0,-9.0,19.0,-12.0,1.0,-7.0,0.0
-6.0,-3.0,-10.0,-12.0,-9.0,-5.0,3.0,-13.0,6.0,-4.0,0.0
-8.0,14.0,4.0,-20.0,-7.0,-7.0,-4.0,-15.0,-1.0,-19.0,0.0
1.0,19.0,4.0,-16.0,-8.0,-8.0,-2.0,-23.0,-3.0,-22.0,0.0
4.0,12.0,-4.0,-9.0,3.0,-9.0,7.0,-14.0,-4.0,-20.0,0.0
2.0,0.0,-6.0,-13.0,3.0,-6.0,22.0,-6.0,-6.0,-20.0,0.0
-12.0,-12.0,-1.0,-19.0,0.0,-5.0,21.0,-6.0,-14.0,-18.0,0.0
-15.0,-19.0,0.0,-18.0,12.0,-7.0,28.0,-1.0,-9.0,-10.0,0.0
-12.0,-20.0,7.0,-12.0,26.0,-2.0,29.0,-18.0,-20.0,-9.0,0.0
-6.0,-17.0,7.0,-14.0,30.0,-1.0,33.0,-28.0,-16.0,-5.0,0.0
0.0,-7.0,0.0,0.0,22.0,-9.0,22.0,-21.0,-6.0,5.0,0.0
-6.0,-19.0,0.0,-4.0,21.0,-11.0,18.0,-17.0,-21.0,-2.0,0.0
-15.0,-17.0,23.0,3.0,24.0,-20.0,11.0,-25.0,-26.0,-8.0,0.0
-3.0,-2.0,48.0,29.0,29.0,-15.0,3.0,-30.0,-23.0,-6.0,0.0
-1.0,-7.0,48.0,35.0,25.0,5.0,-5.0,-26.0,-11.0,-6.0,0.0
-12.0,-17.0,44.0,34.0,16.0,2.0,2.0,-11.0,-19.0,-9.0,0.0
-18.0,-14.0,39.0,25.0,9.0,-3.0,17.0,-3.0,-16.0,-1.0,0.0
-10.0,-1.0,23.0,15.0,3.0,2.0,34.0,2.0,0.0,1.0,0.0
8.0,1.0,20.0,0.0,-3.0,-2.0,39.0,-2.0,3.0,22.0,0.0
30.0,20.0,4.0,3.0,-6.0,-5.0,28.0,-19.0,7.0,20.0,0.0
29.0,29.0,-18.0,-6.0,0.0,-9.0,10.0,-32.0,-4.0,-10.0,0.0
16.0,17.0,-25.0,-16.0,7.0,-19.0,-10.0,-24.0,-20.0,-20.0,0.0
6.0,-6.0,-15.0,-5.0,0.0,-12.0,-14.0,-10.0,-12.0,-16.0,0.0
4.0,-26.0,0.0,-12.0,7.0,-4.0,-9.0,1.0,-14.0,-22.0,0.0
-4.0,-25.0,1.0,-28.0,16.0,2.0,-2.0,4.0,-13.0,-19.0,0.0
-6.0,-23.0,2.0,-27.0,13.0,7.0,-7.0,4.0,-12.0,-2.0,0.0
-19.0,-25.0,0.0,-9.0,17.0,12.0,6.0,13.0,-7.0,5.0,0.0
-17.0,-36.0,6.0,16.0,18.0,12.0,16.0,9.0,7.0,5.0,0.0
-9.0,-42.0,5.0,25.0,16.0,17.0,3.0,17.0,6.0,0.0,0.0
3.0,-28.0,-4.0,18.0,10.0,14.0,14.0,15.0,11.0,1.0,0.0
17.0,-4.0,-6.0,11.0,1.0,3.0,21.0,0.0,19.0,11.0,0.0
29.0,31.0,12.0,5.0,-8.0,-13.0,0.0,-12.0,7.0,8.0,0.0
25.0,43.0,20.0,-12.0,-13.0,-11.0,-3.0,-5.0,-18.0,4.0,0.0
11.0,29.0,10.0,-31.0,-8.0,1.0,-12.0,-9.0,-30.0,4.0,0.0
7.0,15.0,9.0,-25.0,-6.0,13.0,-13.0,-2.0,-27.0,11.0,0.0
17.0,-2.0,-3.0,-22.0,2.0,21.0,-5.0,6.0,-13.0,5.0,0.0
26.0,-5.0,-10.0,-28.0,2.0,19.0,-13.0,-1.0,-7.0,2.0,0.0
28.0,0.0,-7.0,-33.0,0.0,12.0,-14.0,-8.0,-13.0,-1.0,0.0
35.0,-1.0,-18.0,-31.0,-8.0,3.0,-14.0,-9.0,-20.0,1.0,0.0
37.0,-3.0,-32.0,-33.0,-13.0,-2.0,-3.0,-9.0,-20.0,11.0,0.0
11.0,-6.0,-41.0,-45.0,2.0,0.0,9.0,-5.0,-4.0,13.0,0.0
-9.0,-6.0,-30.0,-38.0,17.0,8.0,17.0,-3.0,10.0,2.0,0.0
-11.0,2.0,-38.0,-28.0,23.0,7.0,6.0,-3.0,0.0,5.0,0.0
-10.0,8.0,-40.0,-9.0,3.0,-5.0,2.0,-9.0,-16.0,-3.0,0.0
5.0,9.0,-38.0,-9.0,-9.0,-3.0,10.0,-10.0,-22.0,0.0,0.0
4.0,2.0,-18.0,-9.0,-1.0,-8.0,10.0,-14.0,-18.0,0.0,0.0
-8.0,-2.0,-3.0,6.0,4.0,-13.0,5.0,-8.0,-2.0,4.0,0.0
-18.0,0.0,-1.0,10.0,5.0,-17.0,-4.0,0.0,5.0,7.0,0.0
-13.0,0.0,8.0,30.0,2.0,-12.0,-4.0,14.0,4.0,10.0,0.0
-17.0,0.0,4.0,29.0,7.0,0.0,-6.0,17.0,10.0,0.0,0.0
-15.0,5.0,0.0,12.0,7.0,-4.0,5.0,7.0,9.0,-10.0,0.0
-3.0,12.0,-1.0,14.0,4.0,-14.0,12.0,-8.0,9.0,-8.0,0.0
-14.0,8.0,0.0,36.0,11.0,-11.0,-4.0,-7.0,5.0,-17.0,0.0
-36.0,-5.0,16.0,56.0,8.0,-8.0,-21.0,-6.0,0.0,-22.0,0.0
-25.0,-6.0,23.0,54.0,6.0,-12.0,-10.0,0.0,-9.0,-6.0,0.0
-9.0,4.0,29.0,43.0,4.0,-6.0,-3.0,0.0,-14.0,-11.0,0.0
-10.0,11.0,34.0,18.0,22.0,0.0,1.0,12.0,-3.0,-9.0,0.0
-16.0,-11.0,8.0,-8.0,37.0,5.0,4.0,22.0,6.0,-7.0,0.0
-22.0,-43.0,-39.0,-19.0,32.0,6.0,0.0,23.0,7.0,2.0,0.0
-18.0,-42.0,-66.0,-23.0,22.0,1.0,-9.0,15.0,13.0,20.0,0.0
-6.0,-30.0,-45.0,-12.0,11.0,0.0,-19.0,19.0,12.0,15.0,0.0
0.0,-10.0,-34.0,4.0,-3.0,5.0,-20.0,29.0,7.0,9.0,0.0
11.0,13.0,-36.0,-10.0,-9.0,-3.0,-20.0,28.0,21.0,25.0,0.0
20.0,14.0,-42.0,-21.0,-5.0,-9.0,-23.0,25.0,12.0,32.0,0.0
35.0,20.0,-37.0,-29.0,0.0,-9.0,-25.0,14.0,23.0,28.0,0.0
41.0,19.0,-26.0,-16.0,-1.0,-17.0,-25.0,-8.0,19.0,16.0,0.0
25.0,4.0,-13.0,-11.0,1.0,-10.0,-27.0,-2.0,5.0,-4.0,0.0
16.0,-6.0,-3.0,-4.0,14.0,-10.0,-19.0,3.0,-5.0,-21.0,0.0
-1.0,-9.0,-20.0,-3.0,8.0,-18.0,-22.0,-2.0,0.0,-22.0,0.0
-18.0,-9.0,-29.0,0.0,4.0,-11.0,-22.0,-4.0,-7.0,-21.0,0.0
-22.0,-14.0,-27.0,8.0,4.0,-19.0,-22.0,-9.0,-19.0,-7.0,0.0
-23.0,-14.0,-15.0,4.0,8.0,-17.0,-20.0,-4.0,-15.0,5.0,0.0
-10.0,-3.0,-8.0,4.0,2.0,3.0,-15.0,2.0,-14.0,34.0,0.0
8.0,26.0,-4.0,5.0,-9.0,16.0,-9.0,9.0,-10.0,51.0,0.0
18.0,29.0,-16.0,0.0,-14.0,5.0,-17.0,10.0,-2.0,40.0,0.0
12.0,22.0,-2.0,-5.0,-21.0,6.0,-18.0,10.0,0.0,34.0,0.0
10.0,10.0,13.0,0.0,-11.0,13.0,-3.0,22.0,7.0,34.0,0.0
1.0,-6.0,3.0,4.0,-8.0,9.0,4.0,15.0,12.0,29.0,0.0
-9.0,-24.0,-9.0,-4.0,-11.0,10.0,0.0,14.0,-2.0,26.0,0.0
-8.0,-29.0,-9.0,-24.0,-10.0,7.0,4.0,11.0,-19.0,30.0,0.0
-2.0,-11.0,-4.0,-34.0,-12.0,-1.0,9.0,6.0,-29.0,19.0,0.0
33.0,18.0,6.0,-23.0,-13.0,4.0,14.0,6.0,-23.0,0.0,0.0
45.0,34.0,33.0,-11.0,-4.0,4.0,15.0,-3.0,-10.0,-16.0,0.0
26.0,39.0,60.0,-17.0,-1.0,-8.0,-2.0,-7.0,0.0,-17.0,0.0
8.0,27.0,65.0,-18.0,-13.0,-15.0,-14.0,-9.0,-2.0,-23.0,0.0
18.0,30.0,56.0,-8.0,-13.0,-11.0,-10.0,-6.0,-3.0,-10.0,0.0
40.0,40.0,45.0,-7.0,-24.0,-14.0,-14.0,-13.0,3.0,-1.0,0.0
33.0,24.0,41.0,-7.0,-24.0,-14.0,-7.0,-4.0,7.0,-4.0,0.0
22.0,14.0,42.0,2.0,-17.0,-8.0,12.0,9.0,15.0,-4.0,0.0
12.0,-3.0,32.0,3.0,-18.0,0.0,28.0,19.0,24.0,0.0,0.0
10.0,-10.0,17.0,-19.0,-26.0,1.0,34.0,21.0,10.0,6.0,0.0
16.0,-4.0,20.0,-30.0,-24.0,-13.0,9.0,8.0,-3.0,-3.0,0.0
-1.0,0.0,21.0,-1.0,-21.0,-14.0,0.0,4.0,-4.0,-17.0,0.0
-19.0,-5.0,9.0,17.0,-21.0,-2.0,3.0,5.0,-7.0,-15.0,0.0
-24.0,-1.0,-11.0,24.0,-18.0,0.0,3.0,5.0,-2.0,-14.0,0.0
-19.0,-9.0,-25.0,20.0,-21.0,-3.0,0.0,6.0,5.0,-14.0,0.0
-16.0,-17.0,-45.0,1.0,-29.0,-10.0,0.0,-6.0,4.0,-24.0,0.0
-4.0,-14.0,-28.0,6.0,-28.0,-8.0,5.0,-15.0,0.0,-11.0,0.0
6.0,-2.0,11.0,12.0,-31.0,-10.0,9.0,-9.0,21.0,14.0,0.0
20.0,6.0,6.0,-7.0,-25.0,-26.0,8.0,-1.0,14.0,13.0,0.0
26.0,21.0,-44.0,-37.0,-18.0,-17.0,18.0,8.0,23.0,16.0,0.0
22.0,21.0,-75.0,-50.0,-29.0,-18.0,8.0,16.0,37.0,17.0,0.0
26.0,23.0,-56.0,-36.0,-34.0,-29.0,-13.0,5.0,27.0,20.0,0.0
41.0,28.0,-33.0,-26.0,-44.0,-32.0,-9.0,-13.0,21.0,37.0,0.0
42.0,27.0,-15.0,-26.0,-44.0,-26.0,-3.0,-10.0,22.0,47.0,0.0
35.0,30.0,-1.0,-19.0,-40.0,-27.0,-2.0,0.0,26.0,45.0,0.0
34.0,23.0,29.0,-6.0,-30.0,-37.0,1.0,-1.0,30.0,30.0,0.0
13.0,8.0,44.0,9.0,-22.0,-29.0,9.0,0.0,19.0,15.0,0.0
-9.0,-4.0,55.0,22.0,-21.0,-22.0,8.0,15.0,11.0,6.0,0.0
-18.0,-12.0,25.0,37.0,-31.0,-28.0,0.0,5.0,6.0,-13.0,0.0
-37.0,-13.0,-22.0,28.0,-35.0,-45.0,0.0,-7.0,10.0,-38.0,0.0
-46.0,-18.0,-36.0,4.0,-31.0,-41.0,-2.0,-5.0,8.0,-31.0,0.0
-38.0,-30.0,-19.0,-27.0,-30.0,-36.0,-2.0,8.0,14.0,-22.0,0.0
-33.0,-45.0,-10.0,-22.0,-15.0,-26.0,-4.0,9.0,0.0,-24.0,0.0
-29.0,-48.0,-22.0,1.0,-12.0,-18.0,6.0,3.0,-16.0,-26.0,0.0
-11.0,-23.0,-29.0,17.0,-18.0,-18.0,2.0,4.0,-23.0,-18.0,0.0
5.0,-1.0,-25.0,31.0,-22.0,-15.0,-5.0,9.0,-15.0,1.0,0.0
5.0,0.0,-28.0,19.0,-21.0,-10.0,-7.0,17.0,-1.0,3.0,0.0
3.0,-1.0,-26.0,14.0,-21.0,-8.0,-3.0,32.0,-12.0,0.0,0.0
-3.0,0.0,-12.0,14.0,-18.0,-14.0,-9.0,28.0,-9.0,4.0,0.0
-4.0,6.0,-9.0,32.0,-18.0,-10.0,-16.0,17.0,-14.0,14.0,0.0
-1.0,7.0,-1.0,26.0,-24.0,-5.0,-14.0,12.0,-15.0,14.0,0.0
0.0,4.0,-2.0,16.0,-24.0,-3.0,-10.0,6.0,-14.0,15.0,0.0
-17.0,4.0,5.0,-2.0,-16.0,-9.0,-14.0,10.0,-21.0,5.0,0.0
-18.0,5.0,-11.0,-14.0,-17.0,-18.0,-12.0,11.0,-24.0,-4.0,0.0
-15.0,0.0,-11.0,1.0,-9.0,-13.0,-4.0,0.0,-17.0,-20.0,0.0
-23.0,-9.0,-1.0,22.0,2.0,6.0,1.0,6.0,-21.0,-26.0,0.0
-41.0,-13.0,0.0,39.0,14.0,3.0,8.0,0.0,-23.0,-28.0,0.0
-32.0,-13.0,0.0,34.0,3.0,-5.0,0.0,-2.0,-24.0,-27.0,0.0
-17.0,-10.0,-7.0,35.0,-7.0,-4.0,-9.0,2.0,-13.0,-15.0,0.0
-22.0,-7.0,-3.0,44.0,2.0,3.0,3.0,-2.0,-8.0,-7.0,0.0
-25.0,-10.0,15.0,47.0,10.0,8.0,1.0,-2.0,-6.0,-7.0,0.0
-27.0,-2.0,10.0,39.0,16.0,19.0,2.0,9.0,-18.0,-3.0,0.0
-31.0,1.0,13.0,31.0,8.0,15.0,2.0,4.0,-23.0,-4.0,0.0
-32.0,2.0,11.0,27.0,5.0,10.0,6.0,0.0,-23.0,4.0,0.0
-32.0,6.0,1.0,11.0,10.0,6.0,-3.0,-3.0,-24.0,5.0,0.0
-28.0,-6.0,10.0,4.0,6.0,-4.0,-2.0,-4.0,-20.0,-5.0,0.0
-10.0,-3.0,15.0,3.0,16.0,-5.0,-4.0,-8.0,-17.0,-17.0,0.0
10.0,7.0,24.0,4.0,11.0,-2.0,-9.0,-12.0,-10.0,-11.0,0.0
4.0,1.0,25.0,7.0,7.0,-8.0,-4.0,-8.0,-5.0,-14.0,0.0
-20.0,-9.0,22.0,24.0,17.0,-5.0,2.0,-14.0,5.0,-21.0,0.0
-31.0,-1.0,21.0,25.0,23.0,6.0,2.0,-15.0,-8.0,-27.0,0.0
-23.0,18.0,35.0,24.0,14.0,9.0,-7.0,-16.0,-7.0,-16.0,0.0
-18.0,21.0,30.0,20.0,7.0,13.0,-9.0,-17.0,-3.0,-14.0,0.0
-11.0,-6.0,0.0,12.0,10.0,16.0,-7.0,-18.0,5.0,1.0,0.0
-18.0,-26.0,-20.0,0.0,10.0,0.0,-15.0,-15.0,11.0,-4.0,0.0
-27.0,-34.0,-6.0,-4.0,14.0,-1.0,-8.0,-2.0,1.0,-6.0,0.0
-25.0,-43.0,2.0,-10.0,4.0,0.0,-9.0,-3.0,-3.0,-6.0,0.0
-2.0,-23.0,12.0,-32.0,-7.0,-13.0,-21.0,-1.0,-17.0,-13.0,0.0
20.0,16.0,18.0,-44.0,-10.0,-22.0,-19.0,2.0,-24.0,-16.0,0.0
21.0,21.0,4.0,-37.0,-5.0,-10.0,-16.0,6.0,-12.0,-14.0,0.0
4.0,5.0,-1.0,-24.0,-2.0,7.0,-15.0,6.0,-1.0,-10.0,0.0
-4.0,-5.0,-12.0,-15.0,2.0,14.0,-8.0,5.0,4.0,-17.0,0.0
-6.0,2.0,-18.0,-3.0,-4.0,20.0,-4.0,15.0,10.0,-22.0,0.0
9.0,8.0,4.0,-1.0,-2.0,22.0,-3.0,22.0,3.0,-28.0,0.0
14.0,9.0,16.0,0.0,6.0,28.0,-15.0,16.0,1.0,-19.0,0.0
13.0,16.0,22.0,15.0,3.0,22.0,-17.0,1.0,11.0,-28.0,0.0
8.0,19.0,40.0,38.0,4.0,21.0,-11.0,6.0,-1.0,-35.0,0.0
18.0,6.0,29.0,38.0,0.0,19.0,-6.0,10.0,-2.0,-31.0,0.0
29.0,0.0,22.0,16.0,1.0,17.0,9.0,1.0,-5.0,-23.0,0.0
7.0,-21.0,-5.0,11.0,-1.0,13.0,14.0,6.0,-5.0,-16.0,0.0
-11.0,-33.0,-6.0,15.0,4.0,12.0,2.0,2.0,-5.0,-20.0,0.0
3.0,-15.0,5.0,16.0,0.0,9.0,-10.0,1.0,0.0,-14.0,0.0
18.0,-4.0,6.0,12.0,-1.0,-1.0,2.0,13.0,15.0,-12.0,0.0
25.0,0.0,-17.0,-9.0,-12.0,-6.0,-1.0,23.0,8.0,-14.0,0.0
29.0,4.0,-19.0,-5.0,-14.0,-3.0,1.0,14.0,13.0,-10.0,0.0
18.0,0.0,4.0,3.0,-1.0,13.0,15.0,8.0,21.0,-6.0,0.0
0.0,2.0,39.0,6.0,17.0,21.0,14.0,23.0,19.0,-6.0,0.0
-4.0,15.0,45.0,15.0,24.0,28.0,10.0,22.0,27.0,-7.0,0.0
11.0,22.0,51.0,17.0,8.0,35.0,3.0,6.0,24.0,-3.0,0.0
24.0,18.0,55.0,10.0,-9.0,26.0,-10.0,1.0,27.0,9.0,0.0
27.0,13.0,20.0,-8.0,-12.0,7.0,-18.0,5.0,21.0,15.0,0.0
11.0,9.0,3.0,-14.0,-21.0,-8.0,-18.0,-7.0,14.0,-6.0,0.0
-1.0,5.0,-13.0,7.0,-12.0,-27.0,-23.0,-23.0,4.0,-20.0,0.0
-16.0,-3.0,-27.0,7.0,-12.0,-21.0,-13.0,-20.0,9.0,-21.0,0.0
-24.0,-8.0,-41.0,-31.0,-29.0,-26.0,-13.0,-24.0,9.0,-17.0,0.0
-23.0,-4.0,-35.0,-44.0,-33.0,-28.0,-15.0,-31.0,-7.0,-13.0,0.0
-31.0,-17.0,-18.0,-25.0,-19.0,-34.0,-12.0,-34.0,-9.0,0.0,0.0
-21.0,-19.0,-11.0,-7.0,-14.0,-35.0,-14.0,-35.0,-10.0,5.0,0.0
3.0,0.0,-4.0,21.0,-4.0,-23.0,-12.0,-37.0,-9.0,22.0,0.0
-1.0,7.0,6.0,44.0,17.0,-18.0,-8.0,-27.0,-18.0,18.0,0.0
-18.0,-13.0,-5.0,25.0,22.0,-2.0,-1.0,-9.0,-14.0,1.0,0.0
-20.0,-15.0,-6.0,8.0,25.0,-3.0,0.0,-4.0,-11.0,0.0,0.0
-23.0,-12.0,1.0,3.0,19.0,-8.0,-2.0,-11.0,-6.0,9.0,0.0
-30.0,-30.0,-4.0,-22.0,11.0,0.0,5.0,-3.0,7.0,16.0,0.0
-18.0,-17.0,-16.0,-46.0,12.0,7.0,19.0,3.0,14.0,36.0,0.0
3.0,-5.0,-35.0,-50.0,6.0,5.0,24.0,14.0,21.0,46.0,0.0
10.0,3.0,-36.0,-40.0,-11.0,16.0,16.0,7.0,16.0,40.0,0.0
12.0,16.0,-12.0,-23.0,-11.0,13.0,13.0,-5.0,11.0,31.0,0.0
16.0,20.0,8.0,-8.0,3.0,-1.0,10.0,-14.0,3.0,14.0,0.0
13.0,-3.0,-10.0,-4.0,7.0,-11.0,11.0,-12.0,-8.0,0.0,0.0
1.0,-8.0,-21.0,-7.0,-2.0,-16.0,13.0,-11.0,-4.0,-4.0,0.0
5.0,-1.0,-17.0,12.0,-3.0,-25.0,0.0,-11.0,-4.0,-6.0,0.0
10.0,6.0,-8.0,10.0,-6.0,-29.0,-1.0,-20.0,-8.0,-3.0,0.0
9.0,18.0,0.0,0.0,-10.0,-25.0,12.0,-23.0,-1.0,3.0,0.0
12.0,13.0,13.0,-6.0,-6.0,-19.0,10.0,-15.0,13.0,-8.0,0.0
19.0,14.0,8.0,1.0,-9.0,-12.0,5.0,-14.0,7.0,1.0,0.0
19.0,12.0,6.0,1.0,-23.0,-14.0,3.0,-8.0,9.0,3.0,0.0
23.0,29.0,21.0,0.0,-10.0,-13.0,5.0,-7.0,10.0,18.0,0.0
23.0,39.0,28.0,4.0,-4.0,-10.0,14.0,-18.0,5.0,22.0,0.0
1.0,19.0,20.0,20.0,-9.0,-10.0,6.0,-25.0,13.0,18.0,0.0
-13.0,12.0,9.0,25.0,-6.0,-9.0,2.0,-13.0,5.0,16.0,0.0
-17.0,-1.0,10.0,28.0,3.0,0.0,6.0,0.0,10.0,20.0,0.0
-34.0,-10.0,0.0,17.0,6.0,-3.0,5.0,1.0,8.0,18.0,0.0
-11.0,6.0,16.0,19.0,10.0,3.0,0.0,-13.0,-10.0,2.0,0.0
34.0,38.0,41.0,23.0,12.0,-1.0,0.0,-28.0,-29.0,-15.0,0.0
28.0,43.0,46.0,17.0,0.0,-7.0,-4.0,-30.0,-14.0,-17.0,0.0
0.0,34.0,52.0,15.0,-4.0,-2.0,-6.0,-22.0,-8.0,-13.0,0.0
-25.0,20.0,45.0,15.0,1.0,7.0,22.0,-24.0,-9.0,-13.0,0.0
-35.0,15.0,43.0,10.0,8.0,17.0,28.0,-19.0,-11.0,-10.0,0.0
-35.0,10.0,45.0,9.0,-2.0,12.0,39.0,-14.0,-6.0,-5.0,0.0
-37.0,-6.0,34.0,11.0,-5.0,13.0,44.0,-5.0,0.0,7.0,0.0
-43.0,-20.0,12.0,22.0,-6.0,17.0,52.0,7.0,4.0,0.0,0.0
-44.0,-40.0,-11.0,23.0,-11.0,13.0,44.0,0.0,-6.0,-5.0,0.0
-50.0,-46.0,-37.0,18.0,-8.0,4.0,24.0,-11.0,0.0,-3.0,0.0
-22.0,-15.0,-24.0,6.0,-15.0,-1.0,15.0,-18.0,16.0,-6.0,0.0
16.0,15.0,-12.0,1.0,-21.0,-10.0,19.0,-8.0,17.0,3.0,0.0
20.0,12.0,-8.0,9.0,-11.0,-6.0,5.0,6.0,20.0,10.0,0.0
13.0,-7.0,0.0,24.0,-3.0,1.0,0.0,3.0,4.0,2.0,0.0
12.0,-5.0,9.0,25.0,-9.0,4.0,-6.0,7.0,7.0,-4.0,0.0
17.0,16.0,10.0,9.0,-12.0,11.0,0.0,7.0,7.0,0.0,0.0
14.0,28.0,7.0,0.0,-20.0,19.0,10.0,12.0,15.0,3.0,0.0
14.0,18.0,-1.0,7.0,-16.0,10.0,5.0,8.0,15.0,-1.0,0.0
7.0,8.0,-1.0,4.0,-13.0,11.0,-4.0,18.0,12.0,-2.0,0.0
2.0,5.0,-3.0,-1.0,-15.0,9.0,-4.0,22.0,0.0,5.0,0.0
1.0,12.0,-4.0,0.0,-7.0,5.0,6.0,15.0,-5.0,7.0,0.0
9.0,7.0,5.0,10.0,-2.0,2.0,4.0,6.0,-10.0,13.0,0.0
17.0,-8.0,22.0,14.0,7.0,-10.0,2.0,-4.0,-7.0,1.0,0.0
6.0,-11.0,14.0,3.0,13.0,-10.0,0.0,0.0,-2.0,-14.0,0.0
-7.0,-14.0,2.0,8.0,8.0,-7.0,-3.0,-2.0,2.0,-11.0,0.0
-15.0,-22.0,12.0,17.0,12.0,-8.0,-6.0,-14.0,11.0,-13.0,0.0
-5.0,-22.0,31.0,4.0,8.0,-7.0,2.0,-6.0,14.0,-22.0,0.0
3.0,-7.0,32.0,10.0,-1.0,-15.0,-3.0,7.0,10.0,-9.0,0.0
13.0,11.0,23.0,6.0,-1.0,-17.0,-9.0,11.0,8.0,7.0,0.0
12.0,13.0,29.0,-1.0,0.0,-27.0,-4.0,4.0,19.0,1.0,0.0
-2.0,-1.0,8.0,-12.0,-8.0,-30.0,-16.0,4.0,16.0,-19.0,0.0
-7.0,-16.0,-12.0,-15.0,-8.0,-27.0,-21.0,-1.0,1.0,-24.0,0.0
1.0,-5.0,-11.0,-7.0,-3.0,-27.0,-24.0,-1.0,-7.0,-12.0,0.0
16.0,4.0,6.0,-4.0,0.0,-41.0,-29.0,2.0,-5.0,3.0,0.0
12.0,15.0,11.0,-5.0,6.0,-30.0,-20.0,4.0,-9.0,5.0,0.0
7.0,11.0,26.0,-5.0,8.0,-24.0,-15.0,12.0,-12.0,-3.0,0.0
7.0,-2.0,47.0,-21.0,11.0,-28.0,-3.0,15.0,-1.0,-13.0,0.0
12.0,-8.0,48.0,-22.0,13.0,-29.0,1.0,8.0,8.0,-15.0,0.0
18.0,-16.0,50.0,-7.0,24.0,-16.0,8.0,14.0,14.0,-14.0,0.0
16.0,-12.0,58.0,-2.0,25.0,0.0,20.0,17.0,17.0,-4.0,0.0
20.0,0.0,41.0,-2.0,31.0,8.0,22.0,12.0,15.0,-4.0,0.0
35.0,17.0,32.0,2.0,29.0,4.0,18.0,0.0,12.0,1.0,0.0
40.0,23.0,-22.0,-17.0,18.0,-4.0,9.0,-1.0,6.0,9.0,0.0
34.0,-2.0,-100.0,-70.0,0.0,-15.0,0.0,6.0,-11.0,11.0,0.0
15.0,-33.0,-114.0,-102.0,-14.0,-18.0,-3.0,-2.0,-24.0,3.0,0.0
-4.0,-36.0,-58.0,-74.0,-3.0,-14.0,4.0,0.0,-31.0,-6.0,0.0
-8.0,-29.0,-11.0,-44.0,1.0,-8.0,15.0,-2.0,-13.0,0.0,0.0
-23.0,-18.0,16.0,-23.0,8.0,7.0,10.0,0.0,-1.0,10.0,0.0
-34.0,-18.0,6.0,-8.0,9.0,-2.0,-2.0,12.0,-12.0,6.0,0.0
-30.0,-17.0,-36.0,16.0,-10.0,-30.0,-11.0,4.0,-22.0,-14.0,0.0
-16.0,2.0,-52.0,30.0,-12.0,-28.0,-7.0,-7.0,-27.0,-31.0,0.0
3.0,36.0,-2.0,38.0,8.0,-13.0,-3.0,-15.0,-25.0,-32.0,0.0
27.0,44.0,38.0,29.0,15.0,-8.0,-3.0,-23.0,-9.0,-24.0,0.0
27.0,36.0,57.0,16.0,14.0,-8.0,-2.0,-6.0,0.0,-16.0,0.0
20.0,26.0,53.0,-1.0,14.0,-8.0,-3.0,8.0,-13.0,-17.0,0.0
18.0,10.0,24.0,-25.0,9.0,2.0,2.0,21.0,-9.0,-11.0,0.0
25.0,16.0,-28.0,-50.0,6.0,7.0,7.0,25.0,16.0,8.0,0.0
34.0,17.0,-51.0,-56.0,10.0,-7.0,8.0,23.0,19.0,0.0,0.0
24.0,8.0,-50.0,-23.0,7.0,-13.0,2.0,14.0,13.0,-6.0,0.0
4.0,-1.0,-54.0,-15.0,6.0,-15.0,1.0,9.0,4.0,-12.0,0.0
-9.0,-11.0,-61.0,-19.0,3.0,-17.0,-4.0,0.0,13.0,-12.0,0.0
-14.0,-9.0,-59.0,-25.0,-13.0,-17.0,-11.0,5.0,23.0,-2.0,0.0
-18.0,-2.0,-55.0,-21.0,-11.0,4.0,-9.0,7.0,24.0,11.0,0.0
-6.0,3.0,-43.0,-11.0,-9.0,15.0,-7.0,16.0,24.0,37.0,0.0
11.0,0.0,-29.0,1.0,1.0,12.0,-5.0,6.0,18.0,45.0,0.0
7.0,-4.0,-4.0,3.0,-1.0,9.0,-7.0,-13.0,6.0,23.0,0.0
0.0,-17.0,6.0,10.0,-3.0,3.0,-21.0,-26.0,8.0,12.0,0.0
4.0,-15.0,0.0,26.0,0.0,3.0,-15.0,-26.0,-6.0,7.0,0.0
0.0,-7.0,-8.0,31.0,-1.0,0.0,-15.0,-31.0,2.0,-1.0,0.0
-5.0,10.0,-1.0,25.0,0.0,-6.0,-14.0,-30.0,9.0,-1.0,0.0
1.0,18.0,4.0,8.0,-8.0,0.0,-6.0,-19.0,11.0,5.0,0.0
11.0,27.0,25.0,7.0,-5.0,3.0,-2.0,-5.0,0.0,11.0,0.0
-5.0,23.0,32.0,12.0,-12.0,14.0,7.0,2.0,7.0,14.0,0.0
-16.0,7.0,13.0,12.0,-8.0,22.0,8.0,4.0,14.0,9.0,0.0
-17.0,-7.0,-9.0,15.0,-6.0,20.0,3.0,6.0,10.0,-12.0,0.0
-16.0,-6.0,-3.0,19.0,-7.0,11.0,3.0,10.0,-10.0,-19.0,0.0
-19.0,1.0,-1.0,27.0,0.0,3.0,0.0,12.0,-25.0,-10.0,0.0
2.0,9.0,0.0,24.0,0.0,4.0,-4.0,7.0,-23.0,-2.0,0.0
7.0,9.0,-9.0,-6.0,-9.0,4.0,-6.0,6.0,-13.0,-1.0,0.0
3.0,6.0,-13.0,-5.0,-11.0,4.0,-5.0,11.0,-13.0,12.0,0.0
-3.0,-13.0,-12.0,-15.0,0.0,7.0,-12.0,10.0,-18.0,20.0,0.0
1.0,-8.0,-5.0,-17.0,3.0,10.0,-16.0,13.0,-19.0,12.0,0.0
1.0,7.0,-5.0,3.0,3.0,8.0,-13.0,2.0,-7.0,12.0,0.0
8.0,27.0,-3.0,20.0,2.0,3.0,-20.0,-21.0,-14.0,19.0,0.0
-4.0,24.0,-5.0,3.0,7.0,6.0,-22.0,-28.0,-24.0,20.0,0.0
-12.0,10.0,-1.0,-20.0,11.0,-1.0,-19.0,-14.0,-21.0,13.0,0.0
-11.0,-1.0,0.0,-22.0,6.0,5.0,-12.0,4.0,-18.0,11.0,0.0
-18.0,-3.0,0.0,-9.0,-1.0,6.0,-9.0,9.0,-19.0,16.0,0.0
-6.0,4.0,8.0,0.0,-5.0,13.0,6.0,9.0,-23.0,32.0,0.0
-5.0,10.0,19.0,9.0,-3.0,25.0,0.0,1.0,-25.0,32.0,0.0
-13.0,14.0,21.0,31.0,7.0,14.0,-5.0,-3.0,-8.0,30.0,0.0
-9.0,12.0,35.0,31.0,9.0,14.0,2.0,0.0,3.0,32.0,0.0
-11.0,-2.0,36.0,27.0,13.0,24.0,13.0,0.0,-1.0,35.0,0.0
-19.0,-23.0,24.0,17.0,21.0,24.0,26.0,7.0,-7.0,25.0,0.0
-26.0,-26.0,3.0,7.0,30.0,29.0,26.0,16.0,-16.0,21.0,0.0
-36.0,-19.0,-3.0,3.0,26.0,15.0,18.0,12.0,-18.0,23.0,0.0
-26.0,-25.0,-4.0,0.0,16.0,2.0,4.0,12.0,-25.0,16.0,0.0
-19.0,-16.0,-11.0,-5.0,11.0,-5.0,-13.0,0.0,-27.0,11.0,0.0
-20.0,-11.0,-8.0,3.0,10.0,-12.0,-4.0,-5.0,-31.0,10.0,0.0
-28.0,-23.0,0.0,8.0,14.0,-8.0,0.0,0.0,-27.0,12.0,0.0
-40.0,-19.0,-6.0,-1.0,12.0,5.0,0.0,-1.0,-18.0,1.0,0.0
-22.0,-17.0,0.0,3.0,-1.0,5.0,-3.0,0.0,-24.0,-1.0,0.0
-11.0,-21.0,2.0,13.0,0.0,2.0,-2.0,-6.0,-22.0,-1.0,0.0
-5.0,-12.0,22.0,8.0,10.0,12.0,11.0,3.0,-13.0,5.0,0.0
-10.0,-6.0,9.0,-15.0,15.0,13.0,3.0,8.0,-8.0,17.0,0.0
-13.0,-15.0,-22.0,-35.0,12.0,16.0,-4.0,16.0,-7.0,17.0,0.0
-21.0,-26.0,-19.0,-36.0,2.0,15.0,-2.0,0.0,3.0,14.0,0.0
-26.0,-32.0,-6.0,-37.0,-6.0,10.0,0.0,-15.0,2.0,14.0,0.0
-15.0,-25.0,19.0,-31.0,-7.0,9.0,-13.0,-14.0,-13.0,18.0,0.0
-10.0,-5.0,55.0,-10.0,0.0,7.0,-18.0,-15.0,-12.0,7.0,0.0
-1.0,14.0,68.0,2.0,5.0,10.0,-11.0,-24.0,-5.0,8.0,0.0
-3.0,20.0,84.0,7.0,8.0,11.0,-2.0,-20.0,-4.0,11.0,0.0
-6.0,8.0,87.0,21.0,2.0,17.0,1.0,-5.0,-4.0,5.0,0.0
-2.0,17.0,56.0,29.0,-1.0,15.0,2.0,-12.0,0.0,4.0,0.0
8.0,12.0,32.0,27.0,-9.0,15.0,-7.0,-18.0,0.0,-5.0,0.0
8.0,0.0,-3.0,20.0,-11.0,7.0,-18.0,-17.0,6.0,-10.0,0.0
1.0,-5.0,-41.0,-9.0,-9.0,9.0,-11.0,-9.0,9.0,-4.0,0.0
-4.0,-21.0,-77.0,-32.0,-6.0,7.0,-5.0,-10.0,0.0,2.0,0.0
-12.0,-36.0,-85.0,-48.0,-13.0,-3.0,-9.0,-13.0,-17.0,-3.0,0.0
-23.0,-36.0,-40.0,-34.0,-11.0,-15.0,-21.0,-15.0,-18.0,-1.0,0.0
-20.0,-26.0,-20.0,-15.0,0.0,-7.0,-21.0,-17.0,-26.0,-5.0,0.0
5.0,-11.0,-15.0,0.0,-4.0,-3.0,-9.0,-10.0,-35.0,-10.0,0.0
17.0,-6.0,-42.0,-15.0,-13.0,-9.0,-5.0,-6.0,-20.0,-22.0,0.0
-1.0,-20.0,-73.0,-40.0,-38.0,-9.0,-5.0,-18.0,-16.0,-27.0,0.0
-5.0,-20.0,-75.0,-31.0,-42.0,-12.0,-8.0,-20.0,-21.0,-32.0,0.0
4.0,-20.0,-56.0,-16.0,-28.0,-16.0,-8.0,-19.0,-29.0,-32.0,0.0
1.0,-16.0,-30.0,-3.0,-23.0,-12.0,7.0,-14.0,-29.0,-33.0,0.0
-3.0,-19.0,-25.0,10.0,-15.0,-12.0,13.0,-18.0,-22.0,-20.0,0.0
1.0,-23.0,-29.0,0.0,-5.0,-18.0,11.0,-22.0,-26.0,-4.0,0.0
9.0,-32.0,-29.0,-7.0,-11.0,-14.0,10.0,-14.0,-19.0,-9.0,0.0
0.0,-35.0,-16.0,4.0,-7.0,-6.0,12.0,-8.0,-6.0,-6.0,0.0
2.0,-32.0,3.0,13.0,0.0,-10.0,12.0,-8.0,-9.0,-2.0,0.0
16.0,-22.0,16.0,10.0,-6.0,-12.0,13.0,-14.0,-18.0,-3.0,0.0
19.0,6.0,40.0,3.0,-21.0,-12.0,10.0,-29.0,-28.0,1.0,0.0
6.0,20.0,55.0,9.0,-17.0,-7.0,8.0,-31.0,-17.0,0.0,0.0
10.0,17.0,48.0,2.0,-5.0,-1.0,8.0,-14.0,-11.0,-8.0,0.0
33.0,22.0,47.0,-4.0,-4.0,0.0,9.0,-1.0,-12.0,-3.0,0.0
32.0,18.0,20.0,2.0,2.0,5.0,11.0,-6.0,-10.0,-15.0,0.0
13.0,7.0,-17.0,14.0,4.0,17.0,9.0,-2.0,-5.0,-23.0,0.0
-6.0,-6.0,-28.0,24.0,16.0,11.0,5.0,-1.0,0.0,-29.0,0.0
1.0,-12.0,-14.0,19.0,14.0,0.0,-9.0,-13.0,-12.0,-28.0,0.0
4.0,2.0,-4.0,16.0,4.0,-9.0,-12.0,-21.0,-7.0,-33.0,0.0
10.0,1.0,4.0,13.0,-6.0,-9.0,-2.0,-11.0,-4.0,-25.0,0.0
17.0,0.0,14.0,-3.0,-14.0,1.0,6.0,-3.0,5.0,-15.0,0.0
16.0,-2.0,8.0,-24.0,-15.0,11.0,13.0,10.0,18.0,3.0,0.0
16.0,8.0,-24.0,-54.0,-6.0,15.0,22.0,23.0,31.0,26.0,0.0
6.0,-10.0,-49.0,-57.0,0.0,23.0,18.0,23.0,20.0,18.0,0.0
-7.0,-7.0,-40.0,-22.0,-4.0,23.0,0.0,21.0,12.0,4.0,0.0
13.0,26.0,-25.0,-2.0,-9.0,15.0,-6.0,5.0,3.0,-3.0,0.0
25.0,36.0,-10.0,0.0,-3.0,16.0,-10.0,-4.0,-2.0,-11.0,0.0
-3.0,15.0,1.0,-13.0,15.0,4.0,-6.0,3.0,1.0,-22.0,0.0
-5.0,4.0,8.0,-17.0,14.0,3.0,3.0,5.0,-3.0,-29.0,0.0
8.0,17.0,7.0,-2.0,24.0,10.0,5.0,0.0,-21.0,-26.0,0.0
-6.0,0.0,-8.0,5.0,25.0,20.0,13.0,9.0,-11.0,-14.0,0.0
-23.0,-13.0,-20.0,-5.0,14.0,23.0,25.0,10.0,4.0,-20.0,0.0
-26.0,-8.0,-14.0,-4.0,4.0,24.0,19.0,-4.0,10.0,-9.0,0.0
-14.0,0.0,4.0,3.0,12.0,24.0,17.0,-2.0,5.0,0.0,0.0
3.0,10.0,6.0,33.0,11.0,14.0,1.0,-8.0,-7.0,5.0,0.0
4.0,7.0,19.0,36.0,-2.0,-5.0,-2.0,-9.0,-11.0,-6.0,0.0
7.0,-4.0,10.0,33.0,-11.0,-13.0,-12.0,2.0,-4.0,-8.0,0.0
1.0,-1.0,5.0,28.0,-7.0,-10.0,-8.0,2.0,4.0,-5.0,0.0
-2.0,12.0,8.0,19.0,-5.0,-11.0,-6.0,-2.0,10.0,-6.0,0.0
-2.0,3.0,19.0,9.0,-6.0,-7.0,-4.0,5.0,12.0,-7.0,0.0
1.0,4.0,25.0,4.0,-6.0,0.0,0.0,9.0,11.0,-7.0,0.0
-3.0,0.0,9.0,5.0,0.0,9.0,-11.0,1.0,4.0,-7.0,0.0
-11.0,0.0,-4.0,-2.0,-2.0,-5.0,-15.0,2.0,-6.0,-13.0,0.0
-17.0,-8.0,-2.0,1.0,0.0,-16.0,-13.0,-2.0,-14.0,-6.0,0.0
-15.0,2.0,9.0,8.0,-1.0,-8.0,-9.0,-10.0,-10.0,5.0,0.0
-19.0,10.0,15.0,6.0,-1.0,3.0,4.0,-8.0,-9.0,-2.0,0.0
-16.0,9.0,17.0,4.0,-7.0,2.0,3.0,-8.0,-6.0,-8.0,0.0
-12.0,14.0,10.0,2.0,2.0,0.0,0.0,-5.0,-4.0,-1.0,0.0
-11.0,6.0,-2.0,0.0,17.0,-3.0,-1.0,-6.0,6.0,1.0,0.0
-17.0,-8.0,-14.0,-13.0,11.0,-3.0,10.0,0.0,19.0,18.0,0.0
-16.0,-10.0,-16.0,-30.0,15.0,2.0,13.0,7.0,23.0,44.0,0.0
-7.0,-7.0,-6.0,-27.0,21.0,4.0,8.0,20.0,17.0,44.0,0.0
-9.0,-15.0,-8.0,-22.0,14.0,0.0,3.0,15.0,10.0,22.0,0.0
-21.0,-33.0,-16.0,-22.0,5.0,3.0,6.0,15.0,0.0,15.0,0.0
-23.0,-30.0,-22.0,-5.0,9.0,4.0,-1.0,10.0,-2.0,17.0,0.0
-15.0,-15.0,-21.0,5.0,13.0,0.0,1.0,9.0,7.0,18.0,0.0
-6.0,-3.0,-15.0,16.0,20.0,16.0,2.0,10.0,2.0,14.0,0.0
13.0,13.0,0.0,18.0,20.0,23.0,-4.0,4.0,11.0,24.0,0.0
20.0,18.0,1.0,14.0,17.0,29.0,-1.0,-2.0,13.0,23.0,0.0
20.0,20.0,12.0,16.0,27.0,30.0,-2.0,10.0,20.0,19.0,0.0
20.0,10.0,25.0,18.0,31.0,26.0,-2.0,17.0,16.0,11.0,0.0
14.0,17.0,40.0,10.0,25.0,22.0,10.0,30.0,9.0,0.0,0.0
15.0,34.0,58.0,20.0,23.0,14.0,11.0,25.0,11.0,0.0,0.0
10.0,28.0,78.0,24.0,24.0,2.0,7.0,31.0,6.0,-1.0,0.0
5.0,13.0,98.0,9.0,17.0,-9.0,14.0,31.0,0.0,11.0,0.0
2.0,9.0,104.0,0.0,6.0,-13.0,5.0,20.0,-1.0,22.0,0.0
-9.0,9.0,58.0,25.0,3.0,-15.0,0.0,13.0,-6.0,8.0,0.0
-22.0,-9.0,3.0,52.0,6.0,-14.0,-3.0,6.0,-9.0,-14.0,0.0
-19.0,-15.0,3.0,55.0,13.0,-16.0,-8.0,-3.0,-4.0,-18.0,0.0
0.0,-9.0,-24.0,32.0,12.0,-15.0,5.0,-5.0,12.0,0.0,0.0
12.0,3.0,-96.0,-44.0,-8.0,-17.0,9.0,7.0,19.0,15.0,0.0
8.0,-15.0,-143.0,-106.0,-31.0,-16.0,7.0,10.0,11.0,-1.0,0.0
17.0,-12.0,-119.0,-79.0,-31.0,-18.0,6.0,12.0,14.0,2.0,0.0
22.0,-13.0,-70.0,-30.0,-29.0,-12.0,4.0,9.0,9.0,8.0,0.0
16.0,-8.0,-43.0,-20.0,-23.0,-6.0,-4.0,5.0,1.0,-7.0,0.0
12.0,-19.0,-38.0,-13.0,-21.0,-5.0,-4.0,9.0,0.0,-21.0,0.0
-1.0,-30.0,-42.0,-9.0,-10.0,2.0,8.0,20.0,-2.0,-34.0,0.0
7.0,-6.0,-37.0,15.0,-12.0,1.0,10.0,29.0,-4.0,-38.0,0.0
28.0,31.0,-25.0,29.0,-17.0,-9.0,2.0,25.0,-2.0,-33.0,0.0
34.0,34.0,-32.0,14.0,-13.0,-10.0,-18.0,23.0,-3.0,-18.0,0.0
27.0,29.0,-40.0,17.0,-10.0,-1.0,-9.0,24.0,5.0,-13.0,0.0
13.0,10.0,-38.0,21.0,-11.0,8.0,-1.0,16.0,7.0,-17.0,0.0
7.0,3.0,-24.0,21.0,-4.0,14.0,-2.0,15.0,4.0,-14.0,0.0
12.0,10.0,-15.0,7.0,-3.0,15.0,0.0,13.0,4.0,-12.0,0.0
9.0,14.0,-12.0,11.0,-8.0,9.0,0.0,12.0,1.0,-8.0,0.0
10.0,20.0,-5.0,16.0,-13.0,0.0,-1.0,-1.0,-11.0,-7.0,0.0
20.0,41.0,13.0,17.0,-15.0,-13.0,-3.0,-2.0,-18.0,-11.0,0.0
26.0,52.0,27.0,21.0,-9.0,-12.0,-1.0,-1.0,-17.0,-9.0,0.0
23.0,46.0,28.0,21.0,1.0,-1.0,3.0,-3.0,-4.0,-7.0,0.0
14.0,41.0,9.0,13.0,1.0,0.0,0.0,3.0,5.0,-7.0,0.0
3.0,28.0,4.0,3.0,0.0,5.0,-7.0,7.0,13.0,0.0,0.0
5.0,16.0,16.0,-5.0,3.0,15.0,-11.0,3.0,6.0,5.0,0.0
-2.0,7.0,20.0,9.0,5.0,11.0,-3.0,1.0,0.0,2.0,0.0
0.0,10.0,14.0,31.0,14.0,0.0,-1.0,6.0,3.0,6.0,0.0
6.0,8.0,9.0,44.0,18.0,0.0,-16.0,-2.0,0.0,9.0,0.0
1.0,-1.0,9.0,46.0,6.0,5.0,-21.0,-7.0,0.0,4.0,0.0
3.0,-5.0,14.0,27.0,-3.0,5.0,-13.0,-11.0,-2.0,-3.0,0.0
12.0,3.0,15.0,17.0,7.0,4.0,-13.0,-6.0,-2.0,-2.0,0.0
6.0,5.0,-5.0,19.0,10.0,3.0,-9.0,0.0,-10.0,12.0,0.0
-1.0,1.0,-10.0,27.0,7.0,-2.0,-5.0,-6.0,-27.0,8.0,0.0
0.0,-15.0,0.0,19.0,9.0,6.0,4.0,-6.0,-18.0,3.0,0.0
6.0,-4.0,11.0,22.0,2.0,12.0,8.0,2.0,-9.0,3.0,0.0
10.0,-2.0,19.0,31.0,-3.0,19.0,25.0,2.0,-5.0,2.0,0.0
4.0,3.0,8.0,27.0,11.0,20.0,38.0,6.0,8.0,6.0,0.0
2.0,9.0,9.0,14.0,4.0,12.0,29.0,13.0,10.0,16.0,0.0
3.0,2.0,0.0,16.0,1.0,1.0,19.0,12.0,9.0,18.0,0.0
6.0,0.0,-1.0,26.0,9.0,4.0,19.0,0.0,3.0,9.0,0.0
15.0,11.0,8.0,36.0,2.0,3.0,3.0,-11.0,-8.0,2.0,0.0
17.0,10.0,10.0,39.0,-10.0,-4.0,-6.0,-16.0,-11.0,-1.0,0.0
8.0,8.0,13.0,37.0,-11.0,-14.0,-8.0,-7.0,-17.0,-2.0,0.0
15.0,14.0,2.0,23.0,-14.0,-14.0,-10.0,-11.0,-8.0,0.0,0.0
14.0,18.0,-1.0,7.0,-18.0,-20.0,-20.0,-22.0,-4.0,-1.0,0.0
15.0,10.0,-12.0,-1.0,-17.0,-10.0,-11.0,-14.0,3.0,-7.0,0.0
30.0,30.0,-8.0,0.0,-9.0,-9.0,-21.0,-3.0,10.0,7.0,0.0
41.0,32.0,-3.0,-5.0,-7.0,-6.0,-26.0,-3.0,5.0,7.0,0.0
28.0,21.0,-7.0,0.0,0.0,-2.0,-20.0,-7.0,6.0,6.0,0.0
18.0,16.0,-19.0,8.0,3.0,-9.0,-19.0,-16.0,-1.0,-4.0,0.0
2.0,19.0,-20.0,8.0,1.0,-11.0,-17.0,-13.0,-5.0,-2.0,0.0
6.0,8.0,-8.0,2.0,2.0,-1.0,-13.0,-9.0,6.0,9.0,0.0
4.0,3.0,2.0,5.0,8.0,8.0,-5.0,-7.0,12.0,11.0,0.0
-7.0,-8.0,3.0,6.0,10.0,17.0,13.0,7.0,20.0,6.0,0.0
-10.0,-36.0,6.0,10.0,13.0,29.0,18.0,10.0,17.0,1.0,0.0
-4.0,-31.0,9.0,1.0,2.0,23.0,28.0,27.0,21.0,5.0,0.0
47.0,6.0,6.0,-16.0,-10.0,25.0,35.0,28.0,31.0,17.0,0.0
85.0,39.0,-18.0,-34.0,-10.0,37.0,28.0,22.0,20.0,20.0,0.0
58.0,23.0,-42.0,-51.0,-3.0,37.0,15.0,0.0,12.0,16.0,0.0
25.0,0.0,-33.0,-53.0,1.0,24.0,20.0,-8.0,6.0,-1.0,0.0
6.0,-12.0,-20.0,-17.0,18.0,21.0,3.0,-8.0,5.0,9.0,0.0
-2.0,-10.0,-10.0,-1.0,17.0,15.0,-10.0,-15.0,-6.0,1.0,0.0
-6.0,-3.0,-8.0,-2.0,13.0,12.0,-8.0,-14.0,-12.0,-10.0,0.0
1.0,0.0,7.0,-6.0,8.0,16.0,-2.0,-17.0,-8.0,-4.0,0.0
-4.0,-2.0,10.0,-4.0,-1.0,15.0,1.0,-17.0,-14.0,5.0,0.0
-10.0,-10.0,5.0,-20.0,0.0,15.0,1.0,-12.0,-6.0,2.0,0.0
-18.0,-12.0,6.0,-18.0,13.0,24.0,11.0,8.0,4.0,12.0,0.0
-20.0,-28.0,-6.0,-21.0,6.0,30.0,32.0,16.0,3.0,21.0,0.0
-13.0,-30.0,-31.0,-34.0,-4.0,22.0,30.0,17.0,-4.0,7.0,0.0
8.0,0.0,-29.0,-29.0,-12.0,5.0,16.0,15.0,-6.0,0.0,0.0
15.0,24.0,-10.0,-29.0,-30.0,-8.0,9.0,14.0,-9.0,-7.0,0.0
4.0,27.0,0.0,-27.0,-30.0,-5.0,0.0,24.0,1.0,0.0,0.0
-6.0,8.0,20.0,-13.0,-19.0,6.0,8.0,19.0,2.0,-7.0,0.0
-12.0,-1.0,40.0,-2.0,-17.0,8.0,13.0,14.0,9.0,-16.0,0.0
-6.0,2.0,48.0,-2.0,-12.0,6.0,6.0,5.0,-4.0,-16.0,0.0
-19.0,16.0,61.0,21.0,9.0,12.0,-5.0,-5.0,-14.0,-28.0,0.0
-24.0,6.0,32.0,20.0,7.0,12.0,-3.0,3.0,-6.0,-39.0,0.0
-31.0,-11.0,4.0,-1.0,11.0,-2.0,-12.0,-1.0,-28.0,-62.0,0.0
-28.0,-23.0,-15.0,-19.0,11.0,-37.0,-47.0,-3.0,-90.0,-78.0,0.0
-13.0,6.0,-27.0,-10.0,9.0,-13.0,-7.0,6.0,-24.0,-43.0,0.0
0.0,8.0,-42.0,-20.0,-4.0,-11.0,6.0,14.0,5.0,-27.0,0.0
-6.0,7.0,-46.0,-29.0,-12.0,-9.0,0.0,14.0,6.0,-17.0,0.0
-11.0,7.0,-43.0,-31.0,-25.0,-7.0,-4.0,8.0,10.0,-6.0,0.0
-10.0,0.0,-39.0,-34.0,-22.0,-7.0,-8.0,0.0,10.0,9.0,0.0
1.0,3.0,-15.0,-11.0,-8.0,8.0,-8.0,-4.0,25.0,34.0,0.0
13.0,6.0,0.0,5.0,0.0,15.0,-8.0,-5.0,39.0,40.0,0.0
6.0,7.0,6.0,-4.0,-2.0,7.0,-10.0,-8.0,40.0,32.0,0.0
-14.0,16.0,0.0,2.0,-10.0,-8.0,-14.0,-22.0,38.0,23.0,0.0
-26.0,-1.0,5.0,15.0,-7.0,-3.0,-14.0,-22.0,38.0,7.0,0.0
-19.0,-7.0,4.0,34.0,-7.0,0.0,-14.0,-36.0,24.0,-8.0,0.0
8.0,28.0,29.0,52.0,-8.0,-15.0,-12.0,-49.0,9.0,-9.0,0.0
19.0,38.0,72.0,67.0,12.0,-14.0,-15.0,-47.0,-8.0,-6.0,0.0
4.0,26.0,81.0,78.0,23.0,-11.0,-18.0,-50.0,-13.0,-5.0,0.0
-1.0,24.0,91.0,84.0,21.0,-13.0,-20.0,-46.0,-8.0,6.0,0.0
3.0,23.0,92.0,82.0,16.0,-10.0,-10.0,-39.0,-2.0,3.0,0.0
-5.0,2.0,64.0,60.0,21.0,-6.0,12.0,-19.0,20.0,-1.0,0.0
-15.0,-12.0,-18.0,-5.0,15.0,5.0,28.0,19.0,40.0,12.0,0.0
-9.0,-21.0,-94.0,-86.0,-1.0,0.0,31.0,25.0,34.0,22.0,0.0
-3.0,-26.0,-99.0,-113.0,-9.0,-7.0,22.0,23.0,45.0,27.0,0.0
17.0,-13.0,-57.0,-88.0,-9.0,0.0,11.0,16.0,44.0,33.0,0.0
30.0,-1.0,-44.0,-56.0,-14.0,3.0,16.0,16.0,33.0,34.0,0.0
29.0,0.0,-44.0,-46.0,-6.0,5.0,11.0,5.0,16.0,21.0,0.0
18.0,8.0,-30.0,-33.0,0.0,8.0,16.0,0.0,13.0,18.0,0.0
4.0,6.0,-19.0,-19.0,-6.0,-1.0,13.0,0.0,6.0,20.0,0.0
-2.0,6.0,-7.0,-14.0,-6.0,0.0,8.0,0.0,-3.0,15.0,0.0
0.0,11.0,-1.0,-17.0,-5.0,4.0,-2.0,7.0,-7.0,7.0,0.0
1.0,7.0,14.0,-11.0,-7.0,5.0,-5.0,13.0,4.0,12.0,0.0
-8.0,-3.0,22.0,-10.0,2.0,7.0,-8.0,7.0,13.0,8.0,0.0
-18.0,-7.0,17.0,-17.0,12.0,7.0,-9.0,1.0,6.0,12.0,0.0
-20.0,-8.0,20.0,-14.0,17.0,9.0,-1.0,-5.0,8.0,0.0,0.0
-24.0,-11.0,21.0,-13.0,6.0,2.0,1.0,0.0,15.0,1.0,0.0
-23.0,-10.0,28.0,-7.0,2.0,0.0,-6.0,1.0,19.0,3.0,0.0
-12.0,-23.0,16.0,-12.0,1.0,0.0,-19.0,3.0,20.0,15.0,0.0
-25.0,-22.0,12.0,-20.0,-6.0,-5.0,-25.0,5.0,16.0,10.0,0.0
-19.0,-2.0,7.0,-34.0,-9.0,-6.0,-26.0,-14.0,-7.0,-5.0,0.0
18.0,16.0,18.0,-31.0,-19.0,-21.0,-28.0,-26.0,-21.0,1.0,0.0
49.0,25.0,43.0,-38.0,-18.0,-40.0,-28.0,-31.0,-19.0,2.0,0.0
57.0,52.0,52.0,-40.0,-21.0,-49.0,-37.0,-24.0,-15.0,-6.0,0.0
51.0,68.0,39.0,-19.0,-16.0,-44.0,-39.0,-20.0,-25.0,-4.0,0.0
22.0,48.0,37.0,-11.0,-6.0,-29.0,-30.0,-7.0,-23.0,-4.0,0.0
2.0,12.0,16.0,-10.0,2.0,-17.0,-27.0,0.0,-17.0,-22.0,0.0
-6.0,-8.0,-9.0,-1.0,4.0,-6.0,-23.0,6.0,-13.0,-33.0,0.0
-8.0,-10.0,-19.0,-1.0,0.0,-10.0,-12.0,10.0,-6.0,-28.0,0.0
-6.0,-8.0,-33.0,-10.0,0.0,-9.0,-5.0,18.0,9.0,-14.0,0.0
-1.0,-10.0,-29.0,1.0,-13.0,0.0,-14.0,14.0,20.0,-5.0,0.0
-8.0,-18.0,-20.0,20.0,-16.0,0.0,-25.0,9.0,5.0,-12.0,0.0
-13.0,-23.0,-19.0,18.0,1.0,-16.0,-24.0,0.0,-6.0,-23.0,0.0
-16.0,-23.0,-12.0,12.0,4.0,-6.0,-21.0,0.0,-12.0,-19.0,0.0
0.0,-8.0,9.0,14.0,3.0,0.0,-12.0,3.0,-5.0,-20.0,0.0
17.0,14.0,24.0,12.0,-9.0,-6.0,-6.0,4.0,7.0,-17.0,0.0
15.0,16.0,28.0,6.0,-15.0,-3.0,-10.0,-3.0,10.0,-14.0,0.0
7.0,-7.0,12.0,0.0,-6.0,0.0,-11.0,5.0,4.0,-9.0,0.0
13.0,-3.0,-14.0,-13.0,12.0,14.0,-2.0,25.0,4.0,1.0,0.0
10.0,3.0,-47.0,-38.0,16.0,34.0,16.0,41.0,32.0,24.0,0.0
0.0,-24.0,-74.0,-50.0,10.0,35.0,16.0,46.0,29.0,26.0,0.0
-11.0,-37.0,-67.0,-37.0,18.0,22.0,0.0,39.0,22.0,0.0,0.0
-5.0,-37.0,-64.0,-30.0,8.0,13.0,-7.0,22.0,6.0,-4.0,0.0
16.0,-14.0,-47.0,-20.0,0.0,2.0,-11.0,11.0,-2.0,-11.0,0.0
24.0,-1.0,-27.0,-9.0,3.0,1.0,-9.0,14.0,2.0,-14.0,0.0
16.0,-13.0,-18.0,-18.0,1.0,2.0,-10.0,7.0,6.0,-11.0,0.0
-5.0,-29.0,-7.0,-25.0,-1.0,-4.0,-13.0,13.0,9.0,-10.0,0.0
-10.0,-18.0,21.0,-22.0,-1.0,0.0,-15.0,16.0,26.0,-14.0,0.0
-17.0,-20.0,23.0,-23.0,6.0,6.0,-12.0,14.0,16.0,-15.0,0.0
-20.0,-12.0,35.0,-28.0,-1.0,15.0,0.0,20.0,5.0,-15.0,0.0
-10.0,-8.0,41.0,-32.0,0.0,18.0,0.0,22.0,5.0,-8.0,0.0
-9.0,-16.0,29.0,-37.0,14.0,20.0,0.0,17.0,-2.0,-3.0,0.0
-13.0,-29.0,18.0,-47.0,5.0,12.0,2.0,18.0,10.0,-7.0,0.0
-3.0,-35.0,0.0,-35.0,-12.0,13.0,6.0,17.0,19.0,-1.0,0.0
4.0,-13.0,-15.0,-18.0,-19.0,10.0,-4.0,13.0,11.0,0.0,0.0
2.0,1.0,-23.0,-17.0,-7.0,14.0,7.0,14.0,13.0,0.0,0.0
4.0,-1.0,-18.0,-16.0,-9.0,16.0,21.0,7.0,18.0,5.0,0.0
14.0,-1.0,-2.0,-20.0,-17.0,21.0,17.0,6.0,19.0,17.0,0.0
5.0,-4.0,6.0,-12.0,-25.0,16.0,6.0,13.0,6.0,3.0,0.0
5.0,3.0,-4.0,13.0,-19.0,8.0,-5.0,17.0,6.0,0.0,0.0
6.0,6.0,-8.0,22.0,-5.0,5.0,-8.0,13.0,2.0,4.0,0.0
2.0,1.0,-6.0,18.0,4.0,14.0,-3.0,17.0,0.0,5.0,0.0
-3.0,-6.0,3.0,13.0,3.0,12.0,-7.0,21.0,-2.0,8.0,0.0
0.0,-4.0,14.0,13.0,0.0,12.0,-14.0,15.0,-8.0,3.0,0.0
12.0,-5.0,17.0,11.0,10.0,5.0,-17.0,11.0,-22.0,8.0,0.0
0.0,-8.0,17.0,14.0,17.0,4.0,-14.0,10.0,-16.0,16.0,0.0
-3.0,-2.0,29.0,19.0,14.0,1.0,-23.0,6.0,-14.0,14.0,0.0
14.0,9.0,41.0,9.0,13.0,-6.0,-25.0,8.0,-6.0,11.0,0.0
32.0,16.0,52.0,9.0,3.0,-3.0,-21.0,9.0,1.0,28.0,0.0
40.0,13.0,40.0,4.0,-8.0,-1.0,-7.0,0.0,7.0,28.0,0.0
29.0,1.0,35.0,2.0,-11.0,9.0,6.0,0.0,11.0,23.0,0.0
-5.0,-20.0,3.0,-3.0,-16.0,9.0,9.0,8.0,5.0,28.0,0.0
-31.0,-49.0,-53.0,-2.0,-25.0,4.0,0.0,11.0,-1.0,25.0,0.0
-30.0,-46.0,-41.0,-6.0,-24.0,6.0,8.0,14.0,0.0,31.0,0.0
-33.0,-44.0,-35.0,-17.0,-17.0,15.0,8.0,19.0,-6.0,25.0,0.0
-15.0,-43.0,-9.0,-28.0,-12.0,7.0,0.0,18.0,-13.0,16.0,0.0
40.0,-6.0,21.0,-19.0,-4.0,11.0,4.0,0.0,-21.0,6.0,0.0
55.0,21.0,36.0,17.0,-3.0,5.0,2.0,0.0,-26.0,-15.0,0.0
27.0,18.0,62.0,48.0,4.0,1.0,10.0,10.0,-25.0,-22.0,0.0
9.0,1.0,51.0,50.0,11.0,0.0,15.0,18.0,-9.0,-19.0,0.0
7.0,1.0,32.0,44.0,9.0,0.0,18.0,9.0,1.0,-15.0,0.0
8.0,1.0,27.0,42.0,8.0,3.0,14.0,-2.0,-8.0,-8.0,0.0
1.0,0.0,27.0,35.0,3.0,-1.0,13.0,-5.0,-9.0,-15.0,0.0
8.0,-7.0,21.0,33.0,-10.0,-10.0,12.0,-2.0,-13.0,-12.0,0.0
18.0,2.0,17.0,21.0,-20.0,-12.0,2.0,-6.0,-13.0,0.0,0.0
22.0,6.0,-10.0,3.0,-23.0,-15.0,5.0,0.0,-13.0,9.0,0.0
5.0,-17.0,-41.0,-29.0,-26.0,-18.0,6.0,1.0,-12.0,4.0,0.0
-6.0,-33.0,-32.0,-55.0,-18.0,-15.0,3.0,14.0,-17.0,-3.0,0.0
-5.0,-16.0,3.0,-48.0,-9.0,-16.0,7.0,18.0,-8.0,-6.0,0.0
-10.0,-1.0,23.0,-28.0,0.0,-19.0,14.0,4.0,-8.0,-12.0,0.0
-15.0,-6.0,29.0,-6.0,-1.0,-12.0,15.0,-7.0,2.0,-12.0,0.0
-7.0,-17.0,32.0,20.0,3.0,-2.0,0.0,-12.0,-4.0,10.0,0.0
-8.0,-20.0,14.0,44.0,8.0,4.0,1.0,0.0,-7.0,35.0,0.0
-15.0,-25.0,-10.0,22.0,16.0,6.0,12.0,2.0,-8.0,22.0,0.0
-17.0,-16.0,-28.0,-27.0,0.0,5.0,8.0,-6.0,-6.0,3.0,0.0
-7.0,0.0,-51.0,-50.0,-13.0,-8.0,-4.0,-20.0,-17.0,-12.0,0.0
9.0,18.0,-59.0,-58.0,-21.0,-17.0,-10.0,-29.0,-23.0,-16.0,0.0
8.0,23.0,-50.0,-57.0,-24.0,-20.0,-5.0,-32.0,-21.0,-25.0,0.0
4.0,10.0,-18.0,-44.0,-19.0,-14.0,1.0,-18.0,-14.0,-27.0,0.0
10.0,8.0,-5.0,-32.0,-16.0,-6.0,6.0,-5.0,-1.0,-5.0,0.0
22.0,19.0,0.0,-19.0,-12.0,-8.0,12.0,8.0,17.0,-2.0,0.0
20.0,12.0,-11.0,-11.0,-5.0,-3.0,25.0,7.0,15.0,1.0,0.0
12.0,2.0,-21.0,-8.0,1.0,-5.0,19.0,8.0,5.0,0.0,0.0
23.0,6.0,-18.0,-6.0,-2.0,-8.0,17.0,-2.0,6.0,-8.0,0.0
23.0,17.0,-10.0,-2.0,-3.0,-5.0,3.0,-14.0,19.0,-19.0,0.0
17.0,20.0,-7.0,-3.0,-2.0,-6.0,-9.0,-15.0,10.0,-8.0,0.0
7.0,10.0,-2.0,-14.0,-11.0,0.0,-2.0,-15.0,-10.0,-4.0,0.0
-1.0,-3.0,0.0,-20.0,-2.0,13.0,7.0,-10.0,-12.0,-19.0,0.0
-10.0,1.0,-1.0,-10.0,5.0,8.0,0.0,-6.0,-1.0,-23.0,0.0
0.0,5.0,13.0,-4.0,10.0,-2.0,-8.0,-4.0,2.0,-14.0,0.0
2.0,3.0,7.0,-9.0,18.0,-8.0,-8.0,-9.0,14.0,-7.0,0.0
4.0,10.0,13.0,2.0,17.0,-2.0,-12.0,-14.0,14.0,-4.0,0.0
-1.0,28.0,14.0,-6.0,16.0,-6.0,-18.0,-12.0,-5.0,-10.0,0.0
-5.0,23.0,34.0,0.0,8.0,-18.0,-22.0,-11.0,-8.0,-14.0,0.0
-14.0,20.0,47.0,13.0,1.0,-24.0,-35.0,-5.0,-7.0,-15.0,0.0
-16.0,22.0,48.0,23.0,-1.0,-25.0,-40.0,-11.0,2.0,-18.0,0.0
-5.0,15.0,37.0,32.0,-7.0,-39.0,-31.0,-15.0,11.0,-7.0,0.0
1.0,8.0,12.0,29.0,-3.0,-38.0,-28.0,-10.0,7.0,14.0,0.0
13.0,20.0,2.0,20.0,-8.0,-38.0,-30.0,-4.0,-4.0,24.0,0.0
30.0,27.0,-16.0,15.0,-22.0,-34.0,-33.0,-5.0,-7.0,29.0,0.0
34.0,28.0,-18.0,18.0,-17.0,-22.0,-23.0,6.0,-13.0,23.0,0.0
12.0,17.0,-2.0,19.0,4.0,-11.0,0.0,7.0,-13.0,20.0,0.0
-5.0,8.0,-3.0,15.0,12.0,-4.0,20.0,-8.0,2.0,14.0,0.0
-15.0,6.0,-27.0,15.0,12.0,-5.0,25.0,2.0,25.0,12.0,0.0
-29.0,0.0,-35.0,14.0,19.0,10.0,28.0,25.0,22.0,8.0,0.0
-33.0,-2.0,-30.0,15.0,25.0,16.0,18.0,27.0,30.0,-4.0,0.0
-27.0,-15.0,-7.0,18.0,15.0,10.0,0.0,23.0,25.0,-5.0,0.0
-18.0,-22.0,1.0,27.0,14.0,12.0,-2.0,26.0,27.0,1.0,0.0
-15.0,-10.0,-2.0,31.0,17.0,13.0,-9.0,28.0,17.0,7.0,0.0
-19.0,-14.0,-5.0,26.0,7.0,13.0,-11.0,23.0,18.0,7.0,0.0
-26.0,-18.0,-14.0,12.0,4.0,1.0,-5.0,25.0,17.0,-1.0,0.0
-33.0,-18.0,-30.0,0.0,-4.0,-9.0,0.0,18.0,6.0,-15.0,0.0
-11.0,0.0,-38.0,-4.0,-14.0,-18.0,0.0,17.0,4.0,-18.0,0.0
20.0,20.0,-31.0,2.0,-9.0,-22.0,-12.0,5.0,-8.0,-16.0,0.0
25.0,16.0,-30.0,6.0,3.0,-9.0,-7.0,-12.0,-13.0,-16.0,0.0
14.0,19.0,-30.0,-15.0,5.0,11.0,0.0,-19.0,-14.0,-26.0,0.0
-3.0,25.0,-34.0,-33.0,-2.0,9.0,-3.0,-16.0,-12.0,-30.0,0.0
3.0,15.0,-35.0,-35.0,-7.0,11.0,-7.0,1.0,6.0,-21.0,0.0
3.0,7.0,-32.0,-27.0,-10.0,11.0,-3.0,9.0,10.0,-20.0,0.0
-11.0,-6.0,-30.0,-27.0,-5.0,-1.0,0.0,-7.0,12.0,-17.0,0.0
-29.0,-21.0,-49.0,-31.0,-7.0,-5.0,1.0,-11.0,16.0,-22.0,0.0
-26.0,-20.0,-59.0,-22.0,-11.0,-13.0,5.0,-19.0,-4.0,-24.0,0.0
-24.0,-30.0,-29.0,-18.0,-8.0,-16.0,10.0,-12.0,7.0,-22.0,0.0
-20.0,-36.0,-4.0,-20.0,-3.0,-6.0,20.0,4.0,18.0,-15.0,0.0
-3.0,-16.0,21.0,-3.0,1.0,-4.0,14.0,18.0,14.0,-14.0,0.0
19.0,2.0,44.0,10.0,4.0,3.0,16.0,18.0,20.0,-13.0,0.0
20.0,2.0,43.0,16.0,9.0,8.0,23.0,15.0,26.0,1.0,0.0
30.0,9.0,40.0,13.0,3.0,7.0,20.0,16.0,32.0,15.0,0.0
41.0,16.0,6.0,-20.0,-13.0,-2.0,17.0,12.0,34.0,33.0,0.0
31.0,5.0,-16.0,-42.0,-14.0,-5.0,0.0,9.0,20.0,37.0,0.0
13.0,-4.0,-17.0,-35.0,-8.0,4.0,-15.0,10.0,18.0,32.0,0.0
-16.0,-19.0,-6.0,-22.0,-1.0,15.0,-9.0,2.0,17.0,19.0,0.0
-34.0,-28.0,-13.0,8.0,6.0,10.0,9.0,-1.0,14.0,0.0,0.0
-32.0,-26.0,-22.0,43.0,3.0,4.0,9.0,-15.0,0.0,-4.0,0.0
-23.0,-15.0,-23.0,35.0,3.0,-7.0,11.0,-24.0,-4.0,2.0,0.0
-23.0,-8.0,-9.0,28.0,2.0,-8.0,4.0,-10.0,-6.0,12.0,0.0
-26.0,0.0,0.0,25.0,6.0,0.0,6.0,1.0,4.0,16.0,0.0
-19.0,1.0,3.0,24.0,3.0,6.0,12.0,0.0,21.0,19.0,0.0
-18.0,0.0,-11.0,26.0,2.0,0.0,6.0,0.0,26.0,15.0,0.0
-20.0,1.0,-1.0,12.0,6.0,-2.0,1.0,0.0,8.0,16.0,0.0
-21.0,15.0,9.0,15.0,7.0,-6.0,-3.0,0.0,7.0,11.0,0.0
-26.0,15.0,10.0,16.0,9.0,-20.0,-12.0,-14.0,0.0,5.0,0.0
-25.0,3.0,-1.0,17.0,11.0,-18.0,-17.0,-20.0,5.0,8.0,0.0
-21.0,0.0,-4.0,12.0,17.0,-19.0,-24.0,-12.0,0.0,9.0,0.0
-25.0,-11.0,7.0,9.0,16.0,-10.0,-27.0,-1.0,5.0,18.0,0.0
-18.0,-2.0,28.0,14.0,22.0,1.0,-23.0,0.0,3.0,13.0,0.0
-7.0,-1.0,33.0,18.0,20.0,10.0,-11.0,-7.0,13.0,2.0,0.0
-10.0,14.0,36.0,26.0,18.0,8.0,-2.0,1.0,17.0,0.0,0.0
-19.0,9.0,43.0,27.0,25.0,14.0,4.0,8.0,24.0,-13.0,0.0
-33.0,6.0,44.0,24.0,28.0,17.0,23.0,22.0,28.0,-9.0,0.0
-42.0,1.0,40.0,19.0,22.0,16.0,32.0,15.0,21.0,-11.0,0.0
-47.0,2.0,41.0,20.0,16.0,10.0,28.0,4.0,16.0,-10.0,0.0
-32.0,4.0,8.0,38.0,12.0,11.0,21.0,15.0,9.0,-5.0,0.0
-14.0,-12.0,-31.0,32.0,17.0,14.0,15.0,8.0,2.0,-1.0,0.0
-9.0,-24.0,-46.0,-8.0,12.0,-4.0,6.0,-10.0,0.0,4.0,0.0
-3.0,-22.0,-32.0,-22.0,3.0,-12.0,14.0,-17.0,4.0,11.0,0.0
0.0,1.0,-19.0,-1.0,1.0,-8.0,13.0,-19.0,0.0,20.0,0.0
4.0,4.0,-20.0,5.0,1.0,-11.0,-4.0,-16.0,-4.0,15.0,0.0
4.0,-1.0,-20.0,7.0,3.0,-22.0,-11.0,-21.0,-15.0,1.0,0.0
6.0,3.0,-27.0,3.0,-1.0,-21.0,-3.0,-16.0,-11.0,11.0,0.0
10.0,-6.0,-36.0,-3.0,-9.0,-11.0,0.0,-11.0,0.0,29.0,0.0
16.0,0.0,-19.0,1.0,-4.0,12.0,8.0,-3.0,-5.0,53.0,0.0
14.0,9.0,1.0,7.0,-5.0,13.0,11.0,6.0,-7.0,38.0,0.0
13.0,7.0,4.0,4.0,-5.0,7.0,12.0,9.0,-15.0,13.0,0.0
13.0,8.0,12.0,2.0,0.0,4.0,11.0,1.0,-16.0,0.0,0.0
2.0,-2.0,9.0,11.0,6.0,3.0,10.0,7.0,-14.0,3.0,0.0
0.0,-1.0,13.0,25.0,-1.0,8.0,20.0,6.0,-7.0,0.0,0.0
-1.0,0.0,8.0,26.0,4.0,12.0,19.0,6.0,-4.0,-2.0,0.0
-4.0,-3.0,-2.0,16.0,18.0,9.0,17.0,13.0,-10.0,5.0,0.0
-4.0,7.0,-2.0,0.0,19.0,15.0,22.0,7.0,-9.0,3.0,0.0
3.0,26.0,13.0,-15.0,16.0,11.0,29.0,1.0,-5.0,3.0,0.0
13.0,42.0,24.0,-2.0,12.0,7.0,22.0,-9.0,-1.0,5.0,0.0
14.0,32.0,30.0,12.0,6.0,0.0,20.0,-3.0,-9.0,18.0,0.0
7.0,16.0,27.0,19.0,14.0,6.0,16.0,0.0,-20.0,25.0,0.0
-7.0,0.0,13.0,16.0,20.0,8.0,19.0,-5.0,-29.0,12.0,0.0
-18.0,-9.0,35.0,30.0,29.0,9.0,16.0,-3.0,-20.0,1.0,0.0
-26.0,-3.0,41.0,35.0,30.0,7.0,14.0,-1.0,-5.0,-7.0,0.0
-33.0,-2.0,25.0,40.0,27.0,11.0,16.0,-2.0,-10.0,-4.0,0.0
0.0,14.0,29.0,37.0,21.0,12.0,12.0,-6.0,-19.0,-1.0,0.0
47.0,21.0,23.0,34.0,22.0,8.0,7.0,-10.0,-25.0,-6.0,0.0
38.0,23.0,1.0,16.0,19.0,12.0,10.0,-2.0,-6.0,-13.0,0.0
22.0,7.0,-17.0,10.0,11.0,17.0,14.0,1.0,2.0,-14.0,0.0
1.0,-4.0,-14.0,9.0,10.0,3.0,21.0,0.0,6.0,-6.0,0.0
-9.0,-2.0,-12.0,16.0,2.0,3.0,18.0,0.0,4.0,-9.0,0.0
-7.0,-6.0,-7.0,14.0,2.0,1.0,13.0,0.0,-12.0,-19.0,0.0
-2.0,0.0,-10.0,4.0,3.0,3.0,0.0,-2.0,-25.0,-20.0,0.0
-9.0,-2.0,-20.0,13.0,12.0,0.0,1.0,-5.0,-28.0,-19.0,0.0
4.0,-5.0,-6.0,26.0,26.0,-8.0,7.0,5.0,-24.0,-17.0,0.0
3.0,2.0,5.0,30.0,26.0,1.0,12.0,6.0,-8.0,-8.0,0.0
0.0,10.0,24.0,32.0,15.0,-1.0,3.0,1.0,0.0,0.0,0.0
3.0,27.0,35.0,22.0,6.0,1.0,13.0,12.0,-1.0,5.0,0.0
17.0,36.0,24.0,-6.0,-6.0,10.0,5.0,18.0,3.0,16.0,0.0
-1.0,20.0,-12.0,-34.0,-8.0,14.0,-6.0,2.0,10.0,11.0,0.0
-26.0,-10.0,-33.0,-41.0,-9.0,11.0,-4.0,-9.0,6.0,2.0,0.0
-14.0,-6.0,-14.0,-35.0,8.0,8.0,11.0,-10.0,24.0,9.0,0.0
26.0,11.0,14.0,-9.0,12.0,13.0,1.0,-5.0,21.0,15.0,0.0
30.0,12.0,10.0,-9.0,17.0,18.0,-2.0,0.0,1.0,9.0,0.0
25.0,8.0,-7.0,-15.0,14.0,9.0,12.0,-4.0,-5.0,7.0,0.0
32.0,25.0,-16.0,-18.0,19.0,-7.0,0.0,-7.0,-7.0,13.0,0.0
27.0,27.0,-13.0,-30.0,21.0,-10.0,-8.0,-16.0,1.0,12.0,0.0
27.0,31.0,0.0,-24.0,10.0,-2.0,-4.0,-10.0,-12.0,9.0,0.0
18.0,29.0,0.0,-22.0,7.0,-4.0,5.0,-4.0,-12.0,2.0,0.0
2.0,17.0,0.0,-25.0,-3.0,1.0,7.0,3.0,-11.0,-1.0,0.0
-1.0,5.0,-15.0,-39.0,-8.0,3.0,5.0,-6.0,-7.0,8.0,0.0
-4.0,-2.0,-23.0,-50.0,-13.0,-4.0,-6.0,-4.0,-12.0,3.0,0.0
0.0,-8.0,-19.0,-47.0,-17.0,-11.0,-7.0,-9.0,-19.0,8.0,0.0
-2.0,-9.0,-25.0,-43.0,-11.0,-16.0,-9.0,-14.0,-23.0,13.0,0.0
-5.0,-17.0,-28.0,-23.0,0.0,-13.0,-13.0,-14.0,-31.0,7.0,0.0
-8.0,-15.0,-15.0,-1.0,0.0,-9.0,-15.0,-21.0,-32.0,1.0,0.0
10.0,3.0,4.0,-2.0,-12.0,6.0,-14.0,-31.0,-26.0,6.0,0.0
25.0,9.0,-4.0,-22.0,-1.0,12.0,-11.0,-39.0,-18.0,11.0,0.0
15.0,11.0,-6.0,-11.0,13.0,27.0,-5.0,-20.0,-12.0,5.0,0.0
-7.0,-3.0,-7.0,-1.0,17.0,38.0,0.0,-8.0,-8.0,-8.0,0.0
-13.0,-15.0,-11.0,-5.0,17.0,40.0,5.0,-4.0,0.0,-9.0,0.0
-17.0,-17.0,-30.0,-10.0,23.0,34.0,6.0,-6.0,25.0,-6.0,0.0
-24.0,-22.0,-32.0,0.0,21.0,22.0,4.0,-5.0,23.0,-3.0,0.0
-30.0,-33.0,-32.0,4.0,18.0,3.0,9.0,-1.0,24.0,-6.0,0.0
-29.0,-42.0,-32.0,2.0,6.0,1.0,10.0,9.0,9.0,-17.0,0.0
-17.0,-34.0,-20.0,7.0,10.0,3.0,-4.0,0.0,4.0,-12.0,0.0
2.0,-30.0,-6.0,13.0,7.0,4.0,-18.0,-2.0,-6.0,-1.0,0.0
-8.0,-43.0,-9.0,16.0,-1.0,5.0,-8.0,-5.0,-13.0,0.0,0.0
0.0,-25.0,0.0,20.0,-1.0,5.0,2.0,-5.0,-12.0,-18.0,0.0
22.0,17.0,14.0,17.0,4.0,-6.0,-10.0,-16.0,-29.0,-21.0,0.0
25.0,37.0,19.0,11.0,0.0,-9.0,-23.0,-16.0,-28.0,-14.0,0.0
21.0,33.0,17.0,13.0,-4.0,-2.0,-22.0,-15.0,-20.0,-17.0,0.0
24.0,18.0,26.0,8.0,0.0,-3.0,-10.0,-13.0,-9.0,-16.0,0.0
21.0,14.0,20.0,0.0,3.0,2.0,-7.0,-4.0,3.0,-16.0,0.0
16.0,14.0,5.0,0.0,5.0,-1.0,-5.0,3.0,16.0,-15.0,0.0
20.0,17.0,12.0,-7.0,0.0,1.0,0.0,2.0,15.0,-14.0,0.0
14.0,22.0,-4.0,-29.0,6.0,1.0,3.0,13.0,10.0,-4.0,0.0
14.0,19.0,-27.0,-48.0,16.0,0.0,-1.0,9.0,16.0,-3.0,0.0
12.0,18.0,-27.0,-44.0,5.0,-2.0,-19.0,0.0,14.0,0.0,0.0
1.0,11.0,-5.0,-27.0,0.0,-3.0,-7.0,1.0,20.0,11.0,0.0
-7.0,1.0,4.0,-30.0,0.0,-2.0,6.0,6.0,23.0,19.0,0.0
-16.0,-8.0,1.0,-15.0,0.0,-3.0,7.0,13.0,15.0,16.0,0.0
-11.0,-21.0,-4.0,11.0,6.0,-7.0,6.0,13.0,12.0,17.0,0.0
0.0,-21.0,-7.0,29.0,8.0,-16.0,0.0,0.0,0.0,17.0,0.0
16.0,-23.0,-22.0,13.0,-6.0,-16.0,-14.0,1.0,-5.0,16.0,0.0
13.0,-26.0,-51.0,-26.0,-15.0,-12.0,-17.0,-1.0,-11.0,8.0,0.0
1.0,-29.0,-77.0,-41.0,-23.0,-12.0,3.0,0.0,0.0,8.0,0.0
12.0,-9.0,-49.0,-37.0,-27.0,-17.0,6.0,5.0,2.0,15.0,0.0
25.0,25.0,-1.0,-41.0,-26.0,-19.0,-11.0,-7.0,-12.0,23.0,0.0
12.0,31.0,1.0,-38.0,-19.0,-20.0,-9.0,-10.0,-18.0,17.0,0.0
0.0,11.0,-7.0,-24.0,-2.0,-5.0,8.0,-1.0,-14.0,2.0,0.0
-6.0,-9.0,-6.0,-21.0,7.0,6.0,6.0,-2.0,-8.0,-7.0,0.0
-19.0,-26.0,-5.0,-31.0,7.0,3.0,1.0,5.0,-3.0,3.0,0.0
-22.0,-17.0,-3.0,-27.0,-2.0,7.0,0.0,10.0,0.0,11.0,0.0
-31.0,-17.0,4.0,-35.0,-3.0,20.0,7.0,15.0,-4.0,14.0,0.0
-47.0,-19.0,5.0,-41.0,-4.0,20.0,17.0,15.0,-8.0,5.0,0.0
-45.0,-18.0,3.0,-38.0,-8.0,14.0,12.0,14.0,-6.0,11.0,0.0
-29.0,-15.0,4.0,-29.0,-8.0,12.0,9.0,15.0,-1.0,14.0,0.0
6.0,2.0,13.0,-21.0,-5.0,6.0,13.0,22.0,-1.0,18.0,0.0
18.0,5.0,26.0,-10.0,3.0,2.0,1.0,16.0,-10.0,9.0,0.0
10.0,5.0,34.0,-19.0,2.0,2.0,5.0,19.0,-18.0,-5.0,0.0
6.0,14.0,45.0,-17.0,1.0,-3.0,6.0,22.0,-23.0,-5.0,0.0
-5.0,25.0,59.0,-8.0,0.0,-14.0,-1.0,20.0,-17.0,3.0,0.0
4.0,18.0,57.0,11.0,0.0,-9.0,-8.0,4.0,-13.0,1.0,0.0
19.0,2.0,49.0,28.0,0.0,-5.0,-7.0,-1.0,-12.0,-1.0,0.0
19.0,7.0,38.0,37.0,-4.0,-11.0,-13.0,-6.0,-21.0,-11.0,0.0
13.0,8.0,41.0,48.0,-8.0,-7.0,-9.0,-10.0,-18.0,-5.0,0.0
4.0,4.0,45.0,57.0,-2.0,7.0,1.0,-7.0,-10.0,-14.0,0.0
-2.0,6.0,45.0,55.0,-2.0,4.0,2.0,-13.0,-13.0,-15.0,0.0
-3.0,-1.0,33.0,33.0,-4.0,-13.0,-5.0,-17.0,-17.0,-12.0,0.0
-3.0,-5.0,34.0,26.0,-5.0,-9.0,-11.0,-19.0,-15.0,-10.0,0.0
-4.0,0.0,30.0,25.0,-3.0,-7.0,-13.0,-20.0,-7.0,0.0,0.0
-14.0,1.0,36.0,24.0,7.0,2.0,-3.0,-5.0,-12.0,17.0,0.0
-13.0,12.0,37.0,34.0,19.0,20.0,5.0,-5.0,-14.0,20.0,0.0
-9.0,19.0,28.0,27.0,24.0,23.0,-1.0,-4.0,-8.0,10.0,0.0
-21.0,13.0,26.0,22.0,22.0,19.0,-8.0,0.0,-1.0,-11.0,0.0
-22.0,9.0,29.0,21.0,17.0,14.0,-2.0,-8.0,2.0,-15.0,0.0
-24.0,13.0,40.0,21.0,20.0,14.0,-1.0,-12.0,10.0,-1.0,0.0
-22.0,6.0,27.0,18.0,24.0,21.0,-5.0,-10.0,11.0,-12.0,0.0
-18.0,-8.0,15.0,12.0,29.0,21.0,-4.0,0.0,15.0,-7.0,0.0
-8.0,-8.0,-10.0,-7.0,18.0,7.0,-13.0,-1.0,17.0,-1.0,0.0
2.0,-6.0,-10.0,-1.0,13.0,-1.0,-9.0,-8.0,6.0,7.0,0.0
0.0,0.0,17.0,19.0,19.0,-1.0,-6.0,-1.0,-3.0,1.0,0.0
-14.0,-1.0,30.0,30.0,15.0,0.0,-10.0,4.0,-7.0,-9.0,0.0
-12.0,0.0,22.0,47.0,18.0,-5.0,-17.0,11.0,-16.0,-4.0,0.0
-4.0,-6.0,2.0,56.0,13.0,-16.0,-14.0,8.0,-11.0,-9.0,0.0
-3.0,-2.0,-9.0,52.0,3.0,-14.0,-8.0,5.0,-4.0,-1.0,0.0
-8.0,-31.0,-54.0,-20.0,1.0,3.0,-2.0,15.0,-8.0,-1.0,0.0
-8.0,-27.0,-44.0,-26.0,2.0,16.0,12.0,13.0,5.0,0.0,0.0
-9.0,-38.0,-31.0,-26.0,0.0,9.0,4.0,13.0,-18.0,-9.0,0.0
-11.0,-59.0,-19.0,-22.0,-7.0,-26.0,-35.0,-8.0,-75.0,-16.0,0.0
-6.0,-25.0,-5.0,4.0,-3.0,-1.0,2.0,-2.0,-4.0,11.0,0.0
-19.0,-30.0,-5.0,13.0,5.0,-3.0,12.0,0.0,15.0,32.0,0.0
-36.0,-20.0,-19.0,9.0,0.0,-14.0,9.0,-7.0,12.0,30.0,0.0
-37.0,-6.0,-18.0,4.0,-1.0,-19.0,6.0,-14.0,6.0,21.0,0.0
-43.0,-7.0,-4.0,6.0,1.0,-15.0,5.0,-15.0,1.0,12.0,0.0
-19.0,-20.0,1.0,8.0,0.0,-15.0,9.0,-21.0,4.0,2.0,0.0
10.0,-6.0,15.0,24.0,-3.0,-7.0,14.0,-18.0,11.0,-7.0,0.0
10.0,22.0,26.0,31.0,-5.0,7.0,8.0,-6.0,14.0,-6.0,0.0
1.0,28.0,37.0,18.0,-11.0,24.0,5.0,-5.0,8.0,-7.0,0.0
3.0,35.0,43.0,6.0,-1.0,24.0,3.0,-14.0,10.0,-4.0,0.0
6.0,34.0,42.0,6.0,10.0,24.0,13.0,-10.0,17.0,0.0,0.0
18.0,41.0,19.0,-11.0,23.0,26.0,16.0,5.0,23.0,13.0,0.0
17.0,38.0,-4.0,-7.0,26.0,25.0,24.0,10.0,18.0,28.0,0.0
15.0,16.0,9.0,-1.0,12.0,24.0,27.0,-1.0,20.0,24.0,0.0
14.0,1.0,28.0,-4.0,-10.0,29.0,21.0,-10.0,21.0,15.0,0.0
8.0,-7.0,39.0,0.0,-2.0,24.0,20.0,-3.0,18.0,15.0,0.0
-3.0,-4.0,41.0,12.0,12.0,16.0,16.0,10.0,13.0,5.0,0.0
-8.0,-2.0,25.0,15.0,11.0,4.0,5.0,12.0,25.0,9.0,0.0
6.0,5.0,1.0,11.0,13.0,-3.0,-3.0,-4.0,13.0,4.0,0.0
6.0,10.0,-35.0,10.0,13.0,0.0,-7.0,-10.0,-5.0,-12.0,0.0
-5.0,8.0,-47.0,12.0,23.0,12.0,7.0,3.0,3.0,-21.0,0.0
-11.0,-6.0,-35.0,3.0,23.0,20.0,15.0,13.0,13.0,-26.0,0.0
8.0,-7.0,-25.0,6.0,22.0,15.0,10.0,15.0,5.0,-24.0,0.0
21.0,3.0,-6.0,8.0,19.0,4.0,3.0,6.0,-5.0,-15.0,0.0
32.0,17.0,2.0,11.0,10.0,-11.0,-2.0,-3.0,-5.0,2.0,0.0
27.0,24.0,2.0,0.0,-1.0,-7.0,-3.0,-6.0,-4.0,0.0,0.0
20.0,3.0,-27.0,-13.0,-7.0,-1.0,-1.0,-3.0,4.0,-5.0,0.0
8.0,-12.0,-61.0,-36.0,-15.0,-3.0,-1.0,1.0,2.0,2.0,0.0
-9.0,-19.0,-71.0,-45.0,-14.0,-5.0,-5.0,-2.0,0.0,-20.0,0.0
-26.0,-17.0,-65.0,-34.0,-6.0,-6.0,-7.0,-17.0,-2.0,-33.0,0.0
-32.0,-26.0,-44.0,-31.0,0.0,-15.0,-4.0,-23.0,10.0,-24.0,0.0
-29.0,-33.0,-18.0,-22.0,-6.0,-11.0,-3.0,-15.0,22.0,-15.0,0.0
-16.0,-18.0,10.0,-11.0,-9.0,-10.0,-5.0,-1.0,9.0,-18.0,0.0
-11.0,-5.0,15.0,-13.0,-12.0,-6.0,-16.0,-2.0,2.0,-18.0,0.0
-7.0,5.0,21.0,-28.0,-11.0,-14.0,-23.0,-4.0,0.0,-19.0,0.0
6.0,15.0,28.0,-42.0,-13.0,-5.0,-13.0,-5.0,-4.0,-26.0,0.0
7.0,18.0,-6.0,-49.0,-7.0,4.0,10.0,17.0,0.0,3.0,0.0
-8.0,-4.0,-69.0,-48.0,-15.0,16.0,27.0,38.0,35.0,33.0,0.0
-5.0,-7.0,-77.0,-36.0,-24.0,11.0,26.0,32.0,32.0,34.0,0.0
14.0,12.0,-57.0,-15.0,-17.0,2.0,12.0,25.0,27.0,15.0,0.0
35.0,16.0,-45.0,-10.0,-18.0,12.0,-6.0,18.0,8.0,-1.0,0.0
14.0,11.0,-25.0,-5.0,-24.0,20.0,-9.0,17.0,-3.0,-3.0,0.0
-8.0,-7.0,-12.0,10.0,-19.0,20.0,-7.0,-2.0,6.0,-12.0,0.0
-9.0,-20.0,2.0,20.0,-17.0,12.0,-5.0,-10.0,10.0,-16.0,0.0
0.0,-15.0,-2.0,17.0,-16.0,-9.0,0.0,-7.0,7.0,-3.0,0.0
22.0,7.0,2.0,10.0,-10.0,-18.0,0.0,-9.0,3.0,7.0,0.0
33.0,10.0,13.0,14.0,-11.0,-13.0,-7.0,-13.0,-4.0,-6.0,0.0
24.0,20.0,19.0,14.0,-8.0,-5.0,-15.0,-1.0,-6.0,-12.0,0.0
15.0,16.0,31.0,6.0,1.0,-6.0,-16.0,-9.0,4.0,-21.0,0.0
1.0,8.0,35.0,-8.0,2.0,2.0,-7.0,-5.0,4.0,-33.0,0.0
2.0,4.0,36.0,9.0,-1.0,-5.0,-9.0,-2.0,-1.0,-22.0,0.0
-7.0,-3.0,23.0,23.0,0.0,-5.0,-8.0,4.0,1.0,-17.0,0.0
-23.0,-9.0,19.0,24.0,-12.0,0.0,-6.0,17.0,-1.0,-25.0,0.0
-17.0,6.0,10.0,21.0,-16.0,-2.0,-22.0,7.0,-8.0,-24.0,0.0
-7.0,26.0,16.0,5.0,-11.0,-6.0,-24.0,0.0,-9.0,-15.0,0.0
6.0,18.0,3.0,4.0,-14.0,-6.0,-26.0,-4.0,-3.0,-15.0,0.0
8.0,6.0,4.0,8.0,-15.0,-8.0,-26.0,-13.0,1.0,-23.0,0.0
4.0,-8.0,-5.0,2.0,1.0,-12.0,-13.0,-13.0,-9.0,-9.0,0.0
6.0,-27.0,-10.0,-10.0,8.0,-10.0,-10.0,-12.0,-8.0,4.0,0.0
17.0,-33.0,-3.0,-16.0,0.0,-11.0,-10.0,-3.0,-2.0,18.0,0.0
16.0,-29.0,6.0,-10.0,-3.0,-12.0,-3.0,4.0,11.0,21.0,0.0
21.0,-5.0,6.0,-5.0,-6.0,-11.0,-12.0,6.0,0.0,23.0,0.0
16.0,8.0,2.0,-1.0,-7.0,-13.0,-22.0,-6.0,-8.0,17.0,0.0
2.0,6.0,-13.0,-8.0,-15.0,-14.0,-26.0,-14.0,-12.0,18.0,0.0
8.0,-1.0,-33.0,-22.0,-25.0,-17.0,-20.0,-19.0,-24.0,12.0,0.0
14.0,-6.0,-32.0,-30.0,-17.0,-17.0,-16.0,-23.0,-29.0,16.0,0.0
19.0,-15.0,-23.0,-24.0,-11.0,-23.0,-15.0,-19.0,-19.0,10.0,0.0
21.0,-16.0,-16.0,-13.0,-11.0,-21.0,-8.0,-11.0,-18.0,20.0,0.0
15.0,-11.0,-12.0,-13.0,-5.0,-15.0,-15.0,-13.0,-12.0,43.0,0.0
19.0,7.0,23.0,-16.0,-6.0,-16.0,-10.0,-13.0,5.0,38.0,0.0
0.0,20.0,32.0,-17.0,-2.0,-7.0,-11.0,-10.0,0.0,16.0,0.0
-9.0,10.0,37.0,-2.0,-1.0,1.0,4.0,-4.0,-4.0,5.0,0.0
-7.0,1.0,39.0,5.0,8.0,13.0,0.0,5.0,-1.0,7.0,0.0
-11.0,-10.0,29.0,10.0,22.0,16.0,-5.0,10.0,0.0,-1.0,0.0
-10.0,-22.0,20.0,12.0,23.0,16.0,0.0,12.0,2.0,-17.0,0.0
7.0,-3.0,20.0,6.0,14.0,7.0,-4.0,3.0,8.0,-8.0,0.0
5.0,3.0,25.0,4.0,13.0,8.0,-13.0,-5.0,1.0,2.0,0.0
3.0,-4.0,21.0,4.0,19.0,18.0,2.0,-13.0,-5.0,0.0,0.0
13.0,-14.0,22.0,-12.0,13.0,9.0,-2.0,-8.0,-17.0,-3.0,0.0
9.0,-25.0,28.0,-17.0,9.0,-4.0,3.0,-7.0,-25.0,-1.0,0.0
-6.0,-34.0,30.0,-13.0,15.0,-11.0,8.0,-2.0,-16.0,-1.0,0.0
-13.0,-53.0,32.0,-17.0,22.0,-1.0,5.0,-2.0,-10.0,-5.0,0.0
-8.0,-64.0,22.0,-13.0,18.0,2.0,16.0,-2.0,-12.0,-6.0,0.0
-10.0,-62.0,12.0,-9.0,15.0,5.0,13.0,6.0,-9.0,-9.0,0.0
-27.0,-58.0,29.0,0.0,11.0,12.0,7.0,3.0,-1.0,-1.0,0.0
-6.0,-27.0,33.0,6.0,2.0,8.0,3.0,0.0,10.0,0.0,0.0
20.0,5.0,14.0,-26.0,-6.0,-9.0,-17.0,-13.0,4.0,-7.0,0.0
8.0,9.0,6.0,-49.0,-13.0,-19.0,-25.0,-14.0,-8.0,-12.0,0.0
0.0,11.0,20.0,-23.0,-11.0,-10.0,-26.0,1.0,-16.0,-12.0,0.0
-3.0,-2.0,13.0,-11.0,-8.0,10.0,-1.0,15.0,-12.0,-12.0,0.0
-13.0,-11.0,9.0,-24.0,-10.0,19.0,15.0,10.0,-1.0,-11.0,0.0
-22.0,-17.0,-17.0,-30.0,-4.0,23.0,7.0,-2.0,2.0,-20.0,0.0
-20.0,-21.0,-53.0,-30.0,5.0,21.0,0.0,0.0,-9.0,-19.0,0.0
-13.0,-14.0,-55.0,-39.0,2.0,21.0,-8.0,5.0,-12.0,-14.0,0.0
-5.0,-4.0,-41.0,-53.0,-1.0,17.0,-12.0,6.0,0.0,-2.0,0.0
1.0,-14.0,-28.0,-59.0,-11.0,9.0,-7.0,8.0,14.0,1.0,0.0
7.0,-16.0,-36.0,-60.0,-10.0,7.0,0.0,4.0,27.0,-1.0,0.0
11.0,-13.0,-24.0,-53.0,-13.0,0.0,-6.0,5.0,9.0,0.0,0.0
0.0,-7.0,-12.0,-41.0,-8.0,-6.0,-11.0,6.0,3.0,-8.0,0.0
-8.0,0.0,2.0,-21.0,-3.0,-3.0,-2.0,5.0,15.0,-9.0,0.0
-8.0,10.0,11.0,-10.0,-5.0,6.0,2.0,3.0,18.0,-3.0,0.0
-4.0,7.0,4.0,-12.0,-1.0,7.0,2.0,-8.0,10.0,15.0,0.0
-2.0,-3.0,-1.0,-10.0,1.0,4.0,0.0,-13.0,10.0,16.0,0.0
5.0,-6.0,3.0,13.0,0.0,0.0,-9.0,-15.0,15.0,16.0,0.0
0.0,0.0,12.0,32.0,6.0,-5.0,-23.0,-19.0,0.0,16.0,0.0
2.0,13.0,-2.0,24.0,5.0,-3.0,-27.0,-21.0,4.0,6.0,0.0
6.0,25.0,-28.0,0.0,-9.0,-5.0,-19.0,-3.0,18.0,17.0,0.0
-6.0,15.0,-50.0,-10.0,-20.0,-22.0,-34.0,-7.0,2.0,14.0,0.0
-12.0,4.0,-60.0,-5.0,-28.0,-28.0,-38.0,-16.0,-7.0,2.0,0.0
-16.0,5.0,-13.0,9.0,-22.0,-16.0,-29.0,-7.0,-2.0,3.0,0.0
-13.0,-6.0,15.0,7.0,-16.0,1.0,-15.0,-1.0,5.0,6.0,0.0
-13.0,-6.0,42.0,2.0,-9.0,14.0,-6.0,-4.0,15.0,9.0,0.0
-12.0,-3.0,58.0,6.0,-2.0,13.0,-1.0,6.0,17.0,8.0,0.0
-10.0,5.0,42.0,16.0,4.0,16.0,10.0,21.0,12.0,9.0,0.0
2.0,9.0,13.0,7.0,15.0,13.0,22.0,27.0,7.0,20.0,0.0
0.0,1.0,-2.0,-6.0,25.0,21.0,27.0,15.0,8.0,20.0,0.0
-8.0,-4.0,13.0,-9.0,24.0,19.0,10.0,6.0,7.0,2.0,0.0
4.0,7.0,10.0,9.0,19.0,9.0,1.0,11.0,-3.0,-11.0,0.0
9.0,4.0,2.0,4.0,10.0,4.0,8.0,17.0,-4.0,-13.0,0.0
9.0,2.0,2.0,-25.0,19.0,0.0,-2.0,11.0,-5.0,-3.0,0.0
8.0,7.0,6.0,-20.0,25.0,3.0,-5.0,4.0,2.0,-9.0,0.0
3.0,6.0,-12.0,-18.0,19.0,-10.0,-10.0,10.0,6.0,-8.0,0.0
-2.0,0.0,-27.0,-14.0,-1.0,-15.0,-11.0,18.0,11.0,10.0,0.0
0.0,-10.0,-43.0,-6.0,-17.0,-16.0,-8.0,21.0,19.0,31.0,0.0
8.0,8.0,-26.0,2.0,-15.0,-8.0,-15.0,14.0,3.0,22.0,0.0
38.0,20.0,0.0,3.0,-6.0,-10.0,-16.0,7.0,-17.0,0.0,0.0
46.0,35.0,0.0,5.0,-2.0,-18.0,1.0,-1.0,-22.0,0.0,0.0
31.0,32.0,1.0,0.0,-8.0,-17.0,1.0,-9.0,-19.0,4.0,0.0
17.0,7.0,-17.0,-13.0,-13.0,-5.0,-1.0,-3.0,-22.0,6.0,0.0
7.0,-10.0,-17.0,-16.0,-10.0,-2.0,0.0,0.0,-20.0,3.0,0.0
-3.0,1.0,-8.0,-18.0,-3.0,-11.0,-3.0,0.0,-16.0,-2.0,0.0
-10.0,4.0,-1.0,4.0,-3.0,-6.0,-8.0,7.0,-13.0,2.0,0.0
-22.0,-11.0,-15.0,17.0,-6.0,-8.0,-4.0,17.0,-10.0,4.0,0.0
-31.0,-22.0,-15.0,13.0,-8.0,-9.0,1.0,12.0,1.0,8.0,0.0
-33.0,-21.0,-18.0,20.0,-7.0,-12.0,1.0,16.0,22.0,15.0,0.0
-25.0,-14.0,-16.0,26.0,-3.0,0.0,3.0,16.0,23.0,28.0,0.0
0.0,12.0,-6.0,21.0,4.0,0.0,-4.0,9.0,22.0,26.0,0.0
22.0,29.0,10.0,32.0,7.0,-18.0,-13.0,-1.0,5.0,13.0,0.0
7.0,26.0,11.0,57.0,9.0,-15.0,-11.0,-6.0,-2.0,-4.0,0.0
2.0,16.0,-12.0,63.0,9.0,-11.0,-3.0,-6.0,4.0,-13.0,0.0
6.0,10.0,-7.0,35.0,7.0,-24.0,-4.0,-10.0,13.0,-7.0,0.0
10.0,6.0,-15.0,13.0,-4.0,-26.0,-15.0,-12.0,1.0,-3.0,0.0
12.0,1.0,-19.0,17.0,-5.0,-22.0,-14.0,-14.0,-5.0,-2.0,0.0
9.0,7.0,-20.0,21.0,-8.0,-13.0,-12.0,-2.0,-14.0,-3.0,0.0
4.0,16.0,-20.0,27.0,-7.0,2.0,-8.0,-2.0,-15.0,-2.0,0.0
-4.0,10.0,-12.0,33.0,-9.0,-5.0,-10.0,2.0,-13.0,-11.0,0.0
-19.0,3.0,0.0,33.0,-8.0,-12.0,-12.0,4.0,3.0,-8.0,0.0
-32.0,1.0,-9.0,32.0,-1.0,-8.0,-1.0,-4.0,3.0,-14.0,0.0
-38.0,-8.0,-6.0,30.0,-7.0,-4.0,1.0,-6.0,8.0,-17.0,0.0
-28.0,2.0,-8.0,32.0,-13.0,-9.0,-3.0,-10.0,0.0,-15.0,0.0
-19.0,15.0,6.0,27.0,-15.0,-13.0,12.0,0.0,1.0,-1.0,0.0
-9.0,11.0,7.0,16.0,-14.0,-5.0,12.0,6.0,3.0,7.0,0.0
0.0,-2.0,-1.0,15.0,-10.0,-4.0,19.0,16.0,-1.0,0.0,0.0
4.0,-4.0,-10.0,10.0,-13.0,-7.0,10.0,15.0,-1.0,-4.0,0.0
1.0,0.0,1.0,4.0,-12.0,-10.0,3.0,3.0,17.0,0.0,0.0
0.0,24.0,11.0,16.0,-7.0,-3.0,2.0,2.0,12.0,0.0,0.0
5.0,32.0,39.0,24.0,3.0,0.0,5.0,9.0,14.0,11.0,0.0
11.0,34.0,53.0,22.0,6.0,11.0,2.0,10.0,21.0,14.0,0.0
10.0,33.0,47.0,32.0,2.0,2.0,2.0,3.0,9.0,8.0,0.0
13.0,15.0,38.0,33.0,5.0,-6.0,14.0,3.0,9.0,23.0,0.0
17.0,10.0,45.0,17.0,17.0,-2.0,13.0,7.0,5.0,21.0,0.0
0.0,10.0,41.0,14.0,24.0,18.0,9.0,19.0,3.0,6.0,0.0
-4.0,6.0,6.0,7.0,17.0,19.0,17.0,23.0,16.0,1.0,0.0
1.0,0.0,-20.0,2.0,7.0,2.0,7.0,11.0,2.0,4.0,0.0
-2.0,-18.0,-30.0,-29.0,6.0,-2.0,4.0,5.0,-1.0,-2.0,0.0
2.0,-15.0,-26.0,-41.0,4.0,-9.0,25.0,8.0,8.0,-10.0,0.0
-3.0,-19.0,-28.0,-35.0,-4.0,-8.0,25.0,-2.0,3.0,-14.0,0.0
-17.0,-30.0,-32.0,-39.0,-7.0,0.0,4.0,-9.0,-2.0,-23.0,0.0
-25.0,-28.0,-36.0,-30.0,-4.0,-4.0,4.0,-8.0,10.0,-11.0,0.0
-15.0,-25.0,-35.0,-2.0,-4.0,5.0,12.0,-9.0,20.0,18.0,0.0
5.0,-13.0,-33.0,11.0,3.0,26.0,14.0,-8.0,38.0,50.0,0.0
2.0,-22.0,-30.0,7.0,8.0,33.0,19.0,-3.0,45.0,35.0,0.0
3.0,-35.0,-25.0,17.0,11.0,23.0,12.0,1.0,27.0,4.0,0.0
14.0,-30.0,-6.0,27.0,8.0,14.0,3.0,-5.0,17.0,-5.0,0.0
2.0,-31.0,-5.0,16.0,7.0,17.0,-2.0,-9.0,0.0,-2.0,0.0
2.0,-32.0,-11.0,-3.0,0.0,3.0,1.0,-25.0,-2.0,0.0,0.0
0.0,-24.0,-9.0,0.0,3.0,-3.0,0.0,-24.0,-6.0,7.0,0.0
-5.0,-27.0,-10.0,-7.0,0.0,0.0,0.0,-15.0,-12.0,6.0,0.0
7.0,-20.0,-1.0,-13.0,0.0,10.0,6.0,3.0,-10.0,0.0,0.0
25.0,3.0,7.0,-9.0,8.0,12.0,11.0,9.0,-8.0,-5.0,0.0
23.0,6.0,11.0,-13.0,7.0,2.0,20.0,10.0,-8.0,-10.0,0.0
16.0,1.0,11.0,-18.0,10.0,2.0,31.0,-7.0,0.0,-11.0,0.0
5.0,-16.0,1.0,4.0,-1.0,6.0,28.0,-10.0,-3.0,-14.0,0.0
2.0,-16.0,12.0,8.0,-7.0,2.0,18.0,-2.0,-15.0,-11.0,0.0
2.0,-23.0,35.0,21.0,-4.0,3.0,24.0,-8.0,-27.0,-4.0,0.0
4.0,-19.0,49.0,33.0,4.0,-5.0,26.0,-20.0,-32.0,1.0,0.0
15.0,4.0,55.0,22.0,-3.0,-22.0,2.0,-17.0,-40.0,-3.0,0.0
16.0,33.0,51.0,22.0,-1.0,-30.0,-12.0,-27.0,-51.0,-8.0,0.0
13.0,37.0,51.0,24.0,7.0,-22.0,-9.0,-27.0,-62.0,-25.0,0.0
7.0,12.0,32.0,26.0,8.0,-20.0,-8.0,-12.0,-43.0,-33.0,0.0
9.0,4.0,16.0,18.0,8.0,-19.0,-7.0,1.0,-27.0,-14.0,0.0
6.0,3.0,-19.0,-3.0,0.0,-14.0,2.0,8.0,-24.0,-10.0,0.0
0.0,-5.0,-38.0,-19.0,-5.0,-24.0,8.0,0.0,-21.0,-23.0,0.0
-7.0,0.0,-28.0,-25.0,-4.0,-23.0,7.0,3.0,-18.0,-24.0,0.0
-5.0,12.0,-7.0,-15.0,-9.0,-16.0,10.0,13.0,-18.0,-19.0,0.0
5.0,6.0,5.0,-8.0,-10.0,-3.0,6.0,18.0,-7.0,0.0,0.0
6.0,14.0,-5.0,-6.0,1.0,1.0,0.0,0.0,-3.0,4.0,0.0
-5.0,11.0,-16.0,2.0,9.0,-10.0,1.0,-2.0,-3.0,14.0,0.0
-26.0,-9.0,-16.0,-5.0,11.0,-12.0,11.0,1.0,-6.0,15.0,0.0
-24.0,-31.0,-18.0,-11.0,-8.0,-6.0,19.0,6.0,-6.0,4.0,0.0
-19.0,-34.0,-33.0,6.0,-8.0,-8.0,13.0,8.0,-8.0,-9.0,0.0
-20.0,-18.0,-27.0,26.0,-7.0,-11.0,4.0,9.0,-6.0,-15.0,0.0
-17.0,-15.0,-3.0,34.0,-3.0,-10.0,9.0,20.0,0.0,0.0,0.0
-16.0,-10.0,7.0,44.0,-3.0,-1.0,9.0,23.0,-8.0,12.0,0.0
-19.0,-8.0,30.0,50.0,-7.0,0.0,16.0,19.0,-9.0,15.0,0.0
-16.0,3.0,58.0,57.0,-4.0,-7.0,20.0,19.0,-2.0,10.0,0.0
0.0,16.0,44.0,35.0,-7.0,-1.0,11.0,13.0,0.0,11.0,0.0
8.0,20.0,14.0,6.0,-7.0,11.0,17.0,19.0,13.0,19.0,0.0
13.0,15.0,-20.0,-6.0,0.0,18.0,32.0,30.0,23.0,17.0,0.0
0.0,-5.0,-44.0,-5.0,0.0,13.0,32.0,24.0,19.0,16.0,0.0
-17.0,-15.0,-34.0,-1.0,3.0,15.0,35.0,18.0,20.0,14.0,0.0
-24.0,-4.0,-21.0,-5.0,7.0,24.0,38.0,21.0,28.0,15.0,0.0
-13.0,0.0,3.0,0.0,6.0,28.0,33.0,3.0,27.0,13.0,0.0
8.0,6.0,25.0,-1.0,8.0,30.0,29.0,0.0,30.0,18.0,0.0
14.0,8.0,25.0,-14.0,0.0,26.0,22.0,-2.0,18.0,14.0,0.0
8.0,8.0,2.0,-25.0,-8.0,19.0,11.0,-17.0,3.0,2.0,0.0
-6.0,0.0,-58.0,-23.0,-22.0,14.0,-21.0,-27.0,-13.0,-12.0,0.0
-12.0,0.0,-74.0,-16.0,-15.0,-2.0,-21.0,-32.0,-18.0,-8.0,0.0
-14.0,2.0,-54.0,-10.0,-2.0,-6.0,-3.0,-22.0,-8.0,-11.0,0.0
2.0,5.0,-38.0,-4.0,-3.0,-5.0,-3.0,-12.0,-6.0,-18.0,0.0
37.0,45.0,-23.0,7.0,-4.0,-8.0,-9.0,-8.0,-10.0,-12.0,0.0
45.0,61.0,-9.0,9.0,-11.0,-11.0,-14.0,-10.0,-10.0,-8.0,0.0
13.0,41.0,-19.0,0.0,-18.0,-10.0,-4.0,-5.0,-4.0,-2.0,0.0
-7.0,10.0,-24.0,-4.0,-7.0,-1.0,8.0,-7.0,1.0,-4.0,0.0
1.0,0.0,-11.0,3.0,-2.0,-1.0,25.0,10.0,14.0,-11.0,0.0
0.0,6.0,-8.0,7.0,-2.0,-2.0,22.0,18.0,17.0,-14.0,0.0
-15.0,2.0,-6.0,5.0,1.0,1.0,20.0,14.0,15.0,-10.0,0.0
-19.0,-10.0,7.0,8.0,0.0,4.0,20.0,16.0,7.0,-15.0,0.0
-21.0,-18.0,9.0,11.0,-1.0,6.0,9.0,22.0,-6.0,-14.0,0.0
-22.0,-13.0,19.0,8.0,0.0,-2.0,-2.0,16.0,-17.0,-7.0,0.0
-23.0,1.0,29.0,2.0,-5.0,-9.0,-5.0,15.0,-20.0,2.0,0.0
-10.0,24.0,26.0,1.0,-10.0,-5.0,-6.0,1.0,-21.0,-5.0,0.0
0.0,28.0,19.0,0.0,-12.0,-4.0,-4.0,-9.0,-18.0,-6.0,0.0
6.0,17.0,6.0,-5.0,-2.0,3.0,-2.0,-6.0,-5.0,8.0,0.0
-3.0,12.0,-17.0,4.0,7.0,9.0,2.0,-8.0,-10.0,14.0,0.0
-12.0,9.0,-21.0,10.0,2.0,9.0,3.0,-2.0,-6.0,25.0,0.0
0.0,17.0,-15.0,20.0,6.0,11.0,3.0,10.0,8.0,22.0,0.0
12.0,14.0,-19.0,15.0,6.0,8.0,17.0,2.0,23.0,15.0,0.0
21.0,8.0,-35.0,6.0,4.0,14.0,21.0,6.0,13.0,26.0,0.0
14.0,0.0,-35.0,-5.0,1.0,14.0,8.0,5.0,-2.0,28.0,0.0
20.0,-10.0,-36.0,-6.0,0.0,9.0,-4.0,-1.0,-5.0,25.0,0.0
32.0,-14.0,-38.0,5.0,0.0,14.0,-6.0,4.0,6.0,26.0,0.0
21.0,-15.0,-18.0,0.0,-5.0,8.0,-8.0,9.0,1.0,29.0,0.0
1.0,-6.0,12.0,6.0,-16.0,-1.0,-5.0,-5.0,-2.0,20.0,0.0
-14.0,-4.0,19.0,33.0,-10.0,4.0,-4.0,-11.0,2.0,9.0,0.0
-20.0,-8.0,14.0,37.0,-1.0,4.0,5.0,-2.0,15.0,8.0,0.0
-17.0,0.0,10.0,26.0,-8.0,-1.0,4.0,0.0,27.0,3.0,0.0
-2.0,20.0,-12.0,-8.0,-11.0,-5.0,3.0,1.0,10.0,3.0,0.0
0.0,24.0,-43.0,-50.0,-9.0,-8.0,9.0,-2.0,2.0,7.0,0.0
-13.0,10.0,-41.0,-54.0,-15.0,-7.0,1.0,-5.0,0.0,2.0,0.0
-9.0,6.0,-14.0,-39.0,-20.0,-13.0,-11.0,-7.0,6.0,0.0,0.0
7.0,3.0,-8.0,-6.0,-26.0,-15.0,-9.0,-3.0,7.0,13.0,0.0
12.0,10.0,-13.0,6.0,-23.0,-4.0,-6.0,0.0,12.0,19.0,0.0
11.0,14.0,-6.0,12.0,-11.0,2.0,-9.0,-7.0,19.0,8.0,0.0
7.0,16.0,14.0,17.0,0.0,8.0,-10.0,-4.0,19.0,1.0,0.0
-1.0,9.0,2.0,8.0,-3.0,-2.0,-13.0,-5.0,24.0,2.0,0.0
-5.0,-5.0,-24.0,13.0,0.0,-6.0,-24.0,-6.0,16.0,-16.0,0.0
-14.0,-18.0,-31.0,13.0,4.0,-10.0,-17.0,0.0,9.0,-38.0,0.0
-23.0,-18.0,-25.0,25.0,4.0,-8.0,-14.0,0.0,19.0,-31.0,0.0
-25.0,-18.0,-5.0,23.0,-2.0,-12.0,-8.0,0.0,12.0,-20.0,0.0
-26.0,-25.0,-3.0,10.0,-4.0,-19.0,-9.0,-5.0,9.0,-29.0,0.0
-10.0,-19.0,0.0,0.0,-7.0,-24.0,-17.0,-4.0,0.0,-37.0,0.0
3.0,14.0,16.0,0.0,-5.0,-22.0,-11.0,1.0,-10.0,-51.0,0.0
4.0,21.0,38.0,-5.0,-8.0,-13.0,-8.0,7.0,-17.0,-44.0,0.0
0.0,11.0,44.0,-7.0,2.0,-16.0,0.0,12.0,-23.0,-44.0,0.0
-8.0,0.0,40.0,-9.0,-1.0,-7.0,3.0,26.0,-31.0,-36.0,0.0
-13.0,-15.0,16.0,-9.0,0.0,17.0,18.0,35.0,-15.0,-3.0,0.0
-1.0,-14.0,30.0,10.0,12.0,28.0,31.0,31.0,-10.0,19.0,0.0
-2.0,-14.0,28.0,9.0,13.0,25.0,22.0,20.0,-10.0,11.0,0.0
-25.0,-24.0,4.0,-2.0,6.0,13.0,10.0,15.0,-6.0,-4.0,0.0
-59.0,-59.0,-35.0,-25.0,1.0,10.0,12.0,-1.0,-2.0,-7.0,0.0
-66.0,-75.0,-48.0,-18.0,-4.0,13.0,15.0,-4.0,0.0,-14.0,0.0
-48.0,-70.0,-51.0,-6.0,-1.0,12.0,13.0,1.0,-4.0,-11.0,0.0
-29.0,-52.0,-38.0,8.0,-3.0,10.0,3.0,0.0,-15.0,-8.0,0.0
20.0,-2.0,-24.0,15.0,-13.0,-2.0,-2.0,-10.0,-24.0,0.0,0.0
52.0,17.0,-8.0,9.0,-13.0,-8.0,-5.0,-10.0,-22.0,1.0,0.0
35.0,2.0,1.0,3.0,-15.0,-12.0,-17.0,-1.0,-22.0,6.0,0.0
22.0,4.0,15.0,0.0,-19.0,-8.0,-12.0,-9.0,-10.0,1.0,0.0
20.0,3.0,31.0,-10.0,-21.0,-12.0,-15.0,-15.0,-4.0,-4.0,0.0
16.0,6.0,38.0,-22.0,-22.0,-7.0,-11.0,-8.0,-3.0,8.0,0.0
14.0,6.0,33.0,-16.0,-36.0,10.0,-1.0,-3.0,6.0,-1.0,0.0
20.0,8.0,30.0,-17.0,-23.0,19.0,10.0,-2.0,1.0,1.0,0.0
27.0,20.0,34.0,-25.0,-16.0,19.0,22.0,-2.0,5.0,4.0,0.0
33.0,17.0,28.0,-40.0,-20.0,8.0,10.0,-3.0,16.0,5.0,0.0
22.0,14.0,9.0,-40.0,-24.0,-9.0,-2.0,-4.0,3.0,-2.0,0.0
-1.0,3.0,-3.0,-21.0,-17.0,-12.0,-21.0,4.0,-16.0,-22.0,0.0
-7.0,3.0,23.0,-16.0,-16.0,-5.0,-18.0,7.0,-15.0,-19.0,0.0
-15.0,1.0,49.0,-17.0,-8.0,5.0,-10.0,7.0,-14.0,-14.0,0.0
-12.0,-4.0,59.0,-19.0,4.0,0.0,-8.0,15.0,-10.0,-10.0,0.0
0.0,2.0,56.0,-1.0,4.0,6.0,-6.0,7.0,-3.0,-7.0,0.0
0.0,12.0,44.0,4.0,-4.0,10.0,-1.0,-1.0,-1.0,-1.0,0.0
17.0,23.0,8.0,-15.0,-5.0,6.0,11.0,13.0,22.0,13.0,0.0
30.0,13.0,-17.0,-27.0,-1.0,10.0,24.0,17.0,25.0,7.0,0.0
24.0,-1.0,-27.0,-21.0,0.0,13.0,20.0,12.0,13.0,1.0,0.0
1.0,-12.0,-11.0,-7.0,-5.0,8.0,6.0,8.0,5.0,-14.0,0.0
-11.0,-24.0,-5.0,6.0,-7.0,9.0,0.0,11.0,4.0,-17.0,0.0
-13.0,-28.0,-5.0,11.0,-6.0,9.0,9.0,10.0,-6.0,-18.0,0.0
-5.0,-36.0,-15.0,11.0,-2.0,9.0,24.0,0.0,-13.0,-17.0,0.0
14.0,-29.0,-24.0,-11.0,-2.0,-1.0,20.0,-12.0,-20.0,-7.0,0.0
31.0,-15.0,-12.0,-7.0,4.0,-13.0,3.0,-28.0,-25.0,-4.0,0.0
40.0,8.0,14.0,-4.0,7.0,-18.0,-17.0,-31.0,-23.0,-2.0,0.0
43.0,14.0,14.0,-3.0,7.0,-11.0,-27.0,-20.0,-25.0,0.0,0.0
32.0,8.0,4.0,-7.0,1.0,-7.0,-28.0,-9.0,-27.0,8.0,0.0
25.0,18.0,4.0,-15.0,-3.0,-19.0,-33.0,-10.0,-11.0,2.0,0.0
23.0,9.0,6.0,-9.0,-6.0,-26.0,-27.0,-6.0,0.0,-5.0,0.0
20.0,3.0,7.0,-5.0,-10.0,-28.0,-24.0,1.0,-8.0,-6.0,0.0
3.0,0.0,16.0,-17.0,-4.0,-23.0,-12.0,-3.0,-13.0,-15.0,0.0
-2.0,0.0,30.0,-18.0,10.0,-21.0,-13.0,-6.0,-12.0,-21.0,0.0
7.0,8.0,42.0,-12.0,8.0,-4.0,-10.0,-1.0,-1.0,-21.0,0.0
6.0,9.0,24.0,-22.0,0.0,5.0,-2.0,4.0,7.0,-26.0,0.0
0.0,-11.0,9.0,-28.0,-6.0,8.0,3.0,12.0,2.0,-28.0,0.0
-10.0,-13.0,-5.0,-11.0,-8.0,3.0,-4.0,18.0,-5.0,-20.0,0.0
-13.0,-12.0,-17.0,1.0,0.0,0.0,-23.0,15.0,4.0,4.0,0.0
-26.0,-21.0,-16.0,22.0,2.0,5.0,-15.0,18.0,8.0,3.0,0.0
-40.0,-16.0,-25.0,25.0,-3.0,4.0,1.0,10.0,12.0,-15.0,0.0
-12.0,4.0,-18.0,5.0,-14.0,-2.0,-9.0,3.0,0.0,-21.0,0.0
-17.0,-1.0,-7.0,4.0,-1.0,3.0,-4.0,2.0,-4.0,-11.0,0.0
-28.0,-23.0,-11.0,-11.0,-1.0,-22.0,-26.0,-9.0,-48.0,-26.0,0.0
-21.0,-52.0,-14.0,-9.0,-3.0,-47.0,-53.0,-22.0,-93.0,-39.0,0.0
-11.0,-8.0,5.0,12.0,1.0,2.0,1.0,-7.0,-17.0,-9.0,0.0
-8.0,-1.0,16.0,13.0,0.0,7.0,4.0,5.0,-5.0,11.0,0.0
-2.0,4.0,22.0,14.0,4.0,9.0,0.0,6.0,6.0,18.0,0.0
-1.0,5.0,26.0,16.0,6.0,-1.0,-10.0,14.0,10.0,7.0,0.0
-7.0,2.0,16.0,21.0,5.0,3.0,-5.0,10.0,5.0,4.0,0.0
-7.0,-3.0,2.0,25.0,5.0,12.0,14.0,7.0,13.0,3.0,0.0
-9.0,4.0,-9.0,17.0,7.0,18.0,14.0,-4.0,18.0,2.0,0.0
-15.0,-1.0,-5.0,3.0,0.0,10.0,11.0,-16.0,18.0,16.0,0.0
-31.0,-25.0,-13.0,0.0,-1.0,7.0,14.0,-6.0,19.0,19.0,0.0
-17.0,-26.0,-15.0,0.0,-6.0,5.0,17.0,12.0,18.0,5.0,0.0
-1.0,-13.0,-11.0,-7.0,-9.0,1.0,11.0,3.0,5.0,2.0,0.0
15.0,10.0,4.0,-15.0,-27.0,-21.0,-2.0,-8.0,-8.0,6.0,0.0
14.0,16.0,15.0,-12.0,-37.0,-28.0,-1.0,-21.0,-1.0,23.0,0.0
21.0,21.0,17.0,-2.0,-40.0,-26.0,7.0,-22.0,1.0,14.0,0.0
29.0,31.0,21.0,13.0,-33.0,-16.0,19.0,-19.0,-2.0,10.0,0.0
17.0,8.0,1.0,11.0,-25.0,-2.0,14.0,-8.0,-2.0,1.0,0.0
0.0,-16.0,-1.0,5.0,-14.0,-3.0,0.0,-5.0,-2.0,-14.0,0.0
-5.0,-25.0,9.0,10.0,-5.0,1.0,11.0,1.0,8.0,-13.0,0.0
-17.0,-32.0,0.0,17.0,13.0,23.0,36.0,7.0,6.0,-14.0,0.0
-13.0,-41.0,-4.0,2.0,18.0,27.0,41.0,0.0,6.0,-14.0,0.0
9.0,-4.0,6.0,-8.0,10.0,12.0,20.0,-11.0,18.0,3.0,0.0
17.0,33.0,25.0,-9.0,0.0,-2.0,7.0,-15.0,4.0,0.0,0.0
13.0,44.0,29.0,-3.0,3.0,-1.0,15.0,-11.0,-1.0,-3.0,0.0
15.0,67.0,40.0,9.0,3.0,3.0,26.0,-9.0,-2.0,-18.0,0.0
16.0,59.0,57.0,10.0,-11.0,0.0,28.0,-3.0,-8.0,-19.0,0.0
14.0,44.0,56.0,21.0,-1.0,-1.0,22.0,-1.0,-8.0,-23.0,0.0
8.0,26.0,42.0,33.0,12.0,-6.0,10.0,-15.0,-16.0,-28.0,0.0
2.0,15.0,23.0,14.0,13.0,-2.0,18.0,-18.0,-28.0,-30.0,0.0
-1.0,0.0,-6.0,5.0,3.0,-7.0,23.0,-12.0,-26.0,-37.0,0.0
-13.0,-13.0,-32.0,0.0,0.0,-11.0,20.0,-5.0,-22.0,-40.0,0.0
-10.0,-8.0,-29.0,-3.0,-5.0,-23.0,18.0,-1.0,-21.0,-24.0,0.0
5.0,-19.0,-39.0,-8.0,-14.0,-27.0,14.0,1.0,-10.0,-17.0,0.0
7.0,-25.0,-56.0,-8.0,-28.0,-19.0,20.0,4.0,4.0,1.0,0.0
7.0,-28.0,-53.0,-17.0,-29.0,-23.0,23.0,8.0,14.0,0.0,0.0
4.0,-25.0,-47.0,-32.0,-37.0,-30.0,14.0,-7.0,18.0,2.0,0.0
-1.0,-23.0,-42.0,-32.0,-34.0,-21.0,12.0,-7.0,24.0,29.0,0.0
-3.0,-16.0,-28.0,-18.0,-14.0,-4.0,16.0,2.0,28.0,44.0,0.0
-11.0,-20.0,-13.0,-9.0,-11.0,0.0,20.0,0.0,20.0,25.0,0.0
-15.0,-30.0,-15.0,-9.0,-12.0,0.0,15.0,-9.0,-1.0,13.0,0.0
-12.0,-36.0,-21.0,-5.0,-12.0,2.0,10.0,-11.0,-1.0,14.0,0.0
-18.0,-50.0,-15.0,10.0,-11.0,0.0,6.0,-12.0,9.0,16.0,0.0
-15.0,-52.0,-21.0,9.0,-12.0,-10.0,-2.0,-12.0,19.0,9.0,0.0
12.0,-21.0,-9.0,7.0,-19.0,-22.0,-24.0,-9.0,24.0,17.0,0.0
25.0,10.0,15.0,5.0,-25.0,-33.0,-32.0,-3.0,19.0,21.0,0.0
10.0,11.0,18.0,-2.0,-14.0,-31.0,-16.0,0.0,17.0,17.0,0.0
10.0,10.0,12.0,-11.0,-9.0,-21.0,5.0,6.0,28.0,13.0,0.0
10.0,13.0,1.0,-7.0,8.0,-11.0,13.0,7.0,26.0,14.0,0.0
7.0,13.0,3.0,0.0,5.0,-14.0,1.0,-7.0,25.0,20.0,0.0
7.0,3.0,6.0,8.0,-4.0,-16.0,-4.0,-14.0,24.0,20.0,0.0
12.0,0.0,9.0,15.0,-19.0,-20.0,-19.0,-15.0,11.0,11.0,0.0
17.0,-5.0,15.0,21.0,-19.0,-16.0,-26.0,-22.0,7.0,13.0,0.0
8.0,-10.0,26.0,26.0,-3.0,2.0,-25.0,-13.0,15.0,14.0,0.0
1.0,-5.0,37.0,28.0,8.0,3.0,-13.0,0.0,11.0,15.0,0.0
-2.0,-15.0,31.0,26.0,14.0,9.0,2.0,-2.0,7.0,12.0,0.0
-11.0,-23.0,21.0,31.0,20.0,9.0,4.0,-10.0,14.0,8.0,0.0
-20.0,-20.0,16.0,38.0,25.0,18.0,6.0,-20.0,16.0,5.0,0.0
-36.0,-25.0,27.0,46.0,22.0,20.0,18.0,-11.0,14.0,-22.0,0.0
-46.0,-19.0,10.0,47.0,20.0,28.0,24.0,-5.0,15.0,-24.0,0.0
-36.0,-9.0,5.0,36.0,14.0,26.0,11.0,-8.0,9.0,-15.0,0.0
-24.0,-11.0,-15.0,9.0,1.0,14.0,15.0,-6.0,4.0,-1.0,0.0
-20.0,-18.0,-22.0,-10.0,4.0,7.0,15.0,-3.0,-1.0,0.0,0.0
-13.0,-22.0,-30.0,-1.0,6.0,8.0,8.0,-8.0,-10.0,-11.0,0.0
0.0,-24.0,-45.0,1.0,3.0,-4.0,3.0,-17.0,-14.0,-11.0,0.0
13.0,-19.0,-57.0,-4.0,-1.0,-12.0,-27.0,-28.0,-34.0,-21.0,0.0
14.0,-25.0,-64.0,-11.0,3.0,-14.0,-43.0,-28.0,-36.0,-15.0,0.0
15.0,-16.0,-46.0,-20.0,7.0,-11.0,-45.0,-26.0,-31.0,-11.0,0.0
8.0,0.0,4.0,-11.0,19.0,-14.0,-40.0,-24.0,-31.0,-12.0,0.0
-7.0,3.0,48.0,1.0,29.0,-14.0,-30.0,-23.0,-19.0,-4.0,0.0
-8.0,12.0,72.0,16.0,32.0,-7.0,-42.0,-23.0,-13.0,-8.0,0.0
-6.0,18.0,95.0,26.0,29.0,-3.0,-28.0,-22.0,-3.0,-21.0,0.0
3.0,22.0,70.0,-2.0,23.0,1.0,-4.0,-8.0,6.0,-10.0,0.0
14.0,24.0,7.0,-27.0,19.0,15.0,3.0,4.0,12.0,10.0,0.0
17.0,15.0,-25.0,-16.0,12.0,9.0,1.0,9.0,-5.0,11.0,0.0
10.0,0.0,-10.0,-10.0,5.0,1.0,0.0,2.0,-15.0,7.0,0.0
6.0,-6.0,3.0,-9.0,4.0,10.0,1.0,-7.0,-10.0,2.0,0.0
-11.0,-15.0,1.0,-19.0,5.0,10.0,2.0,-2.0,-5.0,3.0,0.0
-6.0,-17.0,-2.0,-30.0,-3.0,7.0,-5.0,-10.0,-1.0,14.0,0.0
-16.0,-14.0,0.0,-26.0,-11.0,5.0,-8.0,-18.0,-10.0,6.0,0.0
-11.0,-16.0,-1.0,-21.0,-13.0,16.0,2.0,-9.0,-6.0,-7.0,0.0
-1.0,-17.0,-4.0,-12.0,0.0,17.0,25.0,-4.0,11.0,-16.0,0.0
20.0,0.0,-16.0,-5.0,10.0,14.0,40.0,-11.0,19.0,-17.0,0.0
13.0,7.0,-27.0,-3.0,13.0,21.0,30.0,2.0,17.0,-9.0,0.0
-1.0,14.0,-38.0,-16.0,9.0,20.0,24.0,10.0,18.0,0.0,0.0
-1.0,9.0,-37.0,-17.0,11.0,24.0,26.0,3.0,30.0,9.0,0.0
2.0,3.0,-32.0,-15.0,12.0,27.0,27.0,6.0,39.0,21.0,0.0
0.0,7.0,4.0,-4.0,13.0,18.0,19.0,-2.0,36.0,28.0,0.0
-14.0,11.0,30.0,23.0,2.0,5.0,0.0,-17.0,10.0,18.0,0.0
-22.0,4.0,39.0,27.0,5.0,8.0,-9.0,-9.0,0.0,4.0,0.0
-15.0,-4.0,26.0,10.0,4.0,19.0,4.0,-3.0,20.0,15.0,0.0
10.0,-2.0,-9.0,6.0,-6.0,9.0,-4.0,-16.0,12.0,13.0,0.0
11.0,-9.0,-52.0,17.0,-12.0,0.0,-14.0,-28.0,2.0,-2.0,0.0
10.0,-11.0,-49.0,17.0,-9.0,1.0,-15.0,-33.0,6.0,-7.0,0.0
26.0,18.0,-30.0,11.0,-1.0,0.0,-8.0,-34.0,5.0,13.0,0.0
34.0,33.0,-14.0,13.0,6.0,3.0,10.0,-26.0,-4.0,23.0,0.0
26.0,26.0,-6.0,6.0,3.0,5.0,20.0,-30.0,-5.0,28.0,0.0
16.0,13.0,-10.0,0.0,3.0,0.0,24.0,-21.0,4.0,29.0,0.0
11.0,2.0,-26.0,-2.0,0.0,-4.0,7.0,-9.0,0.0,26.0,0.0
7.0,2.0,-16.0,-3.0,7.0,4.0,-4.0,0.0,-1.0,26.0,0.0
-5.0,6.0,-1.0,-12.0,17.0,6.0,-4.0,-3.0,0.0,21.0,0.0
-27.0,-9.0,2.0,-13.0,23.0,9.0,2.0,7.0,-8.0,4.0,0.0
-28.0,-9.0,12.0,-14.0,17.0,16.0,4.0,16.0,-8.0,13.0,0.0
-19.0,0.0,8.0,-14.0,8.0,24.0,23.0,27.0,-1.0,15.0,0.0
-13.0,1.0,14.0,-4.0,3.0,21.0,27.0,18.0,16.0,3.0,0.0
0.0,1.0,27.0,-6.0,4.0,10.0,18.0,20.0,11.0,19.0,0.0
-6.0,5.0,30.0,-6.0,3.0,-2.0,6.0,22.0,14.0,17.0,0.0
-16.0,-3.0,12.0,1.0,-7.0,-7.0,-1.0,12.0,13.0,0.0,0.0
-10.0,-16.0,3.0,2.0,-2.0,0.0,1.0,6.0,15.0,-10.0,0.0
-4.0,-3.0,11.0,20.0,0.0,9.0,0.0,4.0,14.0,-21.0,0.0
4.0,4.0,5.0,25.0,5.0,16.0,-1.0,1.0,0.0,-27.0,0.0
4.0,4.0,-2.0,20.0,10.0,10.0,0.0,12.0,-14.0,-15.0,0.0
-1.0,9.0,-2.0,13.0,2.0,-3.0,13.0,11.0,-9.0,-3.0,0.0
5.0,22.0,7.0,20.0,7.0,2.0,24.0,16.0,17.0,7.0,0.0
13.0,32.0,39.0,19.0,9.0,5.0,23.0,12.0,16.0,2.0,0.0
18.0,39.0,45.0,18.0,6.0,6.0,17.0,7.0,23.0,-1.0,0.0
22.0,32.0,51.0,27.0,11.0,0.0,21.0,19.0,16.0,12.0,0.0
18.0,23.0,61.0,37.0,4.0,-2.0,28.0,12.0,6.0,26.0,0.0
4.0,19.0,81.0,45.0,0.0,3.0,27.0,16.0,5.0,7.0,0.0
2.0,27.0,95.0,53.0,7.0,6.0,13.0,16.0,0.0,-13.0,0.0
15.0,31.0,82.0,59.0,7.0,-1.0,9.0,17.0,4.0,-20.0,0.0
15.0,21.0,47.0,46.0,9.0,-5.0,2.0,17.0,5.0,-14.0,0.0
-6.0,8.0,4.0,24.0,5.0,-11.0,-9.0,16.0,-10.0,-7.0,0.0
-5.0,7.0,-11.0,28.0,-5.0,-8.0,3.0,11.0,-20.0,-19.0,0.0
4.0,16.0,-28.0,23.0,-10.0,-13.0,1.0,10.0,-22.0,-22.0,0.0
-5.0,7.0,-55.0,6.0,0.0,-12.0,-7.0,2.0,-25.0,-23.0,0.0
-15.0,-9.0,-74.0,-5.0,4.0,-3.0,-14.0,3.0,-23.0,-22.0,0.0
-11.0,-9.0,-70.0,1.0,2.0,8.0,-7.0,14.0,-18.0,-5.0,0.0
2.0,-2.0,-50.0,-3.0,7.0,13.0,0.0,21.0,-18.0,4.0,0.0
-2.0,-10.0,-17.0,-4.0,4.0,13.0,-7.0,29.0,-20.0,7.0,0.0
-5.0,-13.0,-12.0,-14.0,7.0,12.0,0.0,21.0,-7.0,19.0,0.0
-3.0,-14.0,-24.0,-14.0,1.0,7.0,16.0,20.0,20.0,44.0,0.0
0.0,-6.0,-25.0,-27.0,3.0,10.0,15.0,17.0,31.0,41.0,0.0
13.0,18.0,-6.0,-44.0,11.0,1.0,2.0,12.0,29.0,18.0,0.0
41.0,75.0,17.0,-47.0,0.0,-13.0,-20.0,1.0,2.0,5.0,0.0
40.0,91.0,26.0,-41.0,3.0,-4.0,-18.0,0.0,-14.0,-2.0,0.0
18.0,60.0,19.0,-35.0,22.0,10.0,-13.0,8.0,-18.0,0.0,0.0
4.0,24.0,10.0,-31.0,31.0,2.0,-8.0,16.0,-5.0,9.0,0.0
3.0,14.0,-10.0,-36.0,25.0,7.0,6.0,17.0,19.0,2.0,0.0
6.0,18.0,-21.0,-35.0,22.0,13.0,6.0,9.0,6.0,0.0,0.0
2.0,23.0,0.0,-17.0,30.0,1.0,-9.0,-2.0,-12.0,-11.0,0.0
7.0,18.0,-7.0,2.0,39.0,-3.0,-31.0,-8.0,-13.0,-16.0,0.0
-6.0,14.0,-24.0,3.0,35.0,-9.0,-32.0,-20.0,11.0,-8.0,0.0
-6.0,0.0,-25.0,-1.0,20.0,-8.0,-22.0,-10.0,12.0,8.0,0.0
3.0,-16.0,-21.0,-7.0,13.0,-7.0,-21.0,-3.0,18.0,25.0,0.0
4.0,-25.0,-5.0,-8.0,22.0,-14.0,-8.0,8.0,25.0,33.0,0.0
-1.0,-15.0,1.0,0.0,26.0,-6.0,-5.0,18.0,24.0,19.0,0.0
4.0,13.0,13.0,5.0,16.0,-1.0,-19.0,18.0,18.0,8.0,0.0
25.0,34.0,33.0,2.0,0.0,-10.0,-22.0,0.0,-8.0,0.0,0.0
9.0,34.0,34.0,-5.0,0.0,-1.0,-12.0,3.0,5.0,-6.0,0.0
-12.0,26.0,31.0,4.0,3.0,-4.0,-5.0,7.0,15.0,-5.0,0.0
-13.0,22.0,43.0,-12.0,4.0,-9.0,-9.0,-5.0,0.0,0.0,0.0
-8.0,22.0,44.0,-21.0,7.0,-13.0,-18.0,0.0,6.0,2.0,0.0
-13.0,4.0,25.0,-22.0,7.0,-18.0,-24.0,2.0,2.0,15.0,0.0
-21.0,-4.0,22.0,-14.0,8.0,-17.0,-25.0,-1.0,2.0,12.0,0.0
-10.0,-15.0,33.0,-15.0,9.0,-29.0,-48.0,-12.0,-21.0,-1.0,0.0
11.0,1.0,41.0,-18.0,5.0,-25.0,-34.0,-16.0,-14.0,13.0,0.0
14.0,3.0,31.0,-18.0,1.0,-8.0,-12.0,-6.0,9.0,12.0,0.0
-4.0,-7.0,5.0,-17.0,1.0,14.0,8.0,12.0,23.0,14.0,0.0
-16.0,-20.0,-17.0,-5.0,3.0,29.0,16.0,9.0,16.0,4.0,0.0
-10.0,-28.0,-16.0,-17.0,7.0,14.0,10.0,0.0,14.0,2.0,0.0
-11.0,-19.0,-28.0,-27.0,5.0,-3.0,7.0,-11.0,0.0,1.0,0.0
1.0,0.0,-35.0,-31.0,0.0,-21.0,-6.0,-13.0,3.0,2.0,0.0
9.0,9.0,-33.0,-40.0,-2.0,-24.0,-11.0,-5.0,16.0,6.0,0.0
4.0,1.0,-23.0,-34.0,-4.0,-23.0,6.0,-13.0,20.0,7.0,0.0
0.0,-5.0,-29.0,-19.0,-5.0,-22.0,3.0,-12.0,1.0,-8.0,0.0
-4.0,-11.0,-28.0,-12.0,-16.0,-15.0,-9.0,-2.0,-13.0,-17.0,0.0
-2.0,-6.0,-15.0,-5.0,-14.0,-5.0,-16.0,-6.0,-14.0,-21.0,0.0
3.0,5.0,2.0,1.0,-12.0,-3.0,-18.0,-7.0,-2.0,-26.0,0.0
-13.0,-3.0,-9.0,3.0,-16.0,-15.0,-23.0,-16.0,-18.0,-23.0,0.0
-33.0,-17.0,-44.0,2.0,-15.0,-32.0,-32.0,-20.0,-27.0,-32.0,0.0
-39.0,-19.0,-46.0,19.0,-14.0,-22.0,-24.0,-30.0,-20.0,-24.0,0.0
-28.0,-13.0,-25.0,32.0,-10.0,-13.0,-12.0,-29.0,-6.0,-9.0,0.0
-26.0,1.0,-4.0,39.0,-9.0,-11.0,-15.0,-27.0,0.0,-16.0,0.0
-8.0,13.0,29.0,45.0,-8.0,-11.0,-25.0,-30.0,-2.0,-17.0,0.0
-3.0,24.0,34.0,44.0,1.0,-5.0,-29.0,-17.0,-17.0,-12.0,0.0
1.0,21.0,43.0,40.0,0.0,-5.0,-18.0,-4.0,-20.0,-11.0,0.0
24.0,32.0,17.0,5.0,-5.0,3.0,-1.0,22.0,-4.0,22.0,0.0
42.0,37.0,-28.0,-21.0,-11.0,11.0,12.0,45.0,19.0,36.0,0.0
37.0,12.0,-41.0,-7.0,0.0,16.0,3.0,28.0,14.0,13.0,0.0
24.0,8.0,-11.0,20.0,0.0,11.0,15.0,20.0,15.0,5.0,0.0
3.0,8.0,-13.0,33.0,6.0,9.0,37.0,24.0,18.0,1.0,0.0
-6.0,6.0,-9.0,27.0,3.0,15.0,34.0,13.0,16.0,6.0,0.0
-10.0,7.0,0.0,21.0,-3.0,16.0,16.0,11.0,7.0,-4.0,0.0
-20.0,-4.0,1.0,13.0,6.0,9.0,19.0,17.0,1.0,-14.0,0.0
-35.0,-10.0,0.0,11.0,8.0,7.0,31.0,16.0,15.0,-16.0,0.0
-20.0,5.0,12.0,21.0,15.0,8.0,32.0,2.0,21.0,-12.0,0.0
-11.0,0.0,27.0,35.0,12.0,11.0,17.0,-7.0,20.0,-5.0,0.0
-8.0,-10.0,26.0,27.0,12.0,10.0,8.0,-1.0,13.0,-6.0,0.0
-10.0,-4.0,19.0,5.0,7.0,2.0,5.0,0.0,9.0,6.0,0.0
-13.0,-1.0,11.0,2.0,13.0,13.0,14.0,-9.0,-3.0,2.0,0.0
-8.0,-6.0,1.0,6.0,21.0,19.0,19.0,-3.0,-13.0,-9.0,0.0
-10.0,7.0,9.0,0.0,8.0,15.0,10.0,-3.0,0.0,-13.0,0.0
15.0,42.0,27.0,26.0,5.0,0.0,-9.0,-5.0,-12.0,-10.0,0.0
26.0,63.0,30.0,47.0,10.0,-14.0,1.0,-5.0,-10.0,-10.0,0.0
21.0,41.0,15.0,42.0,5.0,-5.0,1.0,-5.0,-3.0,-13.0,0.0
14.0,18.0,-6.0,35.0,1.0,12.0,7.0,8.0,7.0,-11.0,0.0
12.0,5.0,-8.0,29.0,1.0,12.0,14.0,16.0,12.0,-2.0,0.0
12.0,4.0,-17.0,15.0,-4.0,20.0,18.0,14.0,16.0,0.0,0.0
7.0,1.0,-21.0,-2.0,-3.0,12.0,8.0,2.0,-1.0,0.0,0.0
6.0,0.0,-39.0,-21.0,-7.0,2.0,0.0,-5.0,-19.0,-8.0,0.0
1.0,-4.0,-50.0,-26.0,-19.0,-2.0,3.0,-13.0,-7.0,-11.0,0.0
7.0,1.0,-38.0,-21.0,-21.0,3.0,5.0,-6.0,-1.0,-16.0,0.0
3.0,-2.0,-14.0,-15.0,-16.0,5.0,0.0,0.0,6.0,-10.0,0.0
9.0,-12.0,-10.0,-8.0,-9.0,5.0,-4.0,2.0,6.0,-7.0,0.0
2.0,-13.0,-14.0,-5.0,-2.0,1.0,-5.0,-5.0,0.0,-6.0,0.0
-17.0,-17.0,-23.0,9.0,1.0,1.0,-23.0,-11.0,-9.0,-8.0,0.0
-28.0,-16.0,-17.0,10.0,-1.0,-5.0,-29.0,-8.0,-10.0,-12.0,0.0
-11.0,-17.0,-2.0,10.0,-3.0,0.0,-14.0,-10.0,3.0,-1.0,0.0
3.0,-4.0,19.0,-1.0,-6.0,11.0,-6.0,0.0,0.0,7.0,0.0
-2.0,1.0,7.0,-11.0,-7.0,11.0,-18.0,7.0,-4.0,15.0,0.0
1.0,0.0,6.0,-17.0,-8.0,5.0,-30.0,0.0,-20.0,3.0,0.0
2.0,10.0,12.0,-19.0,-10.0,0.0,-20.0,-1.0,-18.0,-8.0,0.0
-12.0,0.0,-4.0,-14.0,1.0,3.0,-9.0,-2.0,-16.0,-12.0,0.0
-14.0,1.0,-8.0,-14.0,-9.0,22.0,7.0,0.0,-13.0,-8.0,0.0
-13.0,-8.0,-24.0,-28.0,-21.0,17.0,-4.0,0.0,0.0,2.0,0.0
-9.0,-10.0,-59.0,-56.0,-11.0,7.0,-24.0,-6.0,0.0,8.0,0.0
-23.0,-19.0,-69.0,-57.0,-14.0,9.0,-24.0,-16.0,-11.0,15.0,0.0
-30.0,-7.0,-52.0,-34.0,-19.0,11.0,-16.0,-2.0,6.0,26.0,0.0
1.0,10.0,-43.0,-14.0,-12.0,14.0,-3.0,16.0,27.0,21.0,0.0
38.0,35.0,-18.0,3.0,2.0,20.0,-6.0,15.0,23.0,5.0,0.0
7.0,22.0,-4.0,-6.0,2.0,17.0,-22.0,15.0,6.0,-18.0,0.0
-10.0,-5.0,18.0,-15.0,9.0,19.0,-15.0,22.0,7.0,-11.0,0.0
-2.0,4.0,38.0,-16.0,10.0,30.0,4.0,29.0,25.0,11.0,0.0
3.0,0.0,42.0,-22.0,-4.0,20.0,2.0,30.0,29.0,21.0,0.0
-2.0,-12.0,10.0,-18.0,-4.0,10.0,-3.0,20.0,11.0,17.0,0.0
-7.0,-11.0,-46.0,-4.0,-8.0,3.0,-14.0,2.0,2.0,4.0,0.0
-12.0,-11.0,-44.0,2.0,-4.0,-2.0,-14.0,-6.0,0.0,-11.0,0.0
-13.0,-13.0,-22.0,-5.0,-3.0,1.0,-6.0,-3.0,-15.0,-12.0,0.0
-14.0,-1.0,1.0,-6.0,-8.0,-1.0,-14.0,-4.0,-20.0,1.0,0.0
1.0,15.0,26.0,11.0,-6.0,7.0,-1.0,1.0,-3.0,22.0,0.0
11.0,17.0,33.0,22.0,3.0,10.0,3.0,4.0,3.0,19.0,0.0
2.0,6.0,36.0,38.0,-1.0,3.0,-14.0,10.0,-14.0,11.0,0.0
-5.0,9.0,39.0,44.0,-2.0,9.0,-11.0,12.0,-30.0,3.0,0.0
0.0,21.0,48.0,45.0,-7.0,9.0,-6.0,1.0,-29.0,3.0,0.0
19.0,13.0,29.0,37.0,6.0,3.0,-10.0,0.0,-23.0,4.0,0.0
21.0,3.0,3.0,27.0,1.0,7.0,-12.0,2.0,-4.0,1.0,0.0
20.0,-1.0,-23.0,14.0,-10.0,7.0,-8.0,9.0,-6.0,-1.0,0.0
24.0,2.0,-33.0,6.0,-10.0,-2.0,-10.0,9.0,-16.0,13.0,0.0
23.0,1.0,-27.0,10.0,-5.0,-10.0,-6.0,0.0,-9.0,19.0,0.0
21.0,-3.0,-23.0,10.0,3.0,-14.0,-5.0,-4.0,-10.0,7.0,0.0
8.0,-4.0,-19.0,13.0,3.0,-8.0,-5.0,-9.0,1.0,-12.0,0.0
-8.0,-11.0,-5.0,16.0,0.0,3.0,3.0,-6.0,6.0,-24.0,0.0
-16.0,-17.0,-13.0,16.0,5.0,-4.0,1.0,5.0,10.0,-15.0,0.0
-3.0,-1.0,-18.0,17.0,3.0,-19.0,-12.0,6.0,3.0,-19.0,0.0
11.0,-4.0,-26.0,3.0,0.0,-17.0,-21.0,2.0,-4.0,-14.0,0.0
19.0,-19.0,-24.0,2.0,4.0,-10.0,-15.0,-2.0,-19.0,-16.0,0.0
11.0,-28.0,-28.0,5.0,-2.0,-16.0,-22.0,-11.0,-19.0,-19.0,0.0
-3.0,-33.0,-11.0,0.0,-4.0,-22.0,-18.0,-23.0,-17.0,-30.0,0.0
-4.0,-22.0,10.0,-4.0,4.0,-22.0,-20.0,-26.0,-21.0,-26.0,0.0
-6.0,-8.0,25.0,-3.0,-3.0,-15.0,-22.0,-18.0,-16.0,-21.0,0.0
0.0,1.0,39.0,3.0,4.0,-11.0,-3.0,-12.0,-16.0,-20.0,0.0
10.0,-2.0,45.0,-2.0,8.0,-6.0,7.0,-13.0,-18.0,-12.0,0.0
19.0,-10.0,29.0,-12.0,-2.0,-3.0,5.0,-3.0,-16.0,-10.0,0.0
32.0,10.0,16.0,-9.0,-5.0,4.0,6.0,8.0,-4.0,-13.0,0.0
30.0,21.0,6.0,-5.0,0.0,11.0,2.0,13.0,-6.0,0.0,0.0
18.0,-3.0,-15.0,-10.0,9.0,14.0,0.0,5.0,-15.0,-1.0,0.0
7.0,-17.0,-18.0,-14.0,8.0,4.0,-11.0,-5.0,-21.0,1.0,0.0
