channel0,channel1,channel2,channel3,channel4,channel5,channel6,channel7,channel8,channel9,true_locs
35.0,99.0,79.0,-21.0,-29.0,28.0,326.0,-4.0,106.0,-13.0,0.0
27.0,43.0,44.0,-6.0,5.0,50.0,295.0,12.0,102.0,-3.0,0.0
35.0,24.0,26.0,-17.0,1.0,41.0,260.0,20.0,14.0,-4.0,0.0
40.0,-3.0,26.0,-43.0,-19.0,4.0,238.0,10.0,-137.0,-3.0,0.0
37.0,48.0,26.0,-28.0,-23.0,23.0,271.0,17.0,42.0,-2.0,0.0
47.0,78.0,12.0,-13.0,-25.0,17.0,264.0,16.0,67.0,0.0,0.0
46.0,76.0,-17.0,3.0,-26.0,6.0,256.0,19.0,72.0,5.0,0.0
26.0,-1.0,-32.0,-9.0,-29.0,-13.0,225.0,28.0,-1.0,4.0,0.0
11.0,-78.0,-29.0,-12.0,-16.0,-36.0,183.0,12.0,-88.0,-4.0,0.0
-26.0,-64.0,-31.0,3.0,21.0,22.0,188.0,4.0,128.0,-8.0,0.0
-31.0,-60.0,-47.0,2.0,26.0,29.0,185.0,0.0,124.0,3.0,0.0
-12.0,-106.0,-59.0,-4.0,31.0,-5.0,151.0,0.0,-33.0,0.0,0.0
-12.0,-239.0,-122.0,-81.0,15.0,-79.0,10.0,-9.0,-523.0,-3.0,0.0
-7.0,-159.0,-115.0,-66.0,-1.0,-26.0,55.0,3.0,-202.0,6.0,0.0
17.0,-4.0,-41.0,-13.0,-29.0,2.0,129.0,1.0,90.0,6.0,0.0
42.0,110.0,46.0,11.0,-27.0,1.0,132.0,6.0,98.0,9.0,0.0
43.0,41.0,40.0,15.0,3.0,8.0,67.0,29.0,28.0,33.0,0.0
4.0,-98.0,-17.0,35.0,18.0,5.0,-4.0,23.0,-85.0,30.0,0.0
-32.0,-109.0,-5.0,84.0,19.0,23.0,-2.0,8.0,72.0,2.0,0.0
-13.0,-7.0,3.0,66.0,-3.0,10.0,1.0,-5.0,77.0,-19.0,0.0
2.0,102.0,4.0,37.0,-7.0,18.0,-1.0,10.0,65.0,-16.0,0.0
-26.0,41.0,6.0,58.0,37.0,14.0,-10.0,11.0,37.0,-27.0,0.0
-40.0,-38.0,99.0,56.0,64.0,-22.0,-57.0,-22.0,-168.0,-53.0,0.0
-31.0,-18.0,158.0,132.0,120.0,3.0,-42.0,-34.0,-52.0,-56.0,0.0
0.0,-74.0,84.0,135.0,131.0,34.0,-18.0,-4.0,94.0,-24.0,0.0
8.0,-171.0,-11.0,81.0,127.0,67.0,-9.0,47.0,154.0,4.0,0.0
-3.0,-168.0,5.0,96.0,120.0,56.0,-13.0,36.0,99.0,-10.0,0.0
11.0,0.0,122.0,85.0,63.0,-11.0,-19.0,-6.0,-105.0,-26.0,0.0
42.0,275.0,202.0,55.0,-2.0,-12.0,38.0,-17.0,26.0,-17.0,0.0
61.0,430.0,189.0,-4.0,-85.0,-27.0,41.0,-12.0,86.0,-8.0,0.0
54.0,437.0,108.0,-119.0,-156.0,-38.0,41.0,-15.0,98.0,1.0,0.0
31.0,296.0,36.0,-149.0,-152.0,-31.0,24.0,-7.0,71.0,7.0,0.0
15.0,127.0,-23.0,-127.0,-102.0,-48.0,-29.0,-11.0,-108.0,4.0,0.0
17.0,100.0,-72.0,-103.0,-44.0,-12.0,-13.0,0.0,50.0,14.0,0.0
-1.0,63.0,-76.0,-52.0,17.0,37.0,-28.0,18.0,101.0,23.0,0.0
5.0,49.0,-19.0,7.0,51.0,31.0,-33.0,0.0,72.0,15.0,0.0
7.0,23.0,13.0,42.0,48.0,25.0,-60.0,-24.0,17.0,0.0,0.0
-20.0,-24.0,22.0,7.0,33.0,-8.0,-86.0,-42.0,-155.0,-29.0,0.0
-38.0,13.0,52.0,3.0,10.0,-11.0,-31.0,-58.0,-9.0,-50.0,0.0
-31.0,-3.0,75.0,-11.0,-40.0,-26.0,-3.0,-51.0,7.0,-49.0,0.0
-25.0,-25.0,102.0,-33.0,-99.0,-57.0,6.0,-22.0,-100.0,-37.0,0.0
-28.0,-32.0,144.0,-2.0,-110.0,-87.0,14.0,-22.0,-241.0,-20.0,0.0
0.0,-9.0,122.0,45.0,-54.0,-58.0,38.0,-23.0,-159.0,-19.0,0.0
24.0,26.0,4.0,80.0,10.0,11.0,89.0,-3.0,72.0,1.0,0.0
35.0,4.0,-170.0,50.0,64.0,52.0,111.0,23.0,117.0,31.0,0.0
9.0,-21.0,-202.0,19.0,75.0,42.0,124.0,28.0,102.0,22.0,0.0
-19.0,-56.0,-222.0,29.0,60.0,5.0,102.0,8.0,-14.0,-6.0,0.0
-19.0,-92.0,-126.0,6.0,46.0,-24.0,72.0,-4.0,-164.0,-14.0,0.0
2.0,-37.0,-101.0,0.0,33.0,17.0,148.0,17.0,38.0,10.0,0.0
0.0,-35.0,-161.0,-42.0,4.0,29.0,176.0,33.0,80.0,18.0,0.0
-21.0,-53.0,-152.0,-81.0,-17.0,26.0,174.0,31.0,78.0,18.0,0.0
-9.0,-73.0,-105.0,-83.0,-39.0,0.0,173.0,12.0,-22.0,16.0,0.0
-9.0,-82.0,-55.0,-85.0,-39.0,-22.0,135.0,6.0,-141.0,16.0,0.0
-8.0,-40.0,-21.0,-60.0,-11.0,13.0,160.0,26.0,42.0,23.0,0.0
-4.0,-26.0,-34.0,-41.0,12.0,41.0,167.0,19.0,68.0,15.0,0.0
-14.0,-23.0,-30.0,-45.0,15.0,39.0,173.0,6.0,60.0,2.0,0.0
-1.0,-40.0,-7.0,-62.0,-5.0,3.0,187.0,-6.0,-51.0,-1.0,0.0
14.0,-50.0,14.0,-46.0,-15.0,-11.0,194.0,-12.0,-110.0,-6.0,0.0
19.0,11.0,28.0,9.0,5.0,18.0,227.0,-15.0,75.0,-2.0,0.0
25.0,17.0,25.0,9.0,-16.0,40.0,230.0,-2.0,106.0,17.0,0.0
34.0,8.0,-9.0,-31.0,-51.0,41.0,235.0,17.0,125.0,35.0,0.0
28.0,-33.0,-26.0,-60.0,-52.0,3.0,220.0,12.0,-14.0,29.0,0.0
30.0,-34.0,-31.0,-31.0,-31.0,-21.0,201.0,-2.0,-84.0,16.0,0.0
16.0,8.0,-48.0,5.0,-17.0,0.0,213.0,2.0,83.0,17.0,0.0
14.0,-17.0,-37.0,-17.0,-19.0,2.0,179.0,9.0,102.0,16.0,0.0
14.0,-44.0,-86.0,-34.0,-15.0,9.0,159.0,5.0,108.0,16.0,0.0
10.0,-18.0,-9.0,-14.0,-3.0,10.0,150.0,1.0,112.0,22.0,0.0
14.0,3.0,32.0,1.0,6.0,12.0,116.0,9.0,92.0,23.0,0.0
8.0,0.0,38.0,11.0,13.0,14.0,85.0,3.0,65.0,12.0,0.0
-8.0,-6.0,29.0,-5.0,-5.0,14.0,77.0,-11.0,58.0,2.0,0.0
-8.0,-6.0,2.0,-1.0,-18.0,6.0,66.0,-8.0,57.0,-1.0,0.0
-9.0,-43.0,-61.0,7.0,-19.0,-9.0,35.0,-7.0,4.0,12.0,0.0
-16.0,-97.0,-135.0,-10.0,-25.0,-15.0,-4.0,0.0,-164.0,17.0,0.0
-20.0,-78.0,-127.0,14.0,13.0,24.0,11.0,1.0,2.0,12.0,0.0
-14.0,-74.0,-27.0,25.0,48.0,18.0,13.0,-17.0,24.0,0.0,0.0
-16.0,-83.0,-2.0,77.0,87.0,12.0,7.0,-28.0,-2.0,-4.0,0.0
-14.0,-94.0,-31.0,112.0,84.0,-13.0,-11.0,-28.0,-91.0,-17.0,0.0
-22.0,-72.0,22.0,72.0,57.0,-27.0,-36.0,-26.0,-216.0,-33.0,0.0
-5.0,-9.0,66.0,17.0,69.0,0.0,-54.0,-3.0,-117.0,-15.0,0.0
13.0,24.0,65.0,-80.0,53.0,16.0,-69.0,8.0,-31.0,-2.0,0.0
7.0,60.0,49.0,-114.0,2.0,43.0,-52.0,26.0,96.0,-14.0,0.0
4.0,41.0,-11.0,-92.0,-30.0,25.0,-70.0,31.0,-8.0,-23.0,0.0
31.0,33.0,-50.0,-86.0,-65.0,0.0,-110.0,31.0,-135.0,-10.0,0.0
41.0,79.0,28.0,-40.0,-79.0,16.0,-83.0,30.0,31.0,12.0,0.0
15.0,38.0,-15.0,29.0,-22.0,16.0,-91.0,5.0,3.0,-3.0,0.0
2.0,-2.0,51.0,71.0,11.0,7.0,-113.0,0.0,-26.0,-10.0,0.0
-2.0,-33.0,76.0,47.0,16.0,-5.0,-156.0,-6.0,-121.0,-14.0,0.0
9.0,-29.0,49.0,20.0,34.0,-7.0,-186.0,-17.0,-188.0,-10.0,0.0
8.0,22.0,69.0,61.0,56.0,11.0,-140.0,-12.0,26.0,-8.0,0.0
0.0,28.0,133.0,82.0,49.0,-8.0,-134.0,-7.0,61.0,-2.0,0.0
-2.0,38.0,156.0,64.0,36.0,-9.0,-155.0,-19.0,61.0,0.0,0.0
-13.0,7.0,154.0,39.0,26.0,4.0,-194.0,-22.0,-57.0,-11.0,0.0
-19.0,-20.0,148.0,52.0,60.0,20.0,-207.0,-6.0,-87.0,-19.0,0.0
-10.0,1.0,61.0,94.0,86.0,37.0,-167.0,-3.0,81.0,-14.0,0.0
-18.0,-10.0,-69.0,79.0,85.0,12.0,-145.0,-18.0,67.0,-20.0,0.0
-28.0,-32.0,-149.0,38.0,60.0,-6.0,-152.0,-17.0,64.0,3.0,0.0
-14.0,-74.0,-228.0,0.0,35.0,-22.0,-184.0,11.0,-48.0,32.0,0.0
-10.0,-107.0,-233.0,-41.0,52.0,37.0,-179.0,52.0,-46.0,59.0,0.0
-14.0,-93.0,-177.0,-26.0,86.0,75.0,-148.0,71.0,135.0,63.0,0.0
-33.0,-112.0,-124.0,2.0,47.0,43.0,-169.0,62.0,146.0,44.0,0.0
-23.0,-41.0,-49.0,-15.0,-37.0,16.0,-178.0,33.0,131.0,18.0,1.0
-38.0,40.0,49.0,15.0,-60.0,-6.0,-218.0,-16.0,-67.0,-24.0,1.0
-53.0,45.0,108.0,136.0,17.0,21.0,-271.0,-39.0,-135.0,-44.0,1.0
-28.0,-6.0,66.0,105.0,62.0,33.0,-280.0,-14.0,-163.0,-23.0,1.0
-4.0,0.0,-50.0,17.0,79.0,42.0,-224.0,6.0,10.0,8.0,1.0
7.0,-18.0,-148.0,16.0,52.0,19.0,-191.0,8.0,97.0,8.0,1.0
14.0,-91.0,-150.0,106.0,43.0,2.0,-213.0,2.0,-64.0,-9.0,1.0
12.0,-88.0,-109.0,161.0,43.0,23.0,-221.0,-13.0,-52.0,-8.0,1.0
23.0,0.0,63.0,-98.0,-98.0,-43.0,-235.0,-14.0,-102.0,-38.0,1.0
24.0,175.0,104.0,-222.0,-183.0,-63.0,-208.0,-25.0,-26.0,-32.0,1.0
27.0,172.0,101.0,-263.0,-238.0,-86.0,-232.0,-26.0,-180.0,-12.0,1.0
21.0,34.0,82.0,-255.0,-238.0,-111.0,-338.0,-17.0,-495.0,2.0,1.0
20.0,100.0,99.0,-123.0,-159.0,-22.0,-225.0,9.0,-13.0,0.0,1.0
14.0,100.0,85.0,-44.0,-84.0,11.0,-186.0,12.0,103.0,-15.0,1.0
-1.0,78.0,67.0,-31.0,-36.0,28.0,-192.0,15.0,89.0,6.0,1.0
-4.0,33.0,128.0,-48.0,-14.0,25.0,-232.0,-2.0,-60.0,22.0,1.0
-24.0,44.0,172.0,-32.0,7.0,18.0,-209.0,-10.0,-29.0,2.0,1.0
1.0,82.0,115.0,190.0,46.0,60.0,-196.0,-2.0,143.0,3.0,1.0
2.0,55.0,14.0,200.0,31.0,40.0,-226.0,-11.0,142.0,12.0,0.0
-16.0,-66.0,-131.0,93.0,-12.0,-14.0,-299.0,-11.0,-145.0,3.0,0.0
-38.0,-215.0,-126.0,-33.0,-32.0,-73.0,-443.0,-25.0,-630.0,-18.0,0.0
-36.0,-115.0,-139.0,14.0,36.0,12.0,-299.0,-5.0,-32.0,1.0,0.0
-32.0,-109.0,-121.0,-35.0,45.0,8.0,-232.0,-3.0,142.0,15.0,0.0
-28.0,-104.0,-58.0,-5.0,26.0,-9.0,-221.0,-18.0,129.0,8.0,0.0
-22.0,-100.0,-1.0,60.0,24.0,-30.0,-236.0,-45.0,-51.0,-16.0,0.0
-28.0,-106.0,19.0,44.0,27.0,-6.0,-193.0,-33.0,-30.0,-28.0,0.0
-20.0,-118.0,11.0,-31.0,7.0,18.0,-171.0,-10.0,97.0,-22.0,0.0
-3.0,-86.0,22.0,-105.0,-12.0,1.0,-181.0,2.0,105.0,2.0,0.0
24.0,77.0,62.0,-185.0,-10.0,-9.0,-178.0,23.0,116.0,23.0,0.0
18.0,165.0,41.0,-176.0,1.0,-8.0,-213.0,33.0,-15.0,26.0,0.0
3.0,125.0,5.0,-124.0,-12.0,11.0,-198.0,51.0,51.0,39.0,0.0
4.0,84.0,0.0,-68.0,8.0,34.0,-158.0,54.0,157.0,39.0,0.0
-2.0,43.0,-25.0,19.0,72.0,64.0,-157.0,51.0,163.0,21.0,0.0
0.0,7.0,-92.0,46.0,96.0,70.0,-177.0,53.0,191.0,23.0,0.0
3.0,-34.0,-133.0,80.0,83.0,65.0,-232.0,53.0,121.0,30.0,0.0
-17.0,-96.0,-89.0,94.0,48.0,30.0,-254.0,34.0,-33.0,17.0,0.0
-50.0,-112.0,9.0,100.0,34.0,44.0,-188.0,21.0,102.0,0.0,0.0
-47.0,-131.0,-3.0,27.0,36.0,44.0,-144.0,19.0,111.0,3.0,0.0
-31.0,-161.0,-74.0,-120.0,3.0,46.0,-126.0,27.0,111.0,15.0,0.0
0.0,-194.0,-108.0,-206.0,-31.0,22.0,-106.0,40.0,-3.0,40.0,0.0
34.0,-141.0,-59.0,-97.0,-6.0,-34.0,-115.0,16.0,-109.0,35.0,0.0
58.0,93.0,69.0,77.0,12.0,-32.0,-70.0,-34.0,14.0,4.0,0.0
58.0,282.0,122.0,115.0,-68.0,-42.0,-51.0,-36.0,30.0,-4.0,0.0
20.0,264.0,105.0,151.0,-63.0,-43.0,-67.0,-26.0,34.0,-10.0,0.0
-26.0,138.0,90.0,158.0,-26.0,-42.0,-94.0,-40.0,30.0,-25.0,0.0
-14.0,68.0,148.0,180.0,-23.0,-42.0,-93.0,-42.0,37.0,-17.0,0.0
13.0,33.0,207.0,233.0,-4.0,-28.0,-51.0,-6.0,56.0,13.0,0.0
21.0,-21.0,135.0,92.0,3.0,-9.0,-17.0,17.0,67.0,31.0,0.0
7.0,-55.0,-34.0,-89.0,2.0,5.0,-25.0,10.0,52.0,34.0,0.0
5.0,-83.0,-92.0,-201.0,-35.0,-9.0,-59.0,3.0,-85.0,42.0,0.0
32.0,-28.0,-114.0,-203.0,-54.0,-12.0,-52.0,20.0,-57.0,67.0,0.0
33.0,59.0,-130.0,-128.0,4.0,2.0,-31.0,7.0,78.0,48.0,0.0
-7.0,113.0,-95.0,-47.0,97.0,-5.0,-31.0,-29.0,45.0,-2.0,0.0
-19.0,226.0,51.0,32.0,147.0,-1.0,1.0,-40.0,45.0,-18.0,0.0
-14.0,163.0,101.0,189.0,175.0,24.0,4.0,-35.0,-98.0,-11.0,0.0
-7.0,103.0,174.0,472.0,183.0,41.0,20.0,-45.0,-98.0,-17.0,0.0
-17.0,135.0,258.0,588.0,163.0,47.0,36.0,-52.0,34.0,-31.0,0.0
-17.0,111.0,227.0,452.0,93.0,32.0,31.0,-47.0,35.0,-27.0,0.0
-1.0,67.0,147.0,153.0,-50.0,17.0,41.0,-6.0,38.0,-9.0,0.0
6.0,-30.0,53.0,-149.0,-215.0,-51.0,-1.0,10.0,-130.0,2.0,0.0
-3.0,-58.0,16.0,-270.0,-241.0,-79.0,9.0,0.0,-89.0,3.0,0.0
-12.0,-38.0,-25.0,-256.0,-184.0,-39.0,45.0,7.0,47.0,14.0,0.0
5.0,-58.0,-164.0,-228.0,-132.0,-4.0,50.0,35.0,72.0,28.0,0.0
20.0,-101.0,-252.0,-199.0,-62.0,12.0,39.0,41.0,74.0,37.0,0.0
3.0,-191.0,-202.0,-150.0,-25.0,-21.0,-27.0,16.0,-106.0,28.0,0.0
-12.0,-161.0,-83.0,-77.0,0.0,-36.0,-44.0,-4.0,-61.0,6.0,0.0
-18.0,160.0,71.0,-24.0,54.0,-5.0,-44.0,-8.0,17.0,-5.0,0.0
-23.0,108.0,22.0,-21.0,71.0,17.0,-47.0,11.0,-9.0,-12.0,0.0
-30.0,-61.0,-38.0,-71.0,45.0,-37.0,-108.0,-5.0,-381.0,-24.0,0.0
-26.0,-125.0,-35.0,-102.0,0.0,-69.0,-146.0,8.0,-536.0,5.0,0.0
-3.0,-24.0,-42.0,-50.0,-33.0,16.0,-18.0,48.0,60.0,49.0,0.0
-3.0,-21.0,-67.0,-25.0,-21.0,45.0,-13.0,59.0,145.0,47.0,0.0
2.0,-50.0,6.0,13.0,19.0,34.0,-47.0,44.0,130.0,23.0,0.0
11.0,-102.0,14.0,7.0,45.0,3.0,-89.0,25.0,-43.0,1.0,0.0
24.0,-95.0,7.0,10.0,41.0,22.0,-43.0,19.0,41.0,18.0,0.0
10.0,-99.0,-17.0,1.0,9.0,37.0,-6.0,23.0,125.0,31.0,0.0
4.0,-117.0,-58.0,-36.0,-22.0,17.0,-28.0,18.0,104.0,23.0,0.0
22.0,-128.0,-34.0,-17.0,-22.0,-2.0,-52.0,14.0,69.0,31.0,0.0
38.0,-31.0,93.0,34.0,-13.0,-8.0,-55.0,-2.0,43.0,23.0,0.0
44.0,164.0,188.0,72.0,-6.0,-18.0,-64.0,-6.0,48.0,7.0,0.0
38.0,184.0,178.0,107.0,4.0,-34.0,-83.0,-4.0,50.0,6.0,0.0
16.0,127.0,143.0,118.0,15.0,-41.0,-119.0,-18.0,30.0,0.0,0.0
2.0,100.0,106.0,86.0,21.0,-33.0,-139.0,-23.0,5.0,-11.0,0.0
-10.0,28.0,13.0,11.0,16.0,-27.0,-154.0,-21.0,-123.0,-24.0,0.0
-4.0,-22.0,-103.0,-46.0,-12.0,-16.0,-121.0,-18.0,-137.0,-6.0,0.0
18.0,-23.0,-149.0,-36.0,-23.0,23.0,-56.0,10.0,33.0,39.0,0.0
29.0,-34.0,-112.0,-46.0,-32.0,18.0,-29.0,15.0,45.0,42.0,0.0
23.0,2.0,-63.0,-44.0,-39.0,12.0,-17.0,5.0,51.0,24.0,0.0
12.0,3.0,0.0,-22.0,-24.0,-9.0,-9.0,-20.0,-107.0,12.0,0.0
-1.0,29.0,29.0,19.0,0.0,-8.0,24.0,-41.0,-123.0,0.0,0.0
-8.0,70.0,56.0,79.0,39.0,24.0,56.0,-34.0,20.0,-17.0,0.0
16.0,31.0,36.0,77.0,44.0,19.0,56.0,-12.0,33.0,-7.0,0.0
22.0,6.0,-2.0,17.0,18.0,0.0,48.0,-1.0,37.0,18.0,0.0
32.0,-41.0,-34.0,-28.0,13.0,-26.0,13.0,-1.0,-90.0,12.0,0.0
58.0,-32.0,-62.0,-39.0,-2.0,-24.0,51.0,-1.0,-36.0,25.0,0.0
65.0,16.0,-79.0,-4.0,-7.0,-10.0,81.0,12.0,64.0,28.0,0.0
42.0,25.0,-72.0,14.0,-4.0,-10.0,70.0,7.0,44.0,21.0,0.0
13.0,24.0,-137.0,23.0,12.0,-21.0,65.0,4.0,29.0,12.0,0.0
-3.0,-28.0,-70.0,8.0,3.0,-46.0,28.0,1.0,-132.0,-4.0,0.0
-4.0,-32.0,24.0,4.0,-3.0,-26.0,35.0,-3.0,-67.0,-17.0,0.0
6.0,-24.0,64.0,17.0,5.0,-1.0,76.0,-13.0,48.0,-15.0,0.0
7.0,-16.0,5.0,29.0,18.0,16.0,93.0,-5.0,40.0,-10.0,0.0
1.0,-25.0,-85.0,31.0,30.0,25.0,89.0,7.0,36.0,-10.0,0.0
4.0,-71.0,-24.0,-16.0,-3.0,-12.0,62.0,12.0,-105.0,-7.0,0.0
19.0,-34.0,15.0,-9.0,-27.0,-10.0,94.0,17.0,33.0,14.0,0.0
15.0,-23.0,-52.0,3.0,-13.0,22.0,119.0,37.0,170.0,27.0,0.0
21.0,-19.0,-162.0,-27.0,10.0,63.0,131.0,61.0,180.0,42.0,0.0
25.0,-14.0,-64.0,-34.0,-3.0,45.0,118.0,53.0,133.0,29.0,0.0
29.0,-9.0,22.0,-24.0,-16.0,-26.0,65.0,6.0,-99.0,13.0,0.0
22.0,44.0,59.0,26.0,-5.0,-30.0,65.0,-12.0,-2.0,12.0,0.0
21.0,62.0,55.0,47.0,4.0,-19.0,73.0,0.0,89.0,9.0,0.0
20.0,34.0,12.0,31.0,0.0,5.0,48.0,4.0,98.0,-4.0,0.0
13.0,2.0,24.0,0.0,0.0,18.0,30.0,15.0,53.0,1.0,0.0
15.0,-35.0,15.0,-32.0,-5.0,-4.0,-27.0,31.0,-129.0,1.0,0.0
21.0,-11.0,36.0,6.0,-5.0,12.0,-32.0,33.0,16.0,13.0,0.0
31.0,-1.0,56.0,19.0,-5.0,12.0,-34.0,17.0,75.0,17.0,0.0
23.0,-8.0,59.0,37.0,1.0,10.0,-32.0,15.0,95.0,12.0,0.0
9.0,-37.0,29.0,45.0,-4.0,5.0,-34.0,5.0,54.0,16.0,0.0
14.0,-71.0,-7.0,29.0,-5.0,-8.0,-56.0,-7.0,-156.0,18.0,0.0
37.0,-38.0,-19.0,55.0,7.0,22.0,-16.0,4.0,3.0,29.0,0.0
15.0,-46.0,-15.0,49.0,9.0,24.0,19.0,28.0,92.0,38.0,0.0
-18.0,-24.0,-5.0,38.0,17.0,20.0,23.0,41.0,100.0,27.0,0.0
-33.0,68.0,28.0,51.0,26.0,26.0,19.0,26.0,71.0,2.0,0.0
-56.0,60.0,86.0,32.0,12.0,8.0,10.0,3.0,-129.0,-20.0,0.0
-58.0,16.0,136.0,41.0,16.0,-5.0,18.0,-6.0,-137.0,-15.0,0.0
-55.0,0.0,123.0,64.0,29.0,10.0,50.0,-1.0,22.0,-8.0,0.0
-57.0,-30.0,116.0,91.0,43.0,14.0,57.0,-8.0,28.0,-10.0,0.0
-63.0,-73.0,182.0,114.0,50.0,13.0,59.0,-18.0,-3.0,-10.0,0.0
-54.0,-113.0,148.0,89.0,61.0,-12.0,33.0,-30.0,-180.0,1.0,0.0
-35.0,16.0,117.0,83.0,76.0,-6.0,21.0,-54.0,-141.0,4.0,0.0
-24.0,144.0,89.0,83.0,81.0,6.0,47.0,-42.0,0.0,20.0,0.0
-15.0,86.0,3.0,50.0,72.0,22.0,64.0,-24.0,27.0,50.0,0.0
-18.0,28.0,-90.0,-10.0,27.0,41.0,62.0,0.0,54.0,66.0,0.0
3.0,-35.0,-157.0,-101.0,-35.0,6.0,43.0,13.0,-84.0,79.0,0.0
24.0,-15.0,-224.0,-92.0,-37.0,3.0,89.0,14.0,1.0,91.0,0.0
14.0,-14.0,-230.0,-73.0,-41.0,10.0,121.0,11.0,90.0,94.0,0.0
26.0,-28.0,-159.0,-93.0,-67.0,-2.0,128.0,16.0,45.0,97.0,0.0
26.0,-48.0,-165.0,-71.0,-30.0,-2.0,110.0,21.0,0.0,92.0,0.0
-6.0,-104.0,-172.0,-54.0,10.0,-15.0,73.0,11.0,-155.0,83.0,0.0
-25.0,-89.0,-142.0,-30.0,34.0,6.0,121.0,11.0,-17.0,72.0,0.0
-29.0,-92.0,-130.0,-8.0,21.0,14.0,152.0,16.0,95.0,75.0,0.0
-8.0,-109.0,-135.0,-1.0,2.0,7.0,164.0,14.0,92.0,73.0,0.0
0.0,-52.0,-174.0,-28.0,-11.0,7.0,168.0,20.0,68.0,77.0,0.0
15.0,33.0,-79.0,-89.0,-56.0,-36.0,129.0,9.0,-107.0,73.0,0.0
14.0,78.0,8.0,-71.0,-65.0,-35.0,138.0,-12.0,5.0,61.0,0.0
7.0,84.0,101.0,-59.0,-71.0,-33.0,132.0,-23.0,48.0,45.0,0.0
35.0,98.0,215.0,-70.0,-62.0,-37.0,111.0,-33.0,11.0,40.0,0.0
37.0,8.0,163.0,-71.0,-49.0,-40.0,65.0,-16.0,-21.0,66.0,0.0
13.0,-105.0,88.0,-71.0,-58.0,-76.0,-3.0,-20.0,-181.0,30.0,0.0
13.0,47.0,91.0,-18.0,-59.0,-56.0,0.0,-35.0,-25.0,10.0,0.0
24.0,265.0,86.0,29.0,-33.0,-17.0,14.0,-40.0,49.0,20.0,0.0
9.0,262.0,44.0,34.0,-2.0,24.0,19.0,-27.0,58.0,11.0,0.0
-7.0,119.0,0.0,12.0,-2.0,32.0,31.0,-2.0,31.0,26.0,0.0
-17.0,10.0,-20.0,-52.0,-46.0,-4.0,6.0,-3.0,-110.0,31.0,0.0
-1.0,37.0,-1.0,-58.0,-76.0,-10.0,59.0,-17.0,75.0,26.0,0.0
0.0,28.0,-20.0,-55.0,-76.0,-13.0,55.0,-24.0,118.0,0.0,0.0
-21.0,-27.0,-1.0,-6.0,-56.0,-3.0,61.0,-22.0,87.0,-18.0,0.0
-43.0,-117.0,-21.0,0.0,-14.0,-1.0,46.0,-15.0,3.0,-19.0,0.0
-53.0,-166.0,-23.0,-22.0,39.0,-25.0,28.0,-23.0,-160.0,-27.0,0.0
-39.0,14.0,60.0,30.0,98.0,-20.0,64.0,-38.0,-5.0,-25.0,0.0
-32.0,189.0,116.0,100.0,142.0,-10.0,64.0,-50.0,12.0,-21.0,0.0
-33.0,141.0,68.0,157.0,150.0,0.0,78.0,-22.0,34.0,-8.0,0.0
-37.0,36.0,9.0,163.0,115.0,17.0,77.0,-7.0,29.0,-9.0,0.0
-31.0,-51.0,-11.0,92.0,54.0,6.0,56.0,-20.0,-156.0,-18.0,0.0
-16.0,-74.0,4.0,36.0,-29.0,-27.0,80.0,-31.0,-97.0,-28.0,0.0
12.0,-40.0,-1.0,-32.0,-105.0,-62.0,126.0,-29.0,17.0,-20.0,0.0
21.0,-48.0,-24.0,-69.0,-97.0,-58.0,155.0,-13.0,45.0,-8.0,0.0
-6.0,-69.0,-42.0,-47.0,-53.0,-13.0,169.0,-14.0,51.0,-13.0,0.0
-24.0,-123.0,-71.0,-39.0,-23.0,-14.0,149.0,-19.0,-117.0,-28.0,0.0
-27.0,-78.0,-49.0,-23.0,-15.0,12.0,188.0,-13.0,-20.0,-33.0,0.0
-3.0,64.0,22.0,-27.0,-22.0,25.0,209.0,-3.0,54.0,-30.0,0.0
23.0,155.0,55.0,-37.0,-39.0,2.0,228.0,7.0,29.0,-25.0,0.0
23.0,94.0,44.0,-13.0,-49.0,-28.0,239.0,0.0,4.0,-12.0,0.0
12.0,-10.0,31.0,35.0,-44.0,-47.0,223.0,5.0,-131.0,-3.0,0.0
20.0,12.0,31.0,80.0,-12.0,-10.0,245.0,19.0,39.0,-3.0,0.0
11.0,30.0,7.0,44.0,-2.0,18.0,247.0,28.0,128.0,-6.0,0.0
0.0,20.0,11.0,18.0,0.0,24.0,233.0,39.0,127.0,-3.0,0.0
6.0,-11.0,15.0,-4.0,-1.0,9.0,195.0,30.0,62.0,-5.0,0.0
10.0,-59.0,-42.0,-59.0,-3.0,-14.0,141.0,19.0,-155.0,-14.0,0.0
9.0,-30.0,-19.0,-32.0,7.0,6.0,144.0,15.0,-20.0,-14.0,0.0
17.0,-10.0,19.0,0.0,-4.0,14.0,165.0,2.0,59.0,-12.0,0.0
19.0,3.0,6.0,-5.0,-3.0,10.0,169.0,6.0,74.0,6.0,0.0
12.0,-39.0,-13.0,-18.0,1.0,10.0,159.0,10.0,30.0,12.0,0.0
10.0,-97.0,-54.0,-41.0,1.0,-11.0,137.0,8.0,-142.0,21.0,0.0
5.0,-77.0,-53.0,-11.0,7.0,7.0,178.0,20.0,22.0,26.0,0.0
-9.0,-95.0,-35.0,-2.0,17.0,16.0,212.0,21.0,64.0,21.0,0.0
-12.0,-138.0,-41.0,2.0,39.0,14.0,228.0,28.0,57.0,9.0,0.0
-24.0,-226.0,-85.0,-3.0,38.0,15.0,214.0,31.0,0.0,14.0,0.0
-17.0,-289.0,-116.0,-41.0,22.0,-2.0,187.0,23.0,-132.0,19.0,0.0
9.0,-138.0,-81.0,-41.0,4.0,-1.0,230.0,-5.0,6.0,11.0,0.0
9.0,18.0,-52.0,-31.0,1.0,-8.0,250.0,-15.0,26.0,-2.0,0.0
-6.0,-20.0,-80.0,-24.0,18.0,12.0,248.0,12.0,60.0,2.0,0.0
-13.0,-80.0,-86.0,8.0,23.0,14.0,227.0,5.0,-17.0,-19.0,0.0
-32.0,-54.0,-38.0,45.0,56.0,-1.0,201.0,-21.0,-139.0,-53.0,0.0
-57.0,5.0,1.0,83.0,94.0,20.0,235.0,-15.0,47.0,-61.0,0.0
-46.0,123.0,66.0,80.0,74.0,5.0,221.0,-24.0,83.0,-53.0,0.0
-2.0,185.0,96.0,119.0,55.0,-4.0,216.0,-23.0,89.0,-44.0,0.0
0.0,104.0,58.0,134.0,65.0,-25.0,175.0,-51.0,-32.0,-53.0,0.0
-17.0,40.0,39.0,112.0,52.0,-63.0,117.0,-72.0,-164.0,-66.0,0.0
-19.0,49.0,91.0,199.0,42.0,-43.0,115.0,-73.0,9.0,-58.0,0.0
-21.0,-2.0,47.0,167.0,33.0,-21.0,105.0,-57.0,31.0,-53.0,0.0
-16.0,-42.0,-43.0,58.0,30.0,2.0,98.0,-18.0,32.0,-33.0,0.0
27.0,67.0,62.0,-51.0,-49.0,-1.0,103.0,-6.0,42.0,-7.0,0.0
38.0,271.0,164.0,-156.0,-131.0,-7.0,112.0,-12.0,61.0,11.0,0.0
39.0,317.0,212.0,-206.0,-126.0,-11.0,106.0,-7.0,63.0,12.0,0.0
40.0,214.0,172.0,-196.0,-80.0,-2.0,99.0,22.0,65.0,22.0,0.0
25.0,103.0,96.0,-113.0,-29.0,11.0,117.0,31.0,80.0,19.0,0.0
18.0,55.0,48.0,-52.0,-13.0,-6.0,124.0,17.0,38.0,12.0,0.0
17.0,0.0,3.0,-65.0,-29.0,-27.0,88.0,5.0,-173.0,1.0,0.0
4.0,10.0,-17.0,-29.0,-12.0,-1.0,102.0,5.0,-20.0,0.0,0.0
-2.0,19.0,-4.0,-18.0,-3.0,-4.0,98.0,-3.0,58.0,-7.0,0.0
4.0,16.0,-6.0,-18.0,10.0,7.0,86.0,-7.0,45.0,-9.0,0.0
13.0,-12.0,-18.0,-25.0,0.0,19.0,33.0,-7.0,-16.0,9.0,0.0
7.0,-58.0,-25.0,-54.0,-14.0,-9.0,-41.0,-16.0,-186.0,1.0,0.0
0.0,-16.0,-29.0,-32.0,-1.0,24.0,-29.0,0.0,-12.0,3.0,0.0
0.0,-8.0,6.0,-43.0,-1.0,23.0,-13.0,-1.0,33.0,-4.0,0.0
-4.0,-3.0,42.0,-54.0,-4.0,15.0,-9.0,-11.0,43.0,-13.0,0.0
-25.0,-16.0,50.0,9.0,-10.0,5.0,-14.0,-12.0,-25.0,-9.0,0.0
-34.0,-49.0,73.0,86.0,8.0,-21.0,-49.0,-12.0,-195.0,-18.0,0.0
-19.0,-25.0,79.0,162.0,25.0,0.0,-20.0,-11.0,-15.0,-15.0,0.0
-9.0,-21.0,39.0,137.0,10.0,0.0,-13.0,-7.0,31.0,-15.0,0.0
1.0,-29.0,-6.0,37.0,3.0,2.0,-28.0,-3.0,36.0,-5.0,0.0
-13.0,-78.0,-61.0,-51.0,18.0,-8.0,-67.0,-13.0,-55.0,-11.0,0.0
-47.0,-149.0,-118.0,-144.0,42.0,-26.0,-110.0,-20.0,-190.0,-29.0,0.0
-67.0,-140.0,-78.0,-112.0,51.0,4.0,-110.0,-18.0,-14.0,-43.0,0.0
-74.0,-126.0,-23.0,-40.0,49.0,16.0,-123.0,-18.0,12.0,-43.0,0.0
-57.0,-102.0,6.0,-22.0,26.0,1.0,-106.0,-15.0,9.0,-23.0,0.0
-39.0,-91.0,25.0,3.0,1.0,-25.0,-125.0,-23.0,-86.0,-42.0,0.0
-39.0,-121.0,26.0,29.0,14.0,-26.0,-160.0,-15.0,-161.0,-51.0,0.0
-41.0,-131.0,3.0,43.0,33.0,16.0,-153.0,9.0,18.0,-15.0,0.0
18.0,-126.0,-61.0,11.0,38.0,37.0,-137.0,38.0,61.0,34.0,0.0
95.0,-1.0,-102.0,-38.0,37.0,59.0,-118.0,61.0,83.0,66.0,0.0
82.0,108.0,-61.0,-83.0,6.0,54.0,-146.0,60.0,-39.0,64.0,0.0
36.0,82.0,-37.0,-90.0,-15.0,42.0,-174.0,50.0,-104.0,42.0,0.0
9.0,124.0,39.0,-25.0,-18.0,1.0,-211.0,30.0,41.0,8.0,0.0
-7.0,114.0,7.0,-30.0,-6.0,-14.0,-248.0,13.0,42.0,-2.0,0.0
-37.0,57.0,-89.0,23.0,12.0,-60.0,-287.0,-24.0,-158.0,-37.0,0.0
-44.0,-98.0,-127.0,39.0,-16.0,-161.0,-433.0,-67.0,-751.0,-69.0,0.0
-9.0,-40.0,-52.0,32.0,-33.0,-100.0,-332.0,-25.0,-364.0,-36.0,0.0
25.0,66.0,-48.0,-3.0,-51.0,-8.0,-178.0,21.0,138.0,24.0,0.0
52.0,56.0,-104.0,-80.0,-57.0,28.0,-151.0,54.0,202.0,46.0,0.0
43.0,-18.0,-118.0,-142.0,-68.0,10.0,-190.0,43.0,111.0,36.0,0.0
41.0,-32.0,-146.0,-159.0,-94.0,-17.0,-209.0,33.0,31.0,38.0,0.0
32.0,12.0,-176.0,-116.0,-90.0,3.0,-150.0,39.0,206.0,39.0,0.0
19.0,5.0,-131.0,-70.0,-60.0,0.0,-160.0,22.0,191.0,19.0,0.0
8.0,4.0,-119.0,-23.0,-34.0,-10.0,-169.0,7.0,162.0,8.0,0.0
6.0,-23.0,-58.0,-20.0,-25.0,-21.0,-204.0,-5.0,30.0,-2.0,0.0
6.0,-31.0,-37.0,-16.0,7.0,-7.0,-219.0,-5.0,-27.0,-1.0,0.0
12.0,13.0,-18.0,14.0,83.0,43.0,-186.0,3.0,125.0,20.0,0.0
15.0,27.0,21.0,52.0,109.0,40.0,-180.0,2.0,93.0,12.0,0.0
21.0,12.0,52.0,133.0,95.0,43.0,-160.0,0.0,88.0,7.0,0.0
14.0,6.0,59.0,171.0,72.0,41.0,-141.0,8.0,83.0,13.0,0.0
0.0,-44.0,13.0,121.0,36.0,8.0,-182.0,19.0,-72.0,14.0,0.0
1.0,-23.0,21.0,63.0,-10.0,13.0,-145.0,35.0,101.0,18.0,0.0
-6.0,-38.0,55.0,-37.0,-66.0,1.0,-117.0,35.0,164.0,14.0,0.0
-20.0,-46.0,40.0,-57.0,-75.0,-7.0,-89.0,16.0,116.0,1.0,0.0
-19.0,-38.0,57.0,-16.0,-47.0,-17.0,-86.0,-3.0,36.0,-7.0,0.0
-9.0,-16.0,70.0,-34.0,-40.0,-53.0,-103.0,-17.0,-170.0,-16.0,0.0
5.0,52.0,70.0,-25.0,-19.0,-22.0,-46.0,8.0,13.0,5.0,0.0
7.0,54.0,31.0,-35.0,-9.0,0.0,-24.0,31.0,113.0,30.0,0.0
-4.0,15.0,-65.0,-42.0,-13.0,10.0,-44.0,34.0,137.0,43.0,0.0
-7.0,-41.0,-30.0,-37.0,-6.0,16.0,-56.0,39.0,56.0,42.0,0.0
0.0,-59.0,-5.0,-29.0,9.0,22.0,-81.0,24.0,-114.0,31.0,0.0
14.0,-19.0,9.0,10.0,57.0,59.0,-19.0,21.0,42.0,29.0,0.0
6.0,-42.0,-29.0,14.0,59.0,63.0,4.0,17.0,75.0,29.0,0.0
-22.0,-64.0,-37.0,-37.0,43.0,45.0,6.0,20.0,65.0,33.0,0.0
-19.0,-67.0,-25.0,-40.0,15.0,36.0,-7.0,12.0,-20.0,18.0,0.0
-7.0,-27.0,7.0,25.0,9.0,4.0,-2.0,-17.0,-149.0,-12.0,0.0
10.0,148.0,50.0,58.0,5.0,-9.0,61.0,-58.0,-10.0,-35.0,0.0
34.0,204.0,45.0,-9.0,-39.0,-21.0,87.0,-71.0,-21.0,-45.0,0.0
29.0,166.0,55.0,-65.0,-56.0,-25.0,101.0,-72.0,-2.0,-42.0,0.0
13.0,120.0,68.0,-88.0,-45.0,-38.0,95.0,-66.0,-67.0,-38.0,0.0
35.0,96.0,105.0,-31.0,6.0,-25.0,101.0,-36.0,-127.0,-17.0,0.0
61.0,122.0,103.0,4.0,37.0,23.0,150.0,-2.0,82.0,17.0,0.0
70.0,89.0,70.0,-43.0,-13.0,16.0,140.0,34.0,131.0,41.0,0.0
58.0,12.0,19.0,-113.0,-100.0,-5.0,151.0,44.0,176.0,73.0,0.0
7.0,-134.0,-52.0,-146.0,-88.0,-49.0,116.0,37.0,55.0,68.0,0.0
-37.0,-215.0,-105.0,-55.0,-25.0,-34.0,94.0,22.0,-58.0,21.0,0.0
-17.0,-140.0,-115.0,124.0,23.0,15.0,132.0,24.0,90.0,9.0,0.0
17.0,-81.0,3.0,162.0,16.0,9.0,153.0,15.0,104.0,4.0,0.0
15.0,-95.0,18.0,130.0,7.0,-3.0,162.0,11.0,87.0,-10.0,0.0
-14.0,-178.0,-30.0,104.0,35.0,-17.0,174.0,5.0,57.0,-25.0,0.0
-26.0,-123.0,30.0,85.0,73.0,-37.0,196.0,-26.0,29.0,-57.0,0.0
-31.0,128.0,171.0,243.0,154.0,-26.0,212.0,-59.0,-22.0,-89.0,0.0
-33.0,326.0,245.0,455.0,248.0,-3.0,209.0,-70.0,-46.0,-109.0,0.0
-45.0,280.0,205.0,503.0,262.0,24.0,203.0,-53.0,-26.0,-93.0,0.0
-20.0,160.0,150.0,388.0,172.0,1.0,186.0,-21.0,-158.0,-45.0,0.0
37.0,116.0,73.0,169.0,22.0,-1.0,215.0,25.0,-91.0,24.0,0.0
57.0,78.0,34.0,-205.0,-124.0,-3.0,321.0,29.0,78.0,43.0,0.0
59.0,66.0,13.0,-338.0,-161.0,0.0,327.0,45.0,74.0,44.0,0.0
32.0,-10.0,-25.0,-304.0,-179.0,-36.0,246.0,16.0,-274.0,27.0,0.0
-16.0,-121.0,-42.0,-232.0,-163.0,-75.0,79.0,-24.0,-757.0,4.0,0.0
-13.0,-25.0,-8.0,-106.0,-107.0,44.0,228.0,6.0,-81.0,19.0,0.0
-2.0,-6.0,-10.0,-94.0,-81.0,57.0,282.0,14.0,122.0,32.0,0.0
-1.0,0.0,-9.0,-84.0,-67.0,30.0,294.0,13.0,135.0,38.0,0.0
0.0,-65.0,-50.0,-97.0,-53.0,5.0,247.0,14.0,-7.0,21.0,0.0
17.0,-93.0,-37.0,-109.0,-50.0,21.0,232.0,27.0,20.0,25.0,0.0
13.0,-77.0,19.0,-64.0,-22.0,49.0,241.0,26.0,136.0,38.0,0.0
-5.0,-93.0,45.0,-12.0,24.0,43.0,234.0,14.0,98.0,23.0,0.0
-12.0,-68.0,33.0,16.0,28.0,38.0,217.0,16.0,50.0,5.0,0.0
-4.0,6.0,-1.0,-3.0,15.0,1.0,171.0,9.0,-138.0,-11.0,0.0
7.0,160.0,-20.0,5.0,18.0,17.0,159.0,0.0,-83.0,-9.0,0.0
-1.0,109.0,-1.0,46.0,37.0,57.0,160.0,18.0,99.0,11.0,0.0
-3.0,59.0,1.0,46.0,52.0,74.0,158.0,27.0,108.0,15.0,0.0
0.0,-34.0,-40.0,-15.0,21.0,25.0,89.0,15.0,-208.0,18.0,0.0
1.0,-117.0,-69.0,-74.0,-36.0,-52.0,-31.0,0.0,-530.0,10.0,0.0
8.0,17.0,-34.0,5.0,-24.0,5.0,100.0,12.0,25.0,7.0,0.0
12.0,56.0,-40.0,-2.0,-24.0,22.0,120.0,17.0,139.0,8.0,0.0
6.0,49.0,-46.0,-35.0,-17.0,15.0,84.0,15.0,133.0,22.0,0.0
5.0,-7.0,-49.0,-64.0,-21.0,-26.0,18.0,2.0,-28.0,16.0,0.0
14.0,-16.0,-13.0,-27.0,-18.0,-20.0,-2.0,10.0,49.0,25.0,0.0
18.0,28.0,-88.0,-10.0,-24.0,-5.0,7.0,3.0,144.0,28.0,0.0
26.0,22.0,-7.0,-11.0,-44.0,-9.0,4.0,-1.0,107.0,23.0,0.0
10.0,-75.0,-60.0,-57.0,-50.0,-67.0,-62.0,-18.0,-289.0,5.0,0.0
0.0,-146.0,-167.0,-108.0,-37.0,-104.0,-174.0,-26.0,-649.0,-3.0,0.0
21.0,-7.0,-62.0,-29.0,-15.0,-5.0,-16.0,-3.0,15.0,14.0,0.0
-2.0,-2.0,22.0,-5.0,-1.0,4.0,20.0,-5.0,142.0,7.0,0.0
-27.0,-16.0,50.0,36.0,87.0,31.0,15.0,-3.0,145.0,-10.0,0.0
-45.0,-46.0,60.0,101.0,177.0,19.0,-34.0,-22.0,-40.0,-46.0,0.0
-49.0,-7.0,70.0,189.0,214.0,18.0,-26.0,-28.0,-6.0,-53.0,0.0
-24.0,-4.0,56.0,206.0,174.0,71.0,-31.0,4.0,157.0,-11.0,0.0
8.0,35.0,7.0,75.0,115.0,69.0,0.0,3.0,155.0,7.0,0.0
5.0,31.0,50.0,-12.0,-61.0,9.0,-151.0,4.0,76.0,13.0,0.0
2.0,10.0,39.0,-6.0,-47.0,-16.0,-160.0,-9.0,-53.0,-9.0,0.0
0.0,-2.0,28.0,-9.0,-35.0,-14.0,-162.0,12.0,-25.0,-3.0,0.0
10.0,31.0,37.0,-31.0,-31.0,14.0,-123.0,14.0,110.0,15.0,0.0
14.0,46.0,34.0,-34.0,-58.0,15.0,-118.0,7.0,93.0,25.0,0.0
10.0,50.0,23.0,-29.0,-52.0,27.0,-128.0,9.0,62.0,20.0,0.0
10.0,-9.0,-4.0,-63.0,-41.0,8.0,-164.0,11.0,-93.0,20.0,0.0
7.0,-24.0,-11.0,-41.0,-22.0,9.0,-167.0,10.0,-27.0,16.0,0.0
-3.0,12.0,0.0,42.0,25.0,37.0,-138.0,11.0,108.0,5.0,0.0
-11.0,-5.0,-2.0,153.0,81.0,44.0,-103.0,-1.0,109.0,-5.0,0.0
-22.0,-19.0,-15.0,171.0,88.0,32.0,-120.0,-7.0,112.0,0.0,0.0
-27.0,-52.0,-37.0,112.0,56.0,-1.0,-159.0,0.0,-50.0,2.0,0.0
-23.0,-36.0,-39.0,89.0,24.0,15.0,-136.0,12.0,11.0,-7.0,0.0
0.0,4.0,-7.0,-13.0,-29.0,6.0,-209.0,26.0,84.0,7.0,0.0
-14.0,-6.0,-18.0,-145.0,-77.0,-3.0,-227.0,40.0,68.0,13.0,0.0
-42.0,-91.0,-39.0,-230.0,-110.0,-53.0,-286.0,34.0,-229.0,18.0,0.0
-57.0,-148.0,-53.0,-188.0,-79.0,-52.0,-339.0,36.0,-343.0,16.0,0.0
-66.0,-64.0,-22.0,-44.0,-32.0,33.0,-214.0,50.0,162.0,21.0,0.0
-47.0,-49.0,-12.0,24.0,-28.0,29.0,-188.0,41.0,193.0,19.0,0.0
-16.0,-61.0,-6.0,53.0,-13.0,12.0,-186.0,23.0,138.0,19.0,0.0
-14.0,-151.0,-45.0,48.0,12.0,0.0,-212.0,3.0,-60.0,18.0,0.0
-22.0,-179.0,-41.0,94.0,57.0,29.0,-221.0,-2.0,20.0,7.0,0.0
-24.0,-126.0,-46.0,101.0,77.0,60.0,-195.0,-13.0,111.0,-9.0,0.0
-30.0,40.0,-14.0,64.0,51.0,57.0,-188.0,-46.0,73.0,-48.0,0.0
-31.0,119.0,63.0,46.0,-2.0,6.0,-198.0,-55.0,19.0,-55.0,0.0
-8.0,37.0,79.0,-9.0,-74.0,-63.0,-210.0,-36.0,-147.0,-24.0,0.0
6.0,10.0,101.0,-44.0,-95.0,-53.0,-196.0,-15.0,-5.0,-3.0,0.0
4.0,102.0,150.0,-52.0,-81.0,-39.0,-215.0,-27.0,71.0,-19.0,0.0
2.0,253.0,195.0,-55.0,-77.0,-35.0,-214.0,-31.0,76.0,-39.0,0.0
-22.0,255.0,175.0,-31.0,-60.0,-23.0,-216.0,-22.0,73.0,-38.0,0.0
-31.0,140.0,126.0,-42.0,-56.0,-56.0,-230.0,-25.0,-69.0,-29.0,0.0
4.0,115.0,111.0,-68.0,-59.0,-56.0,-217.0,-9.0,-117.0,-13.0,0.0
43.0,153.0,124.0,-32.0,-30.0,2.0,-176.0,11.0,60.0,8.0,0.0
47.0,120.0,72.0,-9.0,-9.0,14.0,-194.0,10.0,70.0,12.0,0.0
34.0,80.0,-27.0,-14.0,-1.0,13.0,-200.0,20.0,60.0,0.0,0.0
25.0,43.0,-81.0,-58.0,-11.0,4.0,-230.0,18.0,-83.0,-10.0,0.0
7.0,-5.0,-111.0,-65.0,-17.0,16.0,-224.0,0.0,-125.0,-20.0,0.0
-11.0,-13.0,-130.0,-32.0,1.0,29.0,-219.0,-6.0,10.0,-27.0,0.0
-28.0,-34.0,-142.0,15.0,18.0,11.0,-222.0,-24.0,21.0,-40.0,0.0
-20.0,-24.0,-113.0,118.0,38.0,3.0,-189.0,-16.0,40.0,-44.0,0.0
9.0,-26.0,-41.0,145.0,27.0,2.0,-161.0,-9.0,-77.0,-29.0,0.0
18.0,-13.0,-28.0,93.0,-1.0,7.0,-129.0,-8.0,-70.0,-23.0,0.0
4.0,2.0,-26.0,43.0,-11.0,21.0,-100.0,-19.0,47.0,-30.0,0.0
-16.0,-5.0,-32.0,21.0,6.0,4.0,-113.0,-27.0,13.0,-21.0,0.0
-14.0,-24.0,-42.0,27.0,44.0,-13.0,-104.0,-29.0,-20.0,-24.0,0.0
17.0,-61.0,-120.0,19.0,50.0,-28.0,-105.0,-21.0,-157.0,-23.0,0.0
34.0,-38.0,-207.0,45.0,49.0,14.0,-52.0,6.0,-67.0,-13.0,0.0
48.0,6.0,-130.0,31.0,20.0,53.0,-9.0,33.0,106.0,25.0,0.0
66.0,12.0,-86.0,-94.0,-95.0,41.0,5.0,56.0,148.0,59.0,0.0
50.0,-1.0,-45.0,-147.0,-148.0,19.0,0.0,49.0,124.0,67.0,0.0
18.0,-83.0,-33.0,-116.0,-121.0,-19.0,-22.0,32.0,-79.0,43.0,0.0
29.0,-75.0,-28.0,-57.0,-55.0,13.0,0.0,24.0,12.0,26.0,0.0
34.0,-53.0,-26.0,-22.0,-17.0,29.0,31.0,12.0,118.0,23.0,0.0
27.0,-75.0,-18.0,-16.0,-10.0,11.0,50.0,6.0,82.0,12.0,0.0
21.0,-107.0,-16.0,-16.0,-8.0,3.0,45.0,7.0,46.0,2.0,0.0
18.0,-145.0,-25.0,0.0,3.0,-15.0,-12.0,-5.0,-164.0,-21.0,0.0
12.0,-141.0,1.0,101.0,46.0,13.0,-2.0,-13.0,-74.0,-33.0,0.0
1.0,-102.0,0.0,153.0,87.0,27.0,54.0,-29.0,21.0,-52.0,0.0
-1.0,23.0,12.0,118.0,96.0,37.0,91.0,-21.0,43.0,-53.0,0.0
-10.0,117.0,49.0,93.0,95.0,38.0,100.0,-11.0,37.0,-27.0,0.0
1.0,148.0,73.0,60.0,70.0,-10.0,76.0,-21.0,-153.0,-22.0,0.0
37.0,233.0,132.0,46.0,52.0,1.0,93.0,-13.0,-27.0,-15.0,0.0
36.0,166.0,128.0,31.0,48.0,33.0,114.0,35.0,81.0,4.0,0.0
19.0,48.0,37.0,93.0,67.0,55.0,122.0,63.0,103.0,6.0,0.0
14.0,14.0,-28.0,171.0,65.0,54.0,125.0,49.0,55.0,5.0,0.0
24.0,0.0,43.0,147.0,25.0,-2.0,92.0,4.0,-145.0,1.0,0.0
9.0,46.0,75.0,60.0,10.0,-19.0,123.0,-23.0,61.0,-28.0,0.0
-12.0,42.0,51.0,-30.0,0.0,-24.0,116.0,-36.0,67.0,-45.0,0.0
-6.0,40.0,28.0,-122.0,-8.0,-14.0,128.0,-34.0,17.0,-46.0,0.0
-3.0,-128.0,-70.0,-202.0,-59.0,-87.0,-2.0,-27.0,-572.0,-43.0,0.0
2.0,-159.0,-40.0,-185.0,-61.0,-113.0,-51.0,-21.0,-624.0,-43.0,0.0
13.0,29.0,41.0,-52.0,-15.0,-21.0,161.0,5.0,71.0,-22.0,0.0
1.0,63.0,63.0,-21.0,-14.0,-17.0,200.0,0.0,100.0,-19.0,0.0
2.0,44.0,26.0,-33.0,-41.0,-22.0,223.0,0.0,58.0,-5.0,0.0
5.0,-30.0,14.0,-72.0,-52.0,-47.0,194.0,7.0,-110.0,-7.0,0.0
-3.0,-8.0,26.0,-38.0,-21.0,-16.0,184.0,10.0,31.0,-19.0,0.0
-1.0,18.0,34.0,-3.0,5.0,8.0,195.0,12.0,93.0,-13.0,0.0
-5.0,11.0,30.0,0.0,10.0,21.0,201.0,28.0,96.0,-8.0,0.0
-27.0,-4.0,16.0,-21.0,6.0,30.0,186.0,29.0,73.0,-8.0,0.0
-27.0,-42.0,-10.0,-60.0,-2.0,0.0,133.0,20.0,-62.0,-6.0,0.0
-37.0,-15.0,19.0,9.0,6.0,-4.0,137.0,19.0,71.0,-12.0,0.0
-46.0,-49.0,-24.0,58.0,2.0,0.0,121.0,24.0,90.0,-3.0,0.0
-25.0,-108.0,-76.0,8.0,-2.0,9.0,92.0,30.0,12.0,5.0,0.0
-25.0,-194.0,-76.0,-19.0,-3.0,-12.0,61.0,31.0,-164.0,0.0,0.0
-29.0,-231.0,-66.0,8.0,4.0,2.0,81.0,43.0,-108.0,0.0,0.0
-36.0,-236.0,-83.0,-6.0,18.0,62.0,136.0,64.0,148.0,3.0,0.0
-35.0,-261.0,-162.0,-80.0,37.0,67.0,158.0,70.0,202.0,0.0,0.0
-41.0,-207.0,-178.0,-139.0,52.0,30.0,143.0,28.0,152.0,-42.0,0.0
-40.0,-38.0,-106.0,-97.0,79.0,-13.0,103.0,-29.0,32.0,-88.0,0.0
-18.0,107.0,-4.0,0.0,88.0,-62.0,59.0,-52.0,-142.0,-82.0,0.0
3.0,306.0,187.0,170.0,95.0,-55.0,89.0,-57.0,12.0,-72.0,0.0
9.0,401.0,316.0,317.0,90.0,-42.0,109.0,-55.0,48.0,-55.0,0.0
4.0,370.0,327.0,286.0,28.0,-49.0,121.0,-47.0,64.0,-35.0,0.0
6.0,261.0,252.0,96.0,-46.0,-62.0,105.0,-40.0,43.0,-32.0,0.0
11.0,144.0,167.0,-4.0,-72.0,-72.0,43.0,-24.0,-122.0,-27.0,0.0
8.0,94.0,118.0,26.0,-51.0,-50.0,21.0,-9.0,-67.0,-20.0,0.0
-2.0,59.0,63.0,80.0,-10.0,-27.0,25.0,-2.0,65.0,-28.0,0.0
-6.0,37.0,-31.0,89.0,35.0,-1.0,17.0,16.0,85.0,-12.0,0.0
7.0,27.0,-55.0,59.0,64.0,16.0,0.0,38.0,93.0,4.0,0.0
15.0,-21.0,-79.0,23.0,47.0,0.0,-32.0,30.0,-61.0,6.0,0.0
11.0,-33.0,-39.0,84.0,58.0,8.0,-25.0,14.0,14.0,1.0,0.0
-10.0,-20.0,-12.0,171.0,87.0,18.0,-11.0,9.0,66.0,-11.0,0.0
-26.0,-22.0,-34.0,161.0,101.0,12.0,-1.0,9.0,46.0,-5.0,0.0
-17.0,-41.0,-96.0,70.0,80.0,-2.0,-5.0,1.0,28.0,-7.0,0.0
-7.0,-57.0,-65.0,-66.0,38.0,-34.0,-55.0,-11.0,-143.0,-12.0,0.0
24.0,29.0,-18.0,-100.0,-1.0,-38.0,-35.0,0.0,-28.0,9.0,0.0
39.0,75.0,-12.0,-65.0,-30.0,-21.0,-11.0,13.0,69.0,14.0,0.0
36.0,54.0,-42.0,-43.0,-64.0,-9.0,2.0,27.0,92.0,26.0,0.0
25.0,33.0,-84.0,-8.0,-79.0,-7.0,-11.0,28.0,101.0,34.0,0.0
29.0,36.0,2.0,-6.0,-83.0,-4.0,10.0,17.0,101.0,25.0,0.0
25.0,39.0,66.0,-53.0,-90.0,-6.0,30.0,1.0,126.0,14.0,0.0
17.0,38.0,44.0,-97.0,-99.0,-8.0,5.0,-1.0,122.0,12.0,0.0
19.0,32.0,26.0,-93.0,-94.0,-12.0,-13.0,1.0,118.0,11.0,0.0
18.0,8.0,-19.0,-58.0,-57.0,-25.0,-32.0,10.0,68.0,4.0,0.0
25.0,-58.0,-82.0,-80.0,-47.0,-51.0,-74.0,6.0,-139.0,-9.0,0.0
8.0,-26.0,-70.0,-45.0,-18.0,-11.0,-69.0,18.0,15.0,0.0,0.0
7.0,-29.0,-53.0,-17.0,6.0,5.0,-72.0,30.0,74.0,5.0,0.0
6.0,-77.0,-52.0,-6.0,13.0,10.0,-83.0,35.0,98.0,12.0,0.0
-2.0,-118.0,-92.0,-19.0,9.0,5.0,-104.0,33.0,20.0,15.0,0.0
-9.0,-173.0,-79.0,-30.0,-12.0,-24.0,-140.0,26.0,-162.0,15.0,0.0
-15.0,-187.0,-52.0,13.0,22.0,38.0,-148.0,48.0,61.0,12.0,0.0
-15.0,-248.0,-93.0,18.0,43.0,52.0,-131.0,45.0,72.0,12.0,0.0
-21.0,-278.0,-163.0,0.0,18.0,39.0,-125.0,29.0,-16.0,7.0,0.0
-20.0,-202.0,-136.0,-72.0,-31.0,-52.0,-222.0,-13.0,-481.0,-27.0,0.0
17.0,91.0,37.0,-25.0,-49.0,-53.0,-173.0,-45.0,-285.0,-40.0,0.0
30.0,293.0,116.0,39.0,-45.0,-8.0,-82.0,-49.0,40.0,-23.0,0.0
14.0,242.0,94.0,43.0,-10.0,13.0,-81.0,-37.0,73.0,-17.0,0.0
7.0,106.0,52.0,74.0,40.0,12.0,-104.0,-22.0,-3.0,-24.0,0.0
0.0,27.0,62.0,69.0,116.0,0.0,-127.0,-28.0,-160.0,-40.0,0.0
3.0,46.0,101.0,61.0,134.0,41.0,-76.0,-22.0,60.0,-11.0,0.0
-23.0,17.0,58.0,124.0,154.0,31.0,-93.0,-17.0,61.0,-15.0,0.0
-27.0,-36.0,26.0,140.0,157.0,9.0,-117.0,-8.0,-63.0,-15.0,0.0
-23.0,-170.0,47.0,37.0,91.0,-68.0,-239.0,-36.0,-610.0,-33.0,0.0
-19.0,-89.0,146.0,-12.0,55.0,-28.0,-194.0,-47.0,-350.0,-44.0,0.0
-9.0,87.0,250.0,-5.0,36.0,22.0,-81.0,-61.0,28.0,-55.0,0.0
-17.0,145.0,260.0,26.0,64.0,32.0,-81.0,-72.0,34.0,-57.0,0.0
-28.0,117.0,225.0,46.0,87.0,4.0,-96.0,-85.0,-22.0,-62.0,0.0
-43.0,33.0,174.0,-10.0,40.0,-33.0,-69.0,-98.0,-133.0,-67.0,0.0
-21.0,45.0,106.0,-71.0,-39.0,-15.0,-4.0,-49.0,87.0,-18.0,0.0
47.0,37.0,-55.0,-149.0,-175.0,12.0,12.0,39.0,164.0,66.0,0.0
97.0,20.0,-213.0,-132.0,-224.0,16.0,32.0,105.0,203.0,116.0,0.0
110.0,-13.0,-346.0,-84.0,-178.0,-7.0,32.0,108.0,125.0,135.0,0.0
91.0,-29.0,-287.0,-64.0,-127.0,-23.0,-8.0,57.0,-7.0,109.0,0.0
51.0,-6.0,-167.0,-66.0,-86.0,5.0,-4.0,36.0,141.0,78.0,0.0
2.0,-29.0,-122.0,-92.0,-56.0,16.0,-15.0,7.0,152.0,42.0,0.0
-22.0,-52.0,-95.0,-148.0,-50.0,-25.0,-42.0,-23.0,0.0,11.0,0.0
-20.0,-84.0,-80.0,-197.0,-60.0,-47.0,-54.0,-32.0,-119.0,-1.0,0.0
-6.0,-54.0,-95.0,-125.0,-48.0,-54.0,-45.0,-29.0,-54.0,1.0,0.0
-11.0,-24.0,-8.0,-30.0,-22.0,-2.0,-10.0,-10.0,117.0,0.0,0.0
-11.0,-19.0,-9.0,-5.0,-20.0,-8.0,-5.0,6.0,109.0,3.0,0.0
-24.0,-45.0,-16.0,-15.0,-18.0,-43.0,-50.0,0.0,-62.0,-10.0,0.0
-59.0,-166.0,-81.0,-76.0,-32.0,-122.0,-242.0,-39.0,-659.0,-27.0,0.0
-63.0,-94.0,-52.0,-3.0,2.0,-48.0,-159.0,-22.0,-260.0,0.0,0.0
-69.0,-5.0,31.0,39.0,10.0,7.0,-18.0,-7.0,114.0,17.0,0.0
-69.0,-22.0,10.0,25.0,6.0,3.0,-1.0,-10.0,133.0,23.0,0.0
-67.0,-67.0,-7.0,-5.0,-15.0,-13.0,-58.0,-6.0,39.0,19.0,0.0
-57.0,-77.0,3.0,-15.0,-16.0,-25.0,-108.0,-17.0,-70.0,10.0,0.0
-53.0,-30.0,28.0,32.0,13.0,20.0,-95.0,3.0,115.0,-6.0,0.0
-45.0,-37.0,26.0,36.0,26.0,18.0,-107.0,3.0,103.0,-5.0,0.0
-39.0,-63.0,12.0,23.0,21.0,-5.0,-162.0,11.0,-40.0,-4.0,0.0
-36.0,-178.0,-18.0,-44.0,-11.0,-80.0,-293.0,-8.0,-561.0,-37.0,0.0
-47.0,-79.0,26.0,23.0,16.0,-23.0,-239.0,1.0,-188.0,-30.0,0.0
-41.0,-11.0,45.0,70.0,44.0,47.0,-132.0,13.0,170.0,-2.0,0.0
-30.0,-28.0,22.0,77.0,64.0,67.0,-86.0,11.0,175.0,5.0,0.0
-23.0,-25.0,-7.0,73.0,63.0,60.0,-104.0,19.0,91.0,24.0,0.0
-21.0,-62.0,-46.0,69.0,56.0,57.0,-121.0,33.0,12.0,30.0,0.0
-35.0,-101.0,-84.0,89.0,68.0,95.0,-81.0,57.0,192.0,48.0,0.0
-42.0,-160.0,-100.0,97.0,86.0,114.0,-59.0,62.0,200.0,48.0,0.0
-36.0,-219.0,-115.0,95.0,103.0,120.0,-45.0,81.0,207.0,49.0,0.0
-28.0,-269.0,-135.0,46.0,76.0,98.0,-50.0,84.0,103.0,55.0,0.0
-24.0,-202.0,-86.0,3.0,-5.0,27.0,-50.0,15.0,-33.0,13.0,0.0
-7.0,8.0,67.0,9.0,-58.0,-38.0,-26.0,-66.0,34.0,-44.0,0.0
3.0,168.0,169.0,40.0,-67.0,-65.0,-23.0,-81.0,16.0,-76.0,0.0
7.0,239.0,173.0,67.0,-45.0,-46.0,-35.0,-61.0,26.0,-60.0,0.0
22.0,294.0,167.0,42.0,-26.0,-38.0,-87.0,-47.0,-70.0,-36.0,0.0
25.0,248.0,132.0,6.0,-24.0,-25.0,-66.0,-49.0,-57.0,-15.0,0.0
12.0,150.0,62.0,0.0,0.0,-2.0,-17.0,-56.0,123.0,-18.0,0.0
2.0,16.0,-23.0,-9.0,17.0,5.0,7.0,-43.0,129.0,-23.0,0.0
18.0,-53.0,-130.0,-4.0,33.0,11.0,2.0,-28.0,113.0,-22.0,0.0
20.0,-76.0,-161.0,-14.0,26.0,0.0,9.0,-39.0,37.0,-41.0,0.0
24.0,66.0,27.0,-39.0,3.0,-46.0,-12.0,-59.0,-169.0,-52.0,0.0
53.0,421.0,295.0,7.0,13.0,-24.0,50.0,-62.0,-31.0,-37.0,0.0
53.0,527.0,331.0,16.0,4.0,-2.0,69.0,-48.0,36.0,-34.0,0.0
34.0,361.0,217.0,8.0,3.0,5.0,76.0,-24.0,49.0,-18.0,0.0
30.0,174.0,135.0,11.0,1.0,-2.0,69.0,-8.0,-5.0,-14.0,0.0
14.0,54.0,48.0,-9.0,-10.0,-43.0,39.0,-21.0,-168.0,-29.0,0.0
0.0,42.0,-35.0,38.0,47.0,3.0,61.0,-23.0,-1.0,-30.0,0.0
-15.0,-1.0,-13.0,84.0,163.0,56.0,61.0,-11.0,41.0,-32.0,0.0
-31.0,0.0,-6.0,177.0,252.0,66.0,52.0,-11.0,39.0,-46.0,0.0
-49.0,2.0,1.0,280.0,269.0,41.0,28.0,-27.0,-23.0,-59.0,0.0
-50.0,-37.0,-1.0,273.0,224.0,0.0,-18.0,-40.0,-150.0,-67.0,0.0
-30.0,-28.0,-20.0,178.0,152.0,28.0,4.0,-11.0,50.0,-42.0,0.0
2.0,-38.0,-67.0,-33.0,28.0,11.0,3.0,2.0,99.0,-2.0,0.0
42.0,10.0,-2.0,-137.0,-138.0,-52.0,-6.0,10.0,97.0,28.0,0.0
76.0,40.0,70.0,-206.0,-272.0,-92.0,-35.0,33.0,34.0,74.0,0.0
71.0,5.0,30.0,-281.0,-285.0,-74.0,-59.0,43.0,-46.0,81.0,0.0
41.0,6.0,-57.0,-157.0,-149.0,-12.0,-22.0,42.0,141.0,56.0,0.0
33.0,-11.0,-60.0,-18.0,-40.0,2.0,0.0,41.0,150.0,47.0,0.0
15.0,-17.0,0.0,-5.0,-50.0,1.0,-23.0,28.0,145.0,35.0,0.0
10.0,-19.0,-50.0,-86.0,-85.0,-1.0,-57.0,36.0,48.0,36.0,0.0
35.0,-23.0,-102.0,-166.0,-113.0,1.0,-84.0,48.0,-36.0,50.0,0.0
36.0,-9.0,-78.0,-141.0,-128.0,6.0,-63.0,27.0,122.0,38.0,0.0
22.0,-14.0,-31.0,-79.0,-112.0,-2.0,-75.0,9.0,117.0,19.0,0.0
22.0,-7.0,3.0,-48.0,-85.0,0.0,-110.0,17.0,102.0,28.0,0.0
31.0,-14.0,26.0,-81.0,-84.0,-22.0,-129.0,19.0,-37.0,31.0,0.0
43.0,-19.0,21.0,-104.0,-87.0,-40.0,-91.0,13.0,-107.0,22.0,0.0
23.0,-22.0,-43.0,-30.0,-40.0,-10.0,-75.0,-2.0,47.0,8.0,0.0
-15.0,-44.0,-163.0,50.0,-3.0,7.0,-88.0,5.0,62.0,-3.0,0.0
-23.0,-41.0,-139.0,64.0,7.0,25.0,-127.0,14.0,78.0,-10.0,0.0
-7.0,-82.0,-40.0,17.0,-1.0,9.0,-193.0,1.0,-84.0,-17.0,0.0
-13.0,-76.0,-2.0,31.0,-7.0,-3.0,-217.0,-12.0,-125.0,-27.0,0.0
-6.0,-28.0,18.0,42.0,-15.0,-2.0,-182.0,-10.0,64.0,-10.0,0.0
-25.0,-41.0,12.0,55.0,4.0,-3.0,-163.0,-21.0,30.0,-23.0,0.0
-30.0,-92.0,-32.0,35.0,2.0,-46.0,-217.0,-38.0,-238.0,-36.0,0.0
-25.0,-209.0,-55.0,-64.0,-29.0,-124.0,-372.0,-64.0,-766.0,-40.0,0.0
-15.0,-64.0,0.0,9.0,12.0,-30.0,-202.0,-39.0,-151.0,-18.0,0.0
-25.0,-19.0,13.0,47.0,29.0,3.0,-99.0,-28.0,82.0,-13.0,0.0
-32.0,-21.0,12.0,41.0,26.0,13.0,-58.0,-29.0,77.0,-8.0,0.0
-16.0,-33.0,9.0,20.0,19.0,23.0,-33.0,-27.0,68.0,-9.0,0.0
-7.0,-20.0,-43.0,10.0,23.0,28.0,-28.0,-24.0,70.0,-4.0,0.0
-12.0,-16.0,-41.0,28.0,19.0,26.0,-32.0,-10.0,77.0,-3.0,0.0
-8.0,-11.0,15.0,25.0,22.0,32.0,-53.0,-10.0,93.0,-3.0,0.0
-14.0,-11.0,-2.0,46.0,29.0,34.0,-56.0,-6.0,103.0,-10.0,0.0
-13.0,-8.0,-4.0,76.0,30.0,20.0,-52.0,3.0,122.0,-7.0,0.0
-19.0,-16.0,102.0,82.0,29.0,13.0,-55.0,12.0,106.0,2.0,0.0
-23.0,-7.0,113.0,76.0,35.0,18.0,-70.0,5.0,83.0,-7.0,0.0
-15.0,0.0,52.0,56.0,35.0,24.0,-103.0,-13.0,58.0,-21.0,0.0
9.0,2.0,-74.0,32.0,40.0,28.0,-99.0,-16.0,57.0,-17.0,0.0
20.0,-22.0,-115.0,-7.0,41.0,26.0,-80.0,-13.0,-16.0,-18.0,0.0
15.0,-64.0,-80.0,-51.0,22.0,10.0,-90.0,0.0,-153.0,-2.0,0.0
13.0,-27.0,-68.0,-34.0,14.0,41.0,-74.0,14.0,27.0,25.0,0.0
8.0,10.0,-11.0,-20.0,-5.0,20.0,-59.0,0.0,51.0,14.0,0.0
7.0,32.0,60.0,-25.0,-23.0,-8.0,-33.0,-23.0,47.0,1.0,0.0
-1.0,3.0,68.0,-57.0,-35.0,-35.0,-50.0,-30.0,-59.0,-11.0,0.0
7.0,-7.0,28.0,-68.0,-10.0,-28.0,-73.0,-24.0,-117.0,-19.0,0.0
8.0,27.0,32.0,-8.0,43.0,10.0,-39.0,-12.0,76.0,-13.0,0.0
8.0,25.0,-14.0,29.0,84.0,23.0,-27.0,-6.0,81.0,-11.0,0.0
12.0,45.0,-58.0,44.0,84.0,36.0,-23.0,7.0,74.0,-2.0,0.0
14.0,16.0,-32.0,16.0,68.0,25.0,-53.0,19.0,-58.0,1.0,0.0
14.0,-18.0,5.0,-30.0,27.0,26.0,-85.0,39.0,-123.0,18.0,0.0
3.0,0.0,-3.0,-39.0,71.0,49.0,-75.0,50.0,59.0,26.0,0.0
-21.0,-33.0,-13.0,-25.0,145.0,41.0,-85.0,42.0,81.0,8.0,0.0
-38.0,-49.0,-15.0,7.0,141.0,43.0,-96.0,48.0,84.0,17.0,0.0
-34.0,-81.0,-19.0,43.0,82.0,33.0,-121.0,47.0,-59.0,35.0,0.0
-39.0,-54.0,-19.0,90.0,15.0,15.0,-138.0,30.0,-105.0,30.0,0.0
-41.0,9.0,6.0,66.0,-28.0,22.0,-106.0,31.0,67.0,18.0,0.0
-49.0,10.0,28.0,-17.0,-69.0,16.0,-114.0,31.0,75.0,16.0,0.0
-44.0,-3.0,38.0,-97.0,-105.0,-3.0,-107.0,32.0,84.0,12.0,0.0
-18.0,-32.0,52.0,-111.0,-102.0,-22.0,-115.0,24.0,-64.0,6.0,0.0
-22.0,-29.0,80.0,-53.0,-56.0,-4.0,-110.0,28.0,-51.0,-2.0,0.0
-37.0,1.0,86.0,-8.0,-32.0,13.0,-77.0,29.0,84.0,-4.0,0.0
-29.0,11.0,74.0,-9.0,-42.0,-11.0,-42.0,1.0,58.0,-15.0,0.0
-19.0,8.0,45.0,-12.0,-52.0,-19.0,-47.0,0.0,41.0,-19.0,0.0
-30.0,-43.0,50.0,-46.0,-54.0,-35.0,-89.0,8.0,-128.0,-28.0,0.0
-20.0,-11.0,51.0,-40.0,-38.0,-32.0,-102.0,4.0,-99.0,-18.0,0.0
15.0,63.0,21.0,-20.0,-26.0,-24.0,-80.0,-3.0,25.0,-1.0,0.0
26.0,70.0,-35.0,-29.0,-21.0,-28.0,-62.0,-6.0,44.0,3.0,0.0
36.0,62.0,-39.0,-26.0,-23.0,-25.0,-77.0,-12.0,51.0,7.0,0.0
37.0,26.0,-36.0,-38.0,-29.0,-45.0,-117.0,-29.0,-136.0,7.0,0.0
30.0,3.0,-22.0,5.0,-5.0,-30.0,-109.0,-16.0,-76.0,13.0,0.0
16.0,5.0,-27.0,63.0,14.0,-5.0,-75.0,0.0,72.0,18.0,0.0
-12.0,-37.0,-30.0,73.0,13.0,-4.0,-82.0,17.0,80.0,19.0,0.0
4.0,-73.0,-60.0,34.0,-10.0,6.0,-66.0,31.0,88.0,21.0,0.0
6.0,-103.0,-67.0,-16.0,-14.0,9.0,-58.0,24.0,97.0,18.0,0.0
11.0,-29.0,-56.0,-38.0,2.0,13.0,-39.0,-2.0,63.0,0.0,0.0
2.0,97.0,-96.0,-33.0,13.0,8.0,-39.0,-19.0,31.0,-16.0,0.0
-16.0,35.0,-187.0,-27.0,-1.0,7.0,-48.0,-1.0,42.0,-7.0,0.0
-20.0,-83.0,-210.0,-30.0,-9.0,12.0,-59.0,15.0,47.0,11.0,0.0
-8.0,-122.0,-99.0,-74.0,1.0,15.0,-96.0,18.0,-81.0,30.0,0.0
5.0,-91.0,-31.0,-69.0,-1.0,-2.0,-111.0,1.0,-152.0,26.0,0.0
14.0,-61.0,-10.0,-28.0,-9.0,6.0,-80.0,-3.0,12.0,30.0,0.0
20.0,0.0,9.0,-14.0,-27.0,-9.0,-88.0,-12.0,31.0,10.0,0.0
28.0,121.0,33.0,14.0,-35.0,-17.0,-85.0,-21.0,31.0,-10.0,0.0
13.0,150.0,57.0,45.0,-20.0,-27.0,-99.0,-29.0,-128.0,-19.0,0.0
11.0,233.0,94.0,55.0,-19.0,-26.0,-150.0,-30.0,-143.0,-37.0,0.0
16.0,354.0,133.0,72.0,0.0,-12.0,-169.0,-21.0,40.0,-32.0,0.0
2.0,276.0,79.0,56.0,27.0,-13.0,-168.0,-20.0,61.0,-19.0,0.0
11.0,187.0,70.0,22.0,31.0,-9.0,-174.0,-19.0,52.0,-14.0,0.0
15.0,92.0,57.0,-14.0,2.0,-34.0,-204.0,-15.0,-95.0,-22.0,0.0
3.0,35.0,30.0,-20.0,-24.0,-25.0,-205.0,1.0,-112.0,-24.0,0.0
-18.0,35.0,3.0,-18.0,-32.0,11.0,-177.0,18.0,42.0,-16.0,0.0
-19.0,22.0,5.0,-33.0,-39.0,11.0,-174.0,25.0,52.0,-16.0,0.0
-11.0,5.0,-35.0,-35.0,-20.0,9.0,-166.0,29.0,45.0,-13.0,0.0
-14.0,-84.0,-163.0,-7.0,14.0,-13.0,-156.0,25.0,-131.0,-21.0,0.0
-36.0,-90.0,-92.0,144.0,122.0,-10.0,-131.0,5.0,-115.0,-25.0,0.0
-32.0,-12.0,41.0,280.0,219.0,6.0,-108.0,-23.0,-12.0,-41.0,0.0
-39.0,21.0,61.0,315.0,235.0,7.0,-96.0,-50.0,-13.0,-62.0,0.0
-54.0,-11.0,96.0,332.0,206.0,4.0,-84.0,-70.0,-12.0,-84.0,0.0
-47.0,-70.0,61.0,178.0,122.0,-2.0,-83.0,-60.0,-159.0,-56.0,0.0
-35.0,-92.0,29.0,-42.0,-2.0,-3.0,-78.0,-21.0,-203.0,-13.0,0.0
-8.0,-34.0,-30.0,-177.0,-131.0,7.0,-35.0,18.0,-37.0,28.0,0.0
26.0,41.0,16.0,-276.0,-165.0,8.0,25.0,33.0,110.0,43.0,0.0
34.0,50.0,50.0,-259.0,-107.0,-1.0,76.0,31.0,118.0,39.0,0.0
3.0,27.0,51.0,-115.0,-72.0,-10.0,78.0,18.0,108.0,12.0,0.0
-25.0,-8.0,28.0,-5.0,-67.0,-15.0,84.0,0.0,60.0,-9.0,0.0
-35.0,-1.0,73.0,171.0,4.0,23.0,141.0,6.0,61.0,-6.0,0.0
-12.0,0.0,85.0,142.0,6.0,30.0,169.0,0.0,30.0,3.0,0.0
-8.0,-157.0,-166.0,-178.0,17.0,-70.0,-8.0,-21.0,-619.0,-6.0,0.0
-1.0,-28.0,-147.0,-58.0,39.0,11.0,154.0,7.0,7.0,32.0,0.0
0.0,-53.0,-115.0,-64.0,-24.0,-5.0,175.0,5.0,-55.0,38.0,0.0
14.0,-124.0,-97.0,-147.0,-92.0,-67.0,99.0,-21.0,-421.0,26.0,0.0
35.0,-37.0,-23.0,-117.0,-67.0,-20.0,191.0,3.0,-33.0,40.0,0.0
45.0,15.0,-5.0,-123.0,-53.0,0.0,253.0,24.0,162.0,61.0,0.0
30.0,14.0,-35.0,-119.0,-57.0,6.0,236.0,25.0,141.0,69.0,0.0
28.0,-1.0,-31.0,-86.0,-58.0,11.0,254.0,17.0,136.0,55.0,0.0
15.0,-3.0,5.0,-34.0,-53.0,15.0,261.0,16.0,139.0,20.0,0.0
7.0,-32.0,10.0,-4.0,-40.0,0.0,181.0,9.0,-34.0,16.0,0.0
14.0,-25.0,14.0,3.0,-21.0,30.0,160.0,3.0,39.0,19.0,0.0
6.0,-8.0,9.0,-28.0,-20.0,66.0,169.0,5.0,163.0,22.0,0.0
-2.0,-26.0,55.0,-73.0,-25.0,60.0,184.0,-9.0,147.0,17.0,0.0
-21.0,-34.0,119.0,-80.0,-27.0,21.0,164.0,-35.0,79.0,-11.0,0.0
-15.0,-13.0,167.0,-77.0,-90.0,-24.0,147.0,-41.0,-22.0,-14.0,0.0
5.0,31.0,138.0,-58.0,-88.0,-10.0,161.0,-17.0,30.0,8.0,0.0
2.0,-20.0,85.0,-14.0,-52.0,-9.0,135.0,-3.0,-150.0,3.0,0.0
-12.0,-94.0,-42.0,0.0,-8.0,6.0,103.0,-1.0,-358.0,-14.0,0.0
-18.0,-124.0,-251.0,-47.0,9.0,-17.0,54.0,-3.0,-530.0,-26.0,0.0
-20.0,-13.0,-183.0,37.0,52.0,37.0,188.0,9.0,-7.0,-19.0,0.0
-6.0,45.0,-31.0,58.0,54.0,60.0,247.0,-4.0,187.0,-1.0,0.0
4.0,60.0,0.0,65.0,34.0,41.0,238.0,-7.0,179.0,-4.0,0.0
28.0,54.0,1.0,68.0,14.0,45.0,228.0,3.0,164.0,3.0,0.0
41.0,-6.0,-12.0,38.0,-40.0,53.0,186.0,29.0,15.0,24.0,0.0
48.0,-1.0,-10.0,0.0,-63.0,58.0,181.0,45.0,104.0,31.0,0.0
22.0,6.0,-35.0,4.0,-21.0,45.0,145.0,30.0,148.0,27.0,0.0
-12.0,-61.0,-82.0,34.0,48.0,17.0,93.0,1.0,-61.0,-2.0,0.0
-20.0,-45.0,-120.0,82.0,128.0,45.0,120.0,-4.0,45.0,-16.0,0.0
4.0,-62.0,-97.0,84.0,165.0,32.0,103.0,2.0,-82.0,-2.0,0.0
17.0,-36.0,38.0,149.0,162.0,56.0,112.0,16.0,4.0,14.0,0.0
2.0,-33.0,74.0,199.0,110.0,62.0,116.0,21.0,120.0,21.0,0.0
0.0,-66.0,83.0,180.0,35.0,48.0,96.0,17.0,130.0,19.0,0.0
0.0,-73.0,89.0,80.0,-35.0,27.0,63.0,11.0,112.0,3.0,0.0
-15.0,-58.0,74.0,-34.0,-110.0,-11.0,59.0,-4.0,100.0,-22.0,0.0
-5.0,8.0,38.0,-125.0,-168.0,-44.0,59.0,-2.0,93.0,-29.0,0.0
0.0,93.0,-48.0,-117.0,-150.0,-36.0,79.0,9.0,93.0,-21.0,0.0
-10.0,92.0,-10.0,-46.0,-60.0,-10.0,70.0,-1.0,69.0,-22.0,0.0
-1.0,69.0,12.0,-14.0,11.0,18.0,54.0,-11.0,67.0,-20.0,0.0
19.0,44.0,-22.0,-28.0,21.0,9.0,17.0,-6.0,-44.0,-13.0,0.0
24.0,52.0,-31.0,-26.0,10.0,10.0,-2.0,-17.0,-57.0,-12.0,0.0
17.0,43.0,-31.0,9.0,30.0,23.0,11.0,1.0,63.0,-10.0,0.0
2.0,-1.0,-2.0,6.0,35.0,46.0,-8.0,18.0,50.0,5.0,0.0
-6.0,-31.0,15.0,-22.0,43.0,47.0,-44.0,20.0,49.0,15.0,0.0
0.0,-54.0,27.0,-6.0,39.0,26.0,-35.0,4.0,47.0,6.0,0.0
0.0,-30.0,60.0,28.0,25.0,21.0,-17.0,-1.0,31.0,6.0,0.0
0.0,-4.0,52.0,21.0,-3.0,26.0,5.0,13.0,46.0,5.0,0.0
-9.0,-55.0,3.0,34.0,13.0,35.0,31.0,48.0,77.0,21.0,0.0
-16.0,-136.0,-54.0,35.0,30.0,42.0,36.0,59.0,80.0,20.0,0.0
-13.0,-193.0,-61.0,2.0,7.0,14.0,-4.0,37.0,-84.0,1.0,0.0
9.0,-102.0,-11.0,2.0,15.0,0.0,11.0,1.0,-49.0,-17.0,0.0
44.0,175.0,60.0,-14.0,4.0,8.0,17.0,-26.0,12.0,-8.0,0.0
73.0,361.0,12.0,-36.0,-24.0,-2.0,11.0,-22.0,-4.0,3.0,0.0
49.0,245.0,-75.0,4.0,3.0,3.0,5.0,-3.0,0.0,10.0,0.0
27.0,75.0,-84.0,76.0,36.0,-15.0,-26.0,-20.0,-146.0,-16.0,0.0
18.0,27.0,-48.0,116.0,95.0,3.0,-6.0,-20.0,-26.0,-23.0,0.0
13.0,-26.0,-99.0,72.0,130.0,-3.0,10.0,-15.0,76.0,-27.0,0.0
1.0,-58.0,-17.0,37.0,119.0,-20.0,-19.0,-14.0,49.0,-50.0,0.0
10.0,40.0,95.0,65.0,74.0,-35.0,-13.0,-41.0,24.0,-57.0,0.0
55.0,244.0,175.0,56.0,25.0,-29.0,4.0,-38.0,28.0,-38.0,0.0
63.0,284.0,175.0,-63.0,-13.0,0.0,-17.0,-11.0,43.0,-10.0,0.0
34.0,190.0,164.0,-145.0,-67.0,-2.0,-14.0,-10.0,19.0,-3.0,0.0
19.0,114.0,163.0,-101.0,-120.0,-32.0,-19.0,-13.0,1.0,-3.0,0.0
10.0,42.0,109.0,2.0,-116.0,-39.0,-46.0,2.0,-44.0,0.0,0.0
-5.0,-25.0,-32.0,122.0,-30.0,-42.0,-75.0,10.0,-227.0,-7.0,0.0
-18.0,-12.0,-11.0,165.0,32.0,-5.0,-28.0,19.0,-65.0,-5.0,0.0
-7.0,-23.0,32.0,53.0,37.0,10.0,15.0,27.0,35.0,10.0,0.0
7.0,-23.0,30.0,-56.0,43.0,12.0,8.0,25.0,49.0,3.0,0.0
15.0,-2.0,13.0,-142.0,2.0,-8.0,16.0,12.0,33.0,-17.0,0.0
13.0,6.0,17.0,-111.0,-66.0,-28.0,31.0,15.0,31.0,9.0,0.0
7.0,-18.0,5.0,-42.0,-39.0,-19.0,14.0,14.0,27.0,22.0,0.0
4.0,-34.0,4.0,-30.0,-18.0,-10.0,0.0,12.0,22.0,11.0,0.0
-2.0,-39.0,-2.0,10.0,14.0,-14.0,-18.0,8.0,9.0,-8.0,0.0
-32.0,-46.0,-14.0,122.0,79.0,-25.0,-30.0,-6.0,-4.0,-17.0,0.0
-43.0,-92.0,-24.0,126.0,85.0,-33.0,-79.0,-21.0,-169.0,-34.0,0.0
-20.0,-54.0,22.0,141.0,80.0,-5.0,-62.0,-30.0,-95.0,-48.0,0.0
-14.0,-5.0,55.0,157.0,78.0,0.0,-13.0,-25.0,24.0,-39.0,0.0
-9.0,-23.0,60.0,122.0,76.0,0.0,-19.0,-2.0,24.0,-22.0,0.0
24.0,-13.0,16.0,29.0,57.0,24.0,-15.0,38.0,62.0,26.0,0.0
64.0,25.0,-42.0,-102.0,-14.0,26.0,-10.0,69.0,97.0,61.0,0.0
60.0,45.0,22.0,-76.0,-10.0,23.0,-20.0,41.0,74.0,49.0,0.0
24.0,42.0,-51.0,-3.0,31.0,15.0,-21.0,15.0,39.0,30.0,0.0
5.0,9.0,-24.0,-13.0,40.0,17.0,-32.0,6.0,28.0,23.0,0.0
-7.0,-35.0,19.0,-42.0,39.0,22.0,-58.0,3.0,-9.0,18.0,0.0
-1.0,-73.0,-10.0,-101.0,-5.0,-7.0,-94.0,-3.0,-196.0,28.0,0.0
-6.0,-63.0,-71.0,-103.0,-26.0,2.0,-59.0,6.0,-47.0,24.0,0.0
-28.0,-91.0,-117.0,-131.0,-56.0,12.0,-43.0,40.0,67.0,22.0,0.0
-31.0,-89.0,-38.0,-140.0,-91.0,9.0,-29.0,65.0,92.0,22.0,0.0
-13.0,-33.0,47.0,-51.0,-85.0,-7.0,-11.0,41.0,43.0,2.0,0.0
1.0,0.0,133.0,63.0,-68.0,-32.0,-47.0,12.0,-150.0,-20.0,0.0
3.0,24.0,129.0,74.0,-31.0,-6.0,-30.0,19.0,10.0,-18.0,0.0
-1.0,10.0,58.0,11.0,-30.0,1.0,-6.0,12.0,83.0,-5.0,0.0
-2.0,-4.0,21.0,-30.0,-35.0,-7.0,-24.0,5.0,69.0,2.0,0.0
-17.0,32.0,39.0,-19.0,-24.0,1.0,-41.0,-3.0,43.0,-15.0,0.0
-28.0,47.0,45.0,28.0,1.0,13.0,-42.0,-14.0,15.0,-31.0,0.0
-20.0,10.0,44.0,51.0,8.0,14.0,-14.0,-26.0,-2.0,-28.0,0.0
-7.0,-11.0,27.0,32.0,1.0,22.0,7.0,-19.0,-3.0,-13.0,0.0
11.0,3.0,-5.0,6.0,-12.0,24.0,24.0,9.0,27.0,7.0,0.0
30.0,-26.0,-68.0,-34.0,-31.0,4.0,36.0,18.0,-42.0,23.0,0.0
36.0,-70.0,-140.0,-79.0,-22.0,-15.0,33.0,11.0,-158.0,35.0,0.0
43.0,5.0,-68.0,-40.0,-3.0,3.0,80.0,3.0,9.0,29.0,0.0
28.0,51.0,24.0,0.0,-9.0,13.0,104.0,-7.0,26.0,13.0,0.0
26.0,81.0,53.0,4.0,-11.0,2.0,109.0,-13.0,42.0,9.0,0.0
27.0,56.0,59.0,-5.0,-16.0,-12.0,100.0,-2.0,32.0,12.0,0.0
16.0,5.0,34.0,-46.0,-20.0,-18.0,60.0,-2.0,-114.0,7.0,0.0
3.0,21.0,14.0,-47.0,0.0,16.0,46.0,18.0,-10.0,15.0,0.0
-6.0,23.0,-37.0,-47.0,7.0,33.0,27.0,19.0,89.0,25.0,0.0
-15.0,-8.0,-86.0,-42.0,7.0,25.0,2.0,14.0,76.0,9.0,0.0
-29.0,-40.0,-51.0,-3.0,13.0,26.0,-21.0,-5.0,33.0,-10.0,0.0
-34.0,-55.0,-16.0,11.0,42.0,24.0,-47.0,8.0,13.0,2.0,0.0
-22.0,-61.0,-14.0,15.0,73.0,11.0,-51.0,15.0,19.0,10.0,0.0
-44.0,-82.0,7.0,95.0,90.0,9.0,-49.0,3.0,17.0,3.0,0.0
-80.0,-107.0,17.0,165.0,110.0,26.0,-15.0,2.0,13.0,4.0,0.0
-59.0,-91.0,-57.0,109.0,67.0,17.0,0.0,3.0,-20.0,17.0,0.0
-53.0,-126.0,-95.0,27.0,-7.0,-2.0,-46.0,-5.0,-182.0,10.0,0.0
-58.0,-151.0,-20.0,39.0,6.0,37.0,-45.0,10.0,-1.0,12.0,0.0
-63.0,-175.0,-45.0,25.0,23.0,44.0,-44.0,12.0,87.0,9.0,0.0
-50.0,-79.0,-45.0,-21.0,-18.0,23.0,-42.0,-17.0,75.0,-1.0,0.0
-25.0,85.0,44.0,-63.0,-42.0,-18.0,-20.0,-47.0,52.0,-11.0,0.0
-27.0,143.0,97.0,-62.0,-18.0,-26.0,-20.0,-40.0,47.0,5.0,0.0
-41.0,71.0,70.0,0.0,63.0,-5.0,-23.0,-19.0,42.0,26.0,0.0
-57.0,-56.0,2.0,134.0,151.0,19.0,-11.0,-16.0,18.0,3.0,0.0
-61.0,-72.0,57.0,283.0,136.0,12.0,-9.0,-7.0,9.0,-10.0,0.0
-20.0,91.0,110.0,268.0,48.0,-31.0,-9.0,4.0,28.0,0.0,0.0
4.0,206.0,91.0,133.0,-6.0,-36.0,-10.0,16.0,40.0,16.0,0.0
15.0,106.0,-22.0,-17.0,-37.0,4.0,-30.0,45.0,59.0,33.0,0.0
12.0,36.0,-90.0,-136.0,-79.0,27.0,-22.0,30.0,41.0,33.0,0.0
0.0,155.0,-39.0,-157.0,-93.0,-4.0,-16.0,-22.0,-12.0,10.0,0.0
-9.0,212.0,13.0,-58.0,-30.0,-34.0,-5.0,-43.0,-65.0,-25.0,0.0
-16.0,94.0,21.0,17.0,60.0,-42.0,-34.0,-45.0,-261.0,-49.0,0.0
-21.0,40.0,15.0,37.0,114.0,12.0,-5.0,-29.0,-138.0,-37.0,0.0
-28.0,31.0,-4.0,32.0,97.0,30.0,14.0,-10.0,-23.0,-15.0,0.0
-14.0,31.0,-43.0,33.0,49.0,16.0,11.0,-4.0,4.0,-11.0,0.0
0.0,40.0,-10.0,-5.0,4.0,38.0,30.0,9.0,35.0,17.0,0.0
12.0,38.0,23.0,-80.0,-30.0,49.0,92.0,26.0,85.0,30.0,0.0
15.0,18.0,8.0,-170.0,-92.0,20.0,115.0,41.0,64.0,38.0,0.0
12.0,-3.0,-2.0,-228.0,-132.0,6.0,90.0,20.0,13.0,29.0,0.0
15.0,-1.0,31.0,-133.0,-120.0,-17.0,56.0,-12.0,-15.0,-12.0,0.0
13.0,13.0,39.0,5.0,-92.0,-32.0,39.0,-10.0,-27.0,-19.0,0.0
23.0,12.0,19.0,46.0,-110.0,-54.0,21.0,-3.0,0.0,6.0,0.0
23.0,23.0,30.0,104.0,-111.0,-69.0,34.0,-10.0,15.0,20.0,0.0
34.0,32.0,44.0,137.0,-85.0,-53.0,46.0,6.0,42.0,45.0,0.0
23.0,-11.0,10.0,23.0,-60.0,-37.0,26.0,9.0,44.0,54.0,0.0
-9.0,-89.0,-34.0,-103.0,-20.0,-35.0,-18.0,-13.0,-70.0,16.0,0.0
-39.0,-149.0,-33.0,-96.0,16.0,-40.0,-77.0,-40.0,-261.0,-23.0,0.0
-47.0,-119.0,-15.0,5.0,35.0,12.0,-33.0,-15.0,-55.0,-12.0,0.0
-22.0,-111.0,-26.0,27.0,39.0,10.0,-7.0,6.0,20.0,3.0,0.0
-3.0,-97.0,-13.0,34.0,54.0,7.0,-8.0,11.0,29.0,7.0,0.0
-11.0,-115.0,-24.0,54.0,84.0,21.0,-24.0,18.0,44.0,15.0,0.0
-23.0,-151.0,-38.0,45.0,76.0,9.0,-36.0,20.0,-14.0,9.0,0.0
-38.0,-140.0,-21.0,4.0,35.0,-41.0,-41.0,-10.0,-166.0,-28.0,0.0
-42.0,-11.0,51.0,34.0,27.0,-48.0,3.0,-44.0,-20.0,-48.0,0.0
-37.0,98.0,127.0,52.0,14.0,-51.0,-1.0,-65.0,-11.0,-56.0,0.0
-38.0,134.0,121.0,13.0,2.0,-45.0,-13.0,-54.0,-26.0,-50.0,0.0
-42.0,60.0,-23.0,-54.0,-10.0,-28.0,-32.0,-42.0,-40.0,-33.0,0.0
-53.0,-22.0,-153.0,-82.0,0.0,-6.0,-61.0,-19.0,-90.0,-31.0,0.0
-60.0,-77.0,-119.0,-103.0,2.0,1.0,-99.0,-9.0,-211.0,-28.0,0.0
-25.0,-19.0,-80.0,-71.0,-23.0,18.0,-68.0,8.0,-32.0,5.0,0.0
16.0,33.0,21.0,-51.0,-48.0,-24.0,-78.0,4.0,-151.0,20.0,0.0
35.0,107.0,66.0,32.0,-25.0,7.0,-61.0,6.0,-17.0,14.0,0.0
13.0,71.0,155.0,34.0,-5.0,47.0,-86.0,29.0,57.0,16.0,0.0
19.0,84.0,129.0,8.0,-24.0,17.0,-102.0,15.0,50.0,10.0,0.0
14.0,21.0,77.0,-28.0,-39.0,-26.0,-154.0,-12.0,-149.0,-12.0,0.0
-3.0,-125.0,-11.0,-123.0,-71.0,-96.0,-291.0,-39.0,-649.0,-28.0,0.0
-4.0,-71.0,-42.0,-94.0,-49.0,-7.0,-179.0,-9.0,-184.0,-3.0,0.0
6.0,-17.0,-44.0,-60.0,-23.0,30.0,-96.0,14.0,96.0,21.0,0.0
10.0,10.0,-65.0,-42.0,-9.0,25.0,-91.0,26.0,105.0,31.0,0.0
4.0,-13.0,-91.0,-47.0,-24.0,9.0,-90.0,36.0,-15.0,28.0,0.0
-6.0,-38.0,-43.0,-46.0,-19.0,-10.0,-89.0,23.0,-76.0,10.0,0.0
-2.0,3.0,-46.0,13.0,26.0,20.0,-25.0,23.0,96.0,16.0,0.0
-9.0,18.0,-47.0,49.0,67.0,42.0,-13.0,34.0,120.0,28.0,0.0
-18.0,4.0,-37.0,50.0,88.0,53.0,-42.0,30.0,120.0,16.0,0.0
-22.0,-11.0,-22.0,48.0,69.0,46.0,-59.0,27.0,104.0,1.0,0.0
-27.0,-43.0,-15.0,11.0,12.0,28.0,-94.0,33.0,-17.0,15.0,0.0
-34.0,-52.0,-11.0,-68.0,-49.0,3.0,-119.0,41.0,-61.0,31.0,0.0
-34.0,-5.0,-10.0,-67.0,-59.0,7.0,-89.0,34.0,93.0,35.0,0.0
-24.0,23.0,-29.0,-10.0,-17.0,17.0,-67.0,18.0,96.0,21.0,0.0
-19.0,43.0,-87.0,39.0,22.0,26.0,-42.0,14.0,84.0,14.0,0.0
-6.0,23.0,-5.0,49.0,19.0,15.0,-39.0,-14.0,60.0,6.0,0.0
9.0,25.0,65.0,38.0,13.0,0.0,-42.0,-28.0,62.0,12.0,0.0
0.0,24.0,35.0,27.0,10.0,6.0,-62.0,-27.0,82.0,8.0,0.0
-20.0,9.0,-16.0,16.0,-2.0,23.0,-79.0,-23.0,81.0,-5.0,0.0
-14.0,10.0,29.0,49.0,-9.0,7.0,-73.0,-27.0,4.0,-17.0,0.0
-12.0,-11.0,24.0,147.0,67.0,-15.0,-83.0,-29.0,-141.0,-28.0,0.0
-10.0,55.0,24.0,182.0,144.0,23.0,-46.0,-9.0,36.0,-10.0,0.0
-8.0,59.0,0.0,135.0,131.0,8.0,-30.0,-2.0,61.0,0.0,0.0
14.0,54.0,-76.0,108.0,99.0,-1.0,-36.0,0.0,47.0,6.0,0.0
40.0,31.0,-13.0,45.0,57.0,-4.0,-53.0,3.0,-25.0,11.0,0.0
58.0,0.0,53.0,-104.0,-47.0,-22.0,-83.0,29.0,-169.0,32.0,0.0
45.0,-31.0,29.0,-204.0,-142.0,-17.0,-97.0,47.0,-124.0,39.0,0.0
38.0,-12.0,25.0,-220.0,-172.0,-15.0,-83.0,18.0,49.0,17.0,0.0
10.0,8.0,9.0,-150.0,-142.0,-2.0,-82.0,9.0,74.0,-4.0,0.0
-3.0,27.0,-74.0,-83.0,-111.0,7.0,-81.0,9.0,74.0,-15.0,0.0
-1.0,68.0,-21.0,-63.0,-89.0,-10.0,-58.0,0.0,60.0,-17.0,0.0
5.0,93.0,112.0,-44.0,-61.0,-20.0,-31.0,-14.0,60.0,-19.0,0.0
11.0,81.0,131.0,-28.0,-37.0,-27.0,-5.0,-18.0,71.0,-8.0,0.0
18.0,68.0,118.0,25.0,-24.0,-29.0,1.0,-13.0,72.0,-16.0,0.0
25.0,33.0,98.0,63.0,-2.0,-18.0,-6.0,-21.0,45.0,-26.0,0.0
10.0,-7.0,38.0,70.0,49.0,5.0,10.0,-36.0,16.0,-28.0,0.0
20.0,-12.0,-62.0,54.0,106.0,30.0,30.0,-13.0,30.0,-16.0,0.0
41.0,-18.0,-90.0,19.0,107.0,47.0,38.0,25.0,47.0,1.0,0.0
17.0,-37.0,-65.0,81.0,79.0,35.0,23.0,15.0,36.0,-11.0,0.0
-2.0,-28.0,-46.0,116.0,54.0,41.0,21.0,12.0,35.0,-13.0,0.0
-4.0,-36.0,-93.0,0.0,27.0,26.0,10.0,27.0,36.0,-1.0,0.0
11.0,-41.0,-96.0,-168.0,-27.0,9.0,4.0,26.0,36.0,12.0,0.0
31.0,0.0,-76.0,-254.0,-64.0,-12.0,-2.0,18.0,35.0,14.0,0.0
57.0,66.0,-11.0,-145.0,-61.0,-9.0,10.0,9.0,53.0,22.0,0.0
58.0,51.0,54.0,-10.0,-49.0,-11.0,16.0,-12.0,-29.0,9.0,0.0
36.0,-11.0,47.0,-52.0,-64.0,-5.0,-9.0,-9.0,-156.0,-4.0,0.0
14.0,-10.0,16.0,-59.0,-27.0,55.0,15.0,9.0,15.0,-4.0,0.0
8.0,-33.0,-2.0,-53.0,24.0,62.0,37.0,21.0,29.0,7.0,0.0
-7.0,-67.0,-33.0,-6.0,55.0,56.0,33.0,35.0,30.0,12.0,0.0
-26.0,-102.0,-58.0,73.0,73.0,47.0,19.0,31.0,41.0,11.0,0.0
-22.0,-128.0,-72.0,122.0,62.0,40.0,26.0,47.0,41.0,8.0,0.0
-6.0,-151.0,-81.0,122.0,44.0,26.0,43.0,54.0,55.0,20.0,0.0
-2.0,-164.0,-39.0,100.0,8.0,11.0,52.0,39.0,52.0,14.0,0.0
4.0,-177.0,-48.0,-58.0,-79.0,-8.0,59.0,27.0,58.0,-3.0,0.0
5.0,-95.0,-58.0,-164.0,-151.0,-36.0,76.0,-1.0,49.0,-20.0,0.0
-16.0,17.0,-13.0,-85.0,-112.0,-41.0,104.0,-34.0,12.0,-57.0,0.0
-48.0,81.0,65.0,42.0,-18.0,-42.0,113.0,-68.0,-20.0,-85.0,0.0
-29.0,216.0,119.0,98.0,67.0,-24.0,131.0,-72.0,-8.0,-78.0,0.0
2.0,258.0,100.0,89.0,98.0,16.0,126.0,-54.0,13.0,-66.0,0.0
30.0,191.0,65.0,80.0,86.0,-9.0,104.0,-37.0,-128.0,-51.0,0.0
28.0,88.0,64.0,142.0,78.0,-35.0,109.0,-35.0,-154.0,-37.0,0.0
25.0,53.0,148.0,247.0,79.0,7.0,123.0,-34.0,3.0,-32.0,0.0
34.0,30.0,184.0,177.0,49.0,52.0,138.0,-26.0,33.0,-22.0,0.0
42.0,-40.0,107.0,63.0,-6.0,35.0,149.0,-18.0,39.0,-8.0,0.0
41.0,-85.0,-52.0,104.0,-27.0,-9.0,145.0,-5.0,-11.0,1.0,0.0
44.0,-37.0,-154.0,177.0,-8.0,-57.0,75.0,-22.0,-200.0,-24.0,0.0
36.0,159.0,-19.0,249.0,23.0,-42.0,87.0,-35.0,-62.0,-42.0,0.0
23.0,240.0,9.0,168.0,14.0,-34.0,94.0,-18.0,2.0,-29.0,0.0
-15.0,114.0,-64.0,-23.0,-7.0,-28.0,83.0,-26.0,-8.0,-31.0,0.0
-15.0,12.0,-89.0,-200.0,-57.0,-22.0,83.0,-22.0,-2.0,-28.0,0.0
28.0,14.0,-55.0,-314.0,-113.0,-32.0,126.0,18.0,44.0,19.0,0.0
54.0,40.0,-24.0,-280.0,-106.0,-23.0,151.0,43.0,72.0,52.0,0.0
54.0,19.0,-45.0,-195.0,-88.0,-14.0,132.0,35.0,58.0,50.0,0.0
49.0,-1.0,-105.0,-160.0,-91.0,-21.0,102.0,12.0,59.0,35.0,0.0
53.0,18.0,-119.0,-167.0,-94.0,-22.0,79.0,13.0,81.0,31.0,0.0
34.0,28.0,-75.0,-103.0,-66.0,-2.0,79.0,33.0,125.0,26.0,0.0
13.0,41.0,-12.0,32.0,-9.0,18.0,78.0,40.0,123.0,12.0,0.0
12.0,14.0,-27.0,25.0,-10.0,22.0,32.0,29.0,19.0,-6.0,0.0
-1.0,-48.0,-110.0,-79.0,-69.0,-12.0,-20.0,7.0,-190.0,-10.0,0.0
-9.0,-64.0,-103.0,-86.0,-75.0,-25.0,-28.0,1.0,-130.0,-2.0,0.0
-7.0,-77.0,-45.0,-69.0,-42.0,-33.0,-20.0,-11.0,-138.0,-4.0,0.0
6.0,-21.0,-15.0,-21.0,-2.0,20.0,23.0,11.0,49.0,7.0,0.0
2.0,1.0,4.0,12.0,16.0,46.0,40.0,20.0,68.0,3.0,0.0
1.0,5.0,26.0,24.0,27.0,23.0,28.0,14.0,67.0,3.0,0.0
4.0,-29.0,23.0,-12.0,-19.0,0.0,-7.0,1.0,-70.0,5.0,0.0
15.0,-24.0,21.0,-22.0,-38.0,-1.0,-32.0,-12.0,-125.0,-4.0,0.0
31.0,3.0,4.0,41.0,-10.0,-3.0,0.0,-35.0,11.0,-16.0,0.0
3.0,-37.0,15.0,100.0,33.0,-17.0,-4.0,-50.0,16.0,-43.0,0.0
-16.0,-65.0,-8.0,122.0,68.0,-9.0,0.0,-52.0,33.0,-31.0,0.0
-23.0,-60.0,-21.0,110.0,89.0,21.0,18.0,-40.0,61.0,-8.0,0.0
-22.0,-62.0,0.0,120.0,107.0,22.0,34.0,-28.0,73.0,-8.0,0.0
-18.0,-40.0,22.0,95.0,93.0,1.0,25.0,-26.0,68.0,1.0,0.0
-4.0,6.0,21.0,35.0,53.0,-3.0,14.0,-15.0,70.0,8.0,0.0
23.0,62.0,26.0,-57.0,-2.0,10.0,7.0,-7.0,77.0,19.0,0.0
45.0,82.0,14.0,-112.0,-53.0,23.0,5.0,0.0,58.0,38.0,0.0
26.0,13.0,-21.0,-31.0,13.0,22.0,-23.0,11.0,69.0,30.0,0.0
-8.0,-71.0,-31.0,107.0,146.0,41.0,-41.0,22.0,97.0,31.0,0.0
-21.0,-120.0,-44.0,138.0,186.0,42.0,-23.0,19.0,77.0,32.0,0.0
-14.0,-99.0,-34.0,126.0,136.0,22.0,-18.0,18.0,44.0,31.0,0.0
-18.0,-129.0,-123.0,81.0,68.0,6.0,-36.0,11.0,-142.0,33.0,0.0
-18.0,-160.0,-140.0,33.0,56.0,36.0,2.0,39.0,-28.0,39.0,0.0
-33.0,-203.0,-98.0,-74.0,18.0,58.0,68.0,76.0,98.0,42.0,0.0
-35.0,-218.0,-64.0,-216.0,-78.0,9.0,91.0,61.0,76.0,28.0,0.0
-19.0,-61.0,40.0,-226.0,-139.0,-55.0,111.0,-14.0,13.0,-10.0,0.0
5.0,227.0,157.0,-120.0,-118.0,-88.0,109.0,-71.0,-60.0,-40.0,0.0
15.0,286.0,188.0,15.0,-72.0,-81.0,79.0,-70.0,-79.0,-36.0,0.0
8.0,139.0,74.0,59.0,-30.0,-44.0,75.0,-31.0,-31.0,-11.0,0.0
-11.0,36.0,1.0,-8.0,-22.0,-17.0,72.0,-12.0,0.0,-6.0,0.0
-34.0,9.0,41.0,-53.0,-23.0,2.0,57.0,-40.0,-11.0,-26.0,0.0
-60.0,34.0,9.0,-59.0,-6.0,15.0,61.0,-57.0,-29.0,-40.0,0.0
-47.0,170.0,-78.0,-63.0,-4.0,-30.0,45.0,-53.0,-134.0,-36.0,0.0
-28.0,231.0,-108.0,-29.0,-20.0,-56.0,30.0,-31.0,-158.0,-15.0,0.0
-35.0,188.0,-76.0,6.0,-3.0,-23.0,46.0,-15.0,39.0,4.0,0.0
-53.0,65.0,2.0,11.0,14.0,7.0,36.0,-20.0,56.0,1.0,0.0
-54.0,20.0,25.0,11.0,23.0,39.0,41.0,-11.0,56.0,0.0,0.0
-51.0,24.0,27.0,0.0,17.0,31.0,30.0,11.0,13.0,-6.0,0.0
-53.0,1.0,24.0,-44.0,-21.0,-24.0,7.0,25.0,-155.0,-7.0,0.0
-36.0,35.0,39.0,-35.0,-42.0,-9.0,60.0,36.0,0.0,0.0,0.0
-36.0,51.0,43.0,-4.0,-27.0,9.0,78.0,17.0,65.0,-3.0,0.0
-38.0,41.0,38.0,8.0,-14.0,8.0,99.0,12.0,71.0,-1.0,0.0
-55.0,24.0,13.0,0.0,6.0,5.0,130.0,11.0,90.0,13.0,0.0
-58.0,16.0,11.0,-9.0,8.0,-3.0,115.0,6.0,73.0,12.0,0.0
-42.0,15.0,-6.0,-5.0,-2.0,0.0,66.0,0.0,53.0,17.0,0.0
-23.0,6.0,-34.0,-10.0,-28.0,1.0,60.0,-12.0,27.0,18.0,0.0
-2.0,-5.0,19.0,-27.0,-47.0,-8.0,61.0,-13.0,14.0,17.0,0.0
1.0,-9.0,33.0,-35.0,-39.0,-8.0,50.0,-19.0,11.0,14.0,0.0
-13.0,-3.0,29.0,-24.0,-20.0,5.0,34.0,3.0,12.0,14.0,0.0
-18.0,13.0,27.0,4.0,5.0,7.0,14.0,23.0,6.0,25.0,0.0
-6.0,-6.0,19.0,21.0,11.0,2.0,6.0,4.0,-15.0,10.0,0.0
-29.0,-56.0,-81.0,34.0,24.0,-6.0,-19.0,-16.0,-31.0,-6.0,0.0
-47.0,-80.0,-141.0,122.0,92.0,-9.0,-11.0,-21.0,-47.0,-18.0,0.0
-36.0,-76.0,-124.0,215.0,156.0,-1.0,-2.0,-35.0,-64.0,-29.0,0.0
-39.0,-77.0,-80.0,236.0,178.0,10.0,5.0,-43.0,-75.0,-48.0,0.0
-71.0,-92.0,-24.0,257.0,143.0,28.0,18.0,-34.0,-65.0,-40.0,0.0
-58.0,-102.0,-17.0,252.0,109.0,34.0,36.0,-3.0,-16.0,-12.0,0.0
-9.0,-68.0,27.0,133.0,69.0,55.0,50.0,33.0,38.0,19.0,0.0
18.0,-47.0,5.0,-127.0,-42.0,59.0,70.0,56.0,62.0,32.0,0.0
23.0,-71.0,-58.0,-341.0,-139.0,25.0,88.0,52.0,69.0,20.0,0.0
1.0,-101.0,-64.0,-318.0,-123.0,-2.0,71.0,18.0,57.0,-3.0,0.0
-11.0,-117.0,-26.0,-227.0,-74.0,-12.0,53.0,-4.0,57.0,-4.0,0.0
14.0,-40.0,83.0,-133.0,-53.0,-27.0,66.0,-17.0,32.0,0.0,0.0
40.0,125.0,181.0,-2.0,-67.0,-51.0,55.0,-23.0,-131.0,2.0,0.0
46.0,220.0,184.0,144.0,-70.0,-74.0,35.0,-23.0,-158.0,-6.0,0.0
28.0,138.0,139.0,256.0,-51.0,-68.0,46.0,-23.0,-91.0,-17.0,0.0
8.0,29.0,97.0,237.0,-45.0,-65.0,30.0,-19.0,-142.0,-10.0,0.0
3.0,16.0,37.0,140.0,-30.0,-40.0,50.0,-21.0,11.0,-17.0,0.0
-20.0,-8.0,-89.0,-18.0,-38.0,-50.0,41.0,-45.0,-9.0,-44.0,0.0
-37.0,-13.0,-52.0,-126.0,-21.0,-52.0,41.0,-64.0,-37.0,-63.0,0.0
-27.0,-61.0,21.0,-101.0,20.0,-40.0,61.0,-62.0,-58.0,-60.0,0.0
-25.0,-84.0,18.0,-23.0,35.0,-26.0,72.0,-63.0,-57.0,-62.0,0.0
-15.0,-55.0,30.0,3.0,2.0,-38.0,80.0,-78.0,-61.0,-54.0,0.0
-14.0,48.0,77.0,18.0,5.0,-31.0,91.0,-71.0,-53.0,-55.0,0.0
-11.0,119.0,107.0,65.0,69.0,1.0,105.0,-48.0,-29.0,-41.0,0.0
-3.0,37.0,36.0,94.0,142.0,55.0,104.0,-5.0,14.0,1.0,0.0
7.0,-17.0,-16.0,66.0,143.0,81.0,97.0,31.0,50.0,25.0,0.0
13.0,-41.0,-24.0,53.0,115.0,77.0,87.0,41.0,58.0,36.0,0.0
32.0,-28.0,7.0,48.0,54.0,57.0,94.0,37.0,73.0,34.0,0.0
42.0,3.0,43.0,22.0,-26.0,15.0,100.0,25.0,72.0,22.0,0.0
40.0,17.0,33.0,-13.0,-67.0,0.0,96.0,24.0,58.0,25.0,0.0
53.0,-12.0,1.0,-88.0,-105.0,-29.0,44.0,44.0,-97.0,31.0,0.0
71.0,-10.0,-4.0,-105.0,-105.0,-47.0,49.0,53.0,-49.0,39.0,0.0
56.0,-7.0,-12.0,-76.0,-65.0,-26.0,37.0,46.0,75.0,31.0,0.0
39.0,-13.0,-26.0,-81.0,-28.0,-5.0,13.0,33.0,73.0,17.0,0.0
29.0,13.0,-32.0,-92.0,-34.0,-7.0,0.0,18.0,47.0,8.0,0.0
25.0,7.0,-107.0,-68.0,-25.0,-10.0,-11.0,6.0,28.0,-5.0,0.0
6.0,-14.0,-67.0,5.0,4.0,31.0,14.0,13.0,21.0,0.0,0.0
3.0,-8.0,-19.0,42.0,2.0,54.0,33.0,29.0,21.0,5.0,0.0
1.0,-44.0,-83.0,53.0,-23.0,31.0,27.0,21.0,8.0,-3.0,0.0
1.0,-71.0,-68.0,31.0,-4.0,-2.0,7.0,14.0,6.0,0.0,0.0
-4.0,-90.0,-3.0,-11.0,28.0,-11.0,1.0,7.0,-4.0,6.0,0.0
-7.0,-92.0,2.0,13.0,60.0,-2.0,14.0,2.0,-13.0,0.0,0.0
-22.0,-100.0,-6.0,70.0,75.0,7.0,16.0,-1.0,-9.0,-11.0,0.0
-38.0,-119.0,-2.0,77.0,99.0,10.0,-2.0,2.0,2.0,-8.0,0.0
-48.0,-125.0,-1.0,43.0,107.0,6.0,-41.0,-6.0,-3.0,-21.0,0.0
-38.0,-87.0,2.0,-41.0,43.0,-22.0,-50.0,-12.0,0.0,-44.0,0.0
0.0,99.0,49.0,-5.0,-41.0,-42.0,-47.0,-10.0,13.0,-34.0,0.0
58.0,254.0,151.0,175.0,-59.0,-12.0,-23.0,36.0,72.0,18.0,0.0
82.0,186.0,162.0,151.0,-126.0,-26.0,-32.0,61.0,42.0,62.0,0.0
19.0,-113.0,56.0,-86.0,-177.0,-168.0,-277.0,-16.0,-770.0,13.0,0.0
-22.0,-188.0,43.0,-113.0,-106.0,-172.0,-331.0,-53.0,-832.0,-35.0,0.0
-9.0,-7.0,133.0,-11.0,14.0,-9.0,-17.0,-10.0,53.0,-13.0,0.0
-10.0,2.0,156.0,-21.0,35.0,43.0,3.0,0.0,138.0,-13.0,0.0
-23.0,-25.0,143.0,48.0,56.0,57.0,-31.0,13.0,104.0,-22.0,0.0
-39.0,-105.0,92.0,81.0,62.0,4.0,-71.0,9.0,-89.0,-26.0,0.0
-27.0,-76.0,122.0,138.0,81.0,-11.0,-44.0,-1.0,45.0,-30.0,0.0
-23.0,79.0,163.0,188.0,73.0,-24.0,-22.0,-21.0,83.0,-26.0,0.0
-9.0,145.0,58.0,123.0,51.0,-20.0,-19.0,-19.0,61.0,-5.0,0.0
17.0,95.0,-79.0,-16.0,4.0,-6.0,-8.0,5.0,66.0,37.0,0.0
20.0,11.0,-187.0,-72.0,-1.0,-2.0,-19.0,19.0,75.0,43.0,0.0
13.0,-37.0,-116.0,-99.0,6.0,1.0,-34.0,18.0,78.0,38.0,0.0
16.0,-43.0,-80.0,-149.0,-20.0,21.0,-37.0,20.0,90.0,24.0,0.0
14.0,-43.0,-135.0,-225.0,-69.0,30.0,-27.0,54.0,140.0,47.0,0.0
45.0,7.0,-111.0,-220.0,-90.0,7.0,-6.0,43.0,123.0,52.0,0.0
50.0,97.0,-20.0,-167.0,-71.0,-39.0,-41.0,11.0,-85.0,4.0,0.0
24.0,84.0,-17.0,-82.0,-37.0,-37.0,-54.0,-6.0,-106.0,-12.0,0.0
18.0,23.0,-28.0,-22.0,-13.0,-20.0,-28.0,-1.0,30.0,-19.0,0.0
21.0,0.0,-62.0,39.0,-2.0,-9.0,-40.0,9.0,46.0,-24.0,0.0
42.0,24.0,-74.0,70.0,15.0,21.0,-12.0,22.0,72.0,1.0,0.0
37.0,44.0,-50.0,26.0,31.0,23.0,0.0,8.0,87.0,3.0,0.0
17.0,41.0,4.0,-5.0,19.0,-1.0,-37.0,4.0,70.0,-7.0,0.0
25.0,46.0,49.0,-3.0,-4.0,-8.0,-50.0,5.0,55.0,-25.0,0.0
36.0,72.0,84.0,-10.0,-21.0,-9.0,-60.0,2.0,55.0,-27.0,0.0
42.0,79.0,75.0,-10.0,-27.0,-18.0,-86.0,0.0,17.0,-5.0,0.0
35.0,40.0,13.0,-19.0,-20.0,-31.0,-149.0,-5.0,-155.0,2.0,0.0
24.0,30.0,55.0,-5.0,0.0,10.0,-144.0,0.0,-46.0,-1.0,0.0
24.0,21.0,36.0,2.0,16.0,28.0,-137.0,7.0,63.0,0.0,0.0
11.0,-7.0,-26.0,-8.0,19.0,20.0,-170.0,6.0,65.0,7.0,0.0
-10.0,-39.0,-77.0,-11.0,25.0,28.0,-212.0,13.0,52.0,2.0,0.0
-32.0,-83.0,-99.0,-10.0,32.0,63.0,-244.0,22.0,50.0,8.0,0.0
-36.0,-119.0,-207.0,-11.0,53.0,72.0,-265.0,45.0,58.0,15.0,0.0
-8.0,-136.0,-221.0,-21.0,52.0,54.0,-251.0,48.0,67.0,35.0,0.0
0.0,-135.0,-149.0,-25.0,36.0,51.0,-237.0,48.0,80.0,43.0,0.0
-6.0,-125.0,-79.0,6.0,25.0,45.0,-226.0,43.0,79.0,25.0,0.0
-24.0,-140.0,-39.0,25.0,17.0,48.0,-230.0,24.0,61.0,10.0,0.0
-33.0,-168.0,-78.0,18.0,19.0,35.0,-242.0,23.0,-57.0,0.0,0.0
-33.0,-165.0,-49.0,4.0,14.0,19.0,-264.0,43.0,-66.0,-13.0,0.0
4.0,16.0,38.0,11.0,3.0,16.0,-227.0,19.0,84.0,-26.0,0.0
37.0,259.0,133.0,1.0,0.0,2.0,-216.0,-19.0,46.0,-33.0,0.0
47.0,332.0,150.0,8.0,12.0,10.0,-194.0,-18.0,33.0,-27.0,0.0
46.0,242.0,154.0,10.0,16.0,11.0,-177.0,-5.0,31.0,-10.0,0.0
59.0,157.0,137.0,24.0,27.0,24.0,-175.0,5.0,16.0,11.0,0.0
37.0,137.0,126.0,25.0,22.0,6.0,-178.0,-39.0,-14.0,-15.0,0.0
17.0,118.0,116.0,-8.0,2.0,-29.0,-223.0,-64.0,-132.0,-42.0,0.0
-3.0,-93.0,41.0,-145.0,-47.0,-160.0,-519.0,-73.0,-1035.0,-52.0,0.0
-3.0,-117.0,36.0,-130.0,-34.0,-136.0,-558.0,-64.0,-966.0,-46.0,0.0
15.0,57.0,57.0,20.0,48.0,-1.0,-252.0,-24.0,-69.0,-15.0,0.0
9.0,65.0,59.0,62.0,98.0,15.0,-200.0,-18.0,46.0,-11.0,0.0
-64.0,-186.0,68.0,178.0,147.0,-93.0,-350.0,-78.0,-835.0,-103.0,0.0
-13.0,-165.0,-46.0,182.0,26.0,-90.0,-243.0,-32.0,-597.0,-53.0,0.0
73.0,-109.0,-79.0,-28.0,-144.0,-94.0,-210.0,31.0,-548.0,32.0,0.0
130.0,0.0,-22.0,-241.0,-245.0,-29.0,-51.0,99.0,-86.0,103.0,0.0
92.0,-54.0,-77.0,-352.0,-175.0,-54.0,-44.0,82.0,-175.0,86.0,0.0
18.0,-134.0,-97.0,-302.0,-76.0,-104.0,-126.0,17.0,-422.0,31.0,0.0
2.0,-38.0,-43.0,-124.0,-24.0,-8.0,15.0,8.0,66.0,24.0,0.0
-3.0,35.0,70.0,100.0,-24.0,24.0,36.0,-11.0,274.0,16.0,0.0
1.0,5.0,71.0,68.0,-5.0,22.0,24.0,-13.0,156.0,2.0,0.0
27.0,32.0,57.0,-12.0,0.0,50.0,40.0,10.0,161.0,23.0,0.0
2.0,29.0,7.0,-36.0,24.0,54.0,104.0,35.0,307.0,11.0,0.0
14.0,14.0,-37.0,1.0,15.0,32.0,92.0,29.0,145.0,5.0,0.0
11.0,22.0,-62.0,17.0,10.0,28.0,89.0,37.0,135.0,1.0,0.0
-3.0,-56.0,-14.0,-72.0,-20.0,-28.0,-11.0,20.0,-254.0,-4.0,0.0
3.0,1.0,17.0,-47.0,-58.0,36.0,158.0,27.0,346.0,20.0,0.0
2.0,-20.0,-4.0,-16.0,-50.0,21.0,148.0,35.0,316.0,13.0,0.0
-2.0,-112.0,-76.0,14.0,-36.0,-1.0,55.0,30.0,-69.0,21.0,0.0
-29.0,-236.0,-137.0,21.0,-8.0,-12.0,-4.0,30.0,-295.0,30.0,0.0
-41.0,-174.0,-122.0,78.0,48.0,71.0,122.0,52.0,188.0,33.0,0.0
-44.0,-146.0,-141.0,92.0,75.0,94.0,127.0,64.0,291.0,37.0,0.0
-44.0,-163.0,-177.0,61.0,63.0,55.0,55.0,68.0,142.0,31.0,0.0
-29.0,-137.0,-83.0,83.0,66.0,76.0,74.0,61.0,289.0,37.0,0.0
8.0,-195.0,-69.0,122.0,86.0,90.0,87.0,52.0,342.0,27.0,0.0
15.0,-226.0,-95.0,145.0,104.0,98.0,95.0,31.0,314.0,5.0,0.0
-2.0,-70.0,-77.0,130.0,83.0,64.0,84.0,-42.0,200.0,-52.0,0.0
10.0,281.0,102.0,67.0,39.0,-1.0,49.0,-94.0,-47.0,-87.0,0.0
0.0,455.0,262.0,45.0,50.0,5.0,65.0,-73.0,110.0,-78.0,0.0
-30.0,317.0,247.0,93.0,82.0,34.0,49.0,-75.0,163.0,-66.0,0.0
-16.0,222.0,221.0,180.0,84.0,38.0,32.0,-88.0,150.0,-64.0,0.0
6.0,138.0,163.0,158.0,54.0,19.0,42.0,-75.0,171.0,-48.0,0.0
29.0,83.0,68.0,84.0,10.0,16.0,63.0,-28.0,174.0,-6.0,0.0
40.0,110.0,10.0,16.0,-20.0,38.0,73.0,7.0,178.0,19.0,0.0
28.0,160.0,27.0,-5.0,-40.0,15.0,49.0,-7.0,157.0,10.0,0.0
15.0,143.0,13.0,-24.0,-50.0,2.0,33.0,-22.0,128.0,-5.0,0.0
-3.0,98.0,48.0,-28.0,-30.0,12.0,9.0,-17.0,94.0,-1.0,0.0
-17.0,48.0,46.0,-49.0,-6.0,1.0,-47.0,-10.0,-76.0,12.0,0.0
-16.0,57.0,7.0,-49.0,49.0,8.0,-51.0,-23.0,-51.0,9.0,0.0
-5.0,127.0,-41.0,-2.0,108.0,42.0,-24.0,-10.0,89.0,13.0,0.0
9.0,144.0,16.0,-2.0,85.0,36.0,-34.0,8.0,107.0,15.0,0.0
16.0,96.0,67.0,7.0,15.0,36.0,-35.0,16.0,100.0,21.0,0.0
4.0,53.0,42.0,8.0,-7.0,26.0,-22.0,3.0,77.0,5.0,0.0
-26.0,-27.0,-70.0,-64.0,-10.0,3.0,-32.0,-19.0,16.0,-37.0,0.0
-26.0,-64.0,-94.0,-113.0,-28.0,-17.0,-23.0,-28.0,4.0,-43.0,0.0
-29.0,-51.0,-23.0,16.0,-34.0,-35.0,-5.0,-32.0,16.0,-31.0,0.0
-4.0,-35.0,-13.0,264.0,-19.0,-9.0,-24.0,-22.0,-1.0,-17.0,0.0
15.0,-46.0,21.0,264.0,-54.0,-48.0,-48.0,-11.0,-168.0,0.0,0.0
20.0,-27.0,104.0,89.0,-108.0,-71.0,5.0,26.0,2.0,28.0,0.0
32.0,-1.0,99.0,-75.0,-138.0,-50.0,34.0,63.0,113.0,49.0,0.0
42.0,55.0,73.0,-111.0,-129.0,-34.0,21.0,59.0,117.0,41.0,0.0
44.0,56.0,46.0,-70.0,-102.0,-25.0,-7.0,40.0,72.0,30.0,0.0
18.0,-42.0,-15.0,-82.0,-73.0,-18.0,-49.0,31.0,-91.0,17.0,0.0
-4.0,-98.0,-58.0,-79.0,-37.0,27.0,-37.0,21.0,54.0,-1.0,0.0
-23.0,-119.0,-104.0,-73.0,-47.0,18.0,-55.0,7.0,91.0,-6.0,0.0
-32.0,-127.0,-125.0,-44.0,-54.0,0.0,-71.0,8.0,83.0,-8.0,0.0
-40.0,-140.0,-73.0,-17.0,-21.0,-17.0,-91.0,0.0,16.0,-24.0,0.0
-51.0,-194.0,-54.0,-9.0,37.0,-21.0,-135.0,-8.0,-190.0,-48.0,0.0
-30.0,-130.0,28.0,35.0,105.0,6.0,-118.0,3.0,-28.0,-49.0,0.0
10.0,0.0,88.0,24.0,82.0,3.0,-90.0,-4.0,33.0,-18.0,0.0
52.0,163.0,119.0,-27.0,-21.0,12.0,-47.0,12.0,59.0,24.0,0.0
47.0,132.0,91.0,-78.0,-115.0,15.0,-11.0,29.0,2.0,44.0,0.0
10.0,-11.0,4.0,-75.0,-93.0,-18.0,-37.0,23.0,-153.0,21.0,0.0
-16.0,-40.0,-63.0,5.0,-25.0,0.0,-13.0,22.0,8.0,-8.0,0.0
-20.0,-35.0,-131.0,35.0,1.0,15.0,-20.0,16.0,14.0,-22.0,0.0
-24.0,-34.0,-56.0,43.0,15.0,9.0,-40.0,-6.0,-5.0,-30.0,0.0
-21.0,23.0,31.0,13.0,6.0,-34.0,-29.0,-34.0,-85.0,-42.0,0.0
0.0,175.0,114.0,-1.0,2.0,-58.0,-26.0,-40.0,-164.0,-45.0,0.0
20.0,207.0,165.0,44.0,14.0,-15.0,0.0,-19.0,20.0,0.0,0.0
54.0,78.0,137.0,37.0,11.0,4.0,12.0,3.0,32.0,31.0,0.0
45.0,47.0,115.0,40.0,36.0,24.0,-2.0,34.0,45.0,36.0,0.0
11.0,32.0,67.0,44.0,71.0,36.0,-40.0,36.0,56.0,18.0,0.0
-15.0,50.0,52.0,75.0,86.0,37.0,-64.0,27.0,58.0,6.0,0.0
-24.0,34.0,51.0,89.0,74.0,25.0,-75.0,7.0,24.0,-4.0,0.0
-32.0,9.0,42.0,78.0,49.0,2.0,-74.0,-21.0,0.0,-11.0,0.0
-20.0,11.0,1.0,47.0,42.0,-16.0,-48.0,-23.0,20.0,-3.0,0.0
-6.0,8.0,-28.0,3.0,39.0,-13.0,16.0,-13.0,56.0,21.0,0.0
13.0,-21.0,-64.0,-25.0,47.0,10.0,33.0,-13.0,70.0,28.0,0.0
-3.0,-29.0,-89.0,-48.0,78.0,25.0,17.0,-14.0,74.0,14.0,0.0
-10.0,0.0,-65.0,17.0,84.0,23.0,18.0,1.0,81.0,23.0,0.0
0.0,-6.0,-78.0,121.0,42.0,23.0,6.0,14.0,78.0,31.0,0.0
9.0,-3.0,4.0,140.0,-6.0,9.0,27.0,24.0,67.0,38.0,0.0
16.0,28.0,48.0,136.0,-23.0,-7.0,32.0,31.0,71.0,48.0,0.0
12.0,29.0,42.0,94.0,-15.0,-5.0,6.0,24.0,64.0,45.0,0.0
-9.0,0.0,19.0,-19.0,-10.0,2.0,18.0,10.0,25.0,34.0,0.0
-30.0,-47.0,-23.0,-96.0,8.0,-14.0,46.0,-29.0,-10.0,-7.0,0.0
-30.0,-75.0,-70.0,-20.0,68.0,-17.0,37.0,-43.0,-14.0,-3.0,0.0
-33.0,-73.0,-145.0,64.0,91.0,-6.0,14.0,-20.0,-4.0,3.0,0.0
-46.0,-64.0,-91.0,38.0,67.0,0.0,-5.0,-16.0,3.0,8.0,0.0
-32.0,-81.0,-57.0,-46.0,13.0,-12.0,-3.0,-25.0,-13.0,13.0,0.0
-21.0,-80.0,-62.0,-103.0,-10.0,-9.0,7.0,-20.0,-26.0,-9.0,0.0
-14.0,-86.0,-36.0,-138.0,-19.0,2.0,-4.0,-14.0,-138.0,-10.0,0.0
7.0,-38.0,0.0,-175.0,-58.0,-8.0,9.0,-5.0,-170.0,9.0,0.0
18.0,52.0,36.0,-130.0,-58.0,1.0,55.0,17.0,30.0,16.0,0.0
6.0,19.0,35.0,-68.0,-33.0,-9.0,40.0,20.0,46.0,9.0,0.0
9.0,1.0,36.0,-36.0,-16.0,1.0,11.0,5.0,36.0,-7.0,0.0
17.0,-21.0,27.0,-22.0,3.0,-8.0,-5.0,-12.0,-88.0,-17.0,0.0
24.0,-36.0,8.0,20.0,1.0,-21.0,-11.0,-4.0,-123.0,-8.0,0.0
28.0,-1.0,-8.0,75.0,-5.0,5.0,25.0,16.0,58.0,12.0,0.0
15.0,-33.0,-128.0,72.0,20.0,20.0,16.0,21.0,67.0,21.0,0.0
2.0,-45.0,-197.0,52.0,63.0,21.0,-8.0,38.0,60.0,22.0,0.0
-6.0,-74.0,-105.0,2.0,79.0,0.0,-34.0,25.0,-106.0,9.0,0.0
-6.0,-84.0,-39.0,-24.0,46.0,-2.0,-52.0,18.0,-127.0,-5.0,0.0
12.0,-29.0,-27.0,-91.0,-29.0,7.0,-42.0,38.0,24.0,18.0,0.0
3.0,-64.0,7.0,-143.0,-59.0,0.0,-58.0,41.0,34.0,24.0,0.0
1.0,-53.0,17.0,-101.0,-43.0,-10.0,-36.0,22.0,19.0,17.0,0.0
4.0,-12.0,13.0,-92.0,-46.0,-16.0,-38.0,-2.0,8.0,9.0,0.0
3.0,-19.0,13.0,-106.0,-42.0,1.0,-62.0,-9.0,10.0,8.0,0.0
-7.0,-81.0,-54.0,-104.0,15.0,38.0,-71.0,14.0,30.0,25.0,0.0
-4.0,-82.0,-68.0,-146.0,8.0,21.0,-74.0,2.0,24.0,20.0,0.0
18.0,85.0,-15.0,-137.0,-37.0,-14.0,-46.0,-12.0,23.0,17.0,0.0
15.0,114.0,10.0,-53.0,-16.0,-20.0,-18.0,-4.0,54.0,18.0,0.0
25.0,88.0,48.0,65.0,26.0,9.0,4.0,16.0,82.0,30.0,0.0
29.0,59.0,32.0,63.0,53.0,4.0,-1.0,31.0,83.0,33.0,0.0
5.0,0.0,-94.0,29.0,73.0,-18.0,-6.0,31.0,60.0,21.0,0.0
-18.0,22.0,-58.0,202.0,43.0,-67.0,-21.0,-12.0,12.0,0.0,0.0
-22.0,39.0,136.0,379.0,4.0,-80.0,-46.0,-69.0,-51.0,-46.0,0.0
-15.0,16.0,253.0,329.0,-10.0,-44.0,-53.0,-78.0,-69.0,-64.0,0.0
-9.0,11.0,217.0,119.0,-53.0,-28.0,-41.0,-71.0,-60.0,-60.0,0.0
6.0,115.0,170.0,-62.0,-117.0,-57.0,-44.0,-69.0,-72.0,-62.0,0.0
13.0,182.0,139.0,-97.0,-98.0,-56.0,-49.0,-46.0,-51.0,-56.0,0.0
7.0,117.0,78.0,-56.0,-13.0,-19.0,-49.0,-31.0,-23.0,-32.0,0.0
10.0,52.0,-19.0,-23.0,64.0,30.0,-48.0,-4.0,-3.0,-7.0,0.0
2.0,31.0,-54.0,-25.0,53.0,37.0,-28.0,12.0,-12.0,1.0,0.0
-11.0,7.0,-20.0,-14.0,13.0,19.0,-9.0,0.0,-22.0,-8.0,0.0
-26.0,-3.0,28.0,9.0,-6.0,9.0,-29.0,-12.0,-41.0,-5.0,0.0
-54.0,-38.0,48.0,11.0,-22.0,-16.0,-82.0,-14.0,-212.0,-8.0,0.0
-63.0,-50.0,55.0,-17.0,-37.0,-34.0,-66.0,-20.0,-166.0,-5.0,0.0
-40.0,-25.0,26.0,19.0,-45.0,-28.0,-12.0,-15.0,-14.0,12.0,0.0
-28.0,-20.0,-15.0,58.0,0.0,-10.0,0.0,15.0,25.0,36.0,0.0
-1.0,11.0,-27.0,59.0,27.0,13.0,33.0,32.0,45.0,40.0,0.0
2.0,12.0,-19.0,0.0,8.0,27.0,67.0,12.0,32.0,30.0,0.0
13.0,4.0,-7.0,-46.0,-4.0,18.0,82.0,8.0,30.0,35.0,0.0
3.0,-14.0,-10.0,-53.0,7.0,15.0,90.0,8.0,26.0,38.0,0.0
-1.0,-29.0,-21.0,-68.0,10.0,17.0,78.0,12.0,18.0,38.0,0.0
-2.0,-51.0,-32.0,-32.0,2.0,12.0,69.0,12.0,-6.0,28.0,0.0
-21.0,-55.0,-24.0,36.0,43.0,13.0,42.0,4.0,-18.0,10.0,0.0
-27.0,-33.0,15.0,72.0,79.0,15.0,26.0,19.0,3.0,2.0,0.0
-7.0,-21.0,40.0,33.0,70.0,21.0,-14.0,21.0,29.0,0.0,0.0
0.0,-15.0,27.0,50.0,51.0,20.0,-2.0,-15.0,24.0,-10.0,0.0
26.0,-14.0,-1.0,20.0,11.0,-22.0,-46.0,-23.0,-193.0,-7.0,0.0
31.0,-101.0,-47.0,-143.0,-85.0,-118.0,-226.0,-17.0,-788.0,-4.0,0.0
7.0,-20.0,-60.0,-134.0,-86.0,-25.0,-107.0,11.0,-230.0,9.0,0.0
9.0,24.0,-84.0,-96.0,-41.0,28.0,-6.0,45.0,108.0,33.0,0.0
21.0,31.0,-32.0,-41.0,17.0,33.0,-7.0,54.0,116.0,48.0,0.0
16.0,-23.0,-3.0,-15.0,36.0,21.0,-42.0,26.0,-11.0,37.0,0.0
12.0,-39.0,5.0,8.0,45.0,30.0,-64.0,2.0,-65.0,27.0,0.0
21.0,9.0,5.0,25.0,55.0,58.0,-21.0,11.0,95.0,30.0,0.0
35.0,29.0,-34.0,1.0,36.0,57.0,4.0,12.0,88.0,27.0,0.0
30.0,24.0,-37.0,1.0,22.0,48.0,-2.0,5.0,80.0,19.0,0.0
11.0,2.0,-37.0,37.0,52.0,40.0,10.0,2.0,87.0,9.0,0.0
5.0,1.0,-89.0,39.0,78.0,57.0,28.0,22.0,106.0,17.0,0.0
27.0,25.0,-143.0,33.0,83.0,71.0,-10.0,39.0,114.0,30.0,0.0
23.0,34.0,-60.0,12.0,75.0,75.0,-33.0,48.0,140.0,22.0,0.0
20.0,22.0,-14.0,-20.0,53.0,62.0,-54.0,25.0,126.0,24.0,0.0
14.0,-2.0,-66.0,-38.0,27.0,59.0,-71.0,20.0,96.0,20.0,0.0
10.0,2.0,-118.0,-50.0,9.0,59.0,-81.0,30.0,99.0,8.0,0.0
18.0,16.0,-22.0,-14.0,12.0,60.0,-87.0,30.0,108.0,12.0,0.0
6.0,-1.0,50.0,69.0,14.0,31.0,-106.0,2.0,73.0,2.0,0.0
-2.0,-39.0,75.0,130.0,12.0,26.0,-93.0,-24.0,37.0,-10.0,0.0
10.0,-70.0,36.0,110.0,21.0,21.0,-69.0,6.0,54.0,11.0,0.0
-2.0,-119.0,-32.0,53.0,24.0,27.0,-79.0,19.0,65.0,19.0,0.0
-46.0,-186.0,-106.0,56.0,30.0,17.0,-95.0,-5.0,22.0,-9.0,0.0
-76.0,-255.0,-147.0,81.0,54.0,14.0,-114.0,-24.0,-21.0,-35.0,0.0
-55.0,-241.0,-68.0,32.0,20.0,-9.0,-130.0,-30.0,-31.0,-36.0,0.0
5.0,-11.0,94.0,-28.0,-56.0,-55.0,-100.0,-52.0,-42.0,-29.0,0.0
49.0,293.0,201.0,-47.0,-86.0,-59.0,-88.0,-48.0,-42.0,-19.0,0.0
51.0,358.0,165.0,-24.0,-51.0,-33.0,-100.0,-27.0,-21.0,-12.0,0.0
37.0,271.0,91.0,2.0,-22.0,-24.0,-105.0,-2.0,-4.0,0.0,0.0
27.0,177.0,39.0,-24.0,-43.0,-26.0,-101.0,13.0,8.0,2.0,0.0
9.0,89.0,-17.0,-16.0,-32.0,-14.0,-93.0,-6.0,7.0,-6.0,0.0
-3.0,30.0,-117.0,27.0,24.0,-2.0,-108.0,-23.0,8.0,-23.0,0.0
-17.0,37.0,-53.0,51.0,47.0,3.0,-99.0,-9.0,43.0,-19.0,0.0
-17.0,43.0,-37.0,54.0,50.0,13.0,-81.0,-5.0,69.0,-13.0,0.0
-15.0,30.0,21.0,51.0,39.0,19.0,-64.0,3.0,76.0,-8.0,0.0
-12.0,29.0,74.0,34.0,0.0,30.0,-48.0,12.0,62.0,-9.0,0.0
9.0,52.0,95.0,-17.0,-38.0,22.0,-50.0,24.0,69.0,5.0,0.0
10.0,10.0,75.0,-75.0,-65.0,23.0,-45.0,35.0,65.0,26.0,0.0
-20.0,-16.0,39.0,-68.0,-47.0,20.0,-47.0,35.0,34.0,20.0,0.0
-7.0,-7.0,25.0,-28.0,-29.0,0.0,-79.0,0.0,-4.0,-8.0,0.0
-1.0,-7.0,26.0,-2.0,-27.0,-10.0,-103.0,-12.0,-18.0,-22.0,0.0
-22.0,-30.0,6.0,-7.0,-50.0,-12.0,-96.0,-12.0,-23.0,-17.0,0.0
-11.0,-3.0,-4.0,-20.0,-44.0,-17.0,-69.0,-29.0,0.0,-7.0,0.0
6.0,26.0,-56.0,-35.0,0.0,-8.0,-43.0,-4.0,36.0,5.0,0.0
10.0,5.0,-68.0,-45.0,38.0,17.0,-35.0,31.0,48.0,27.0,0.0
4.0,-8.0,-34.0,-72.0,9.0,3.0,-56.0,24.0,38.0,38.0,0.0
-10.0,-35.0,-73.0,-68.0,-12.0,-24.0,-129.0,-16.0,-125.0,5.0,0.0
-26.0,-48.0,-12.0,-114.0,-11.0,-25.0,-178.0,-26.0,-230.0,-7.0,0.0
-16.0,-17.0,97.0,-133.0,-22.0,-14.0,-139.0,-22.0,-48.0,0.0,0.0
-21.0,-24.0,83.0,-61.0,-52.0,-43.0,-129.0,-24.0,-22.0,-24.0,0.0
-43.0,-44.0,34.0,34.0,-57.0,-39.0,-146.0,-22.0,-8.0,-36.0,0.0
-35.0,-16.0,-22.0,109.0,-27.0,-6.0,-123.0,12.0,40.0,-8.0,0.0
-2.0,-10.0,-96.0,135.0,-3.0,46.0,-87.0,59.0,85.0,50.0,0.0
14.0,-4.0,-80.0,95.0,-9.0,58.0,-79.0,73.0,91.0,59.0,0.0
-3.0,-10.0,-29.0,71.0,-7.0,34.0,-87.0,17.0,56.0,27.0,0.0
6.0,-20.0,-44.0,7.0,-10.0,21.0,-77.0,-18.0,7.0,5.0,0.0
8.0,-28.0,-46.0,-15.0,7.0,37.0,-39.0,-13.0,-9.0,2.0,0.0
-17.0,-65.0,-51.0,10.0,43.0,45.0,-42.0,-9.0,-12.0,8.0,0.0
-39.0,-63.0,-52.0,29.0,91.0,54.0,-40.0,8.0,-14.0,3.0,0.0
-19.0,-6.0,0.0,46.0,105.0,44.0,-23.0,16.0,-6.0,8.0,0.0
-4.0,63.0,31.0,105.0,98.0,27.0,-19.0,4.0,-18.0,6.0,0.0
-1.0,70.0,-14.0,179.0,119.0,15.0,-18.0,3.0,-30.0,-4.0,0.0
-5.0,0.0,-2.0,169.0,114.0,5.0,-12.0,-12.0,-33.0,-11.0,0.0
-8.0,-19.0,32.0,91.0,56.0,-4.0,-2.0,-25.0,-22.0,-16.0,0.0
1.0,-18.0,48.0,-6.0,-36.0,-17.0,-6.0,-18.0,8.0,0.0,0.0
3.0,-21.0,68.0,-79.0,-86.0,-22.0,-12.0,0.0,24.0,-3.0,0.0
-4.0,-13.0,42.0,-63.0,-68.0,-23.0,4.0,-5.0,33.0,-8.0,0.0
-8.0,-2.0,44.0,-86.0,-83.0,-13.0,32.0,3.0,56.0,10.0,0.0
-3.0,4.0,27.0,-91.0,-78.0,-1.0,40.0,31.0,66.0,20.0,0.0
-5.0,-44.0,-41.0,-50.0,-40.0,-31.0,12.0,21.0,-101.0,17.0,0.0
-5.0,-51.0,-44.0,-17.0,-21.0,-50.0,6.0,1.0,-111.0,8.0,0.0
-14.0,-8.0,-52.0,18.0,3.0,-19.0,36.0,0.0,15.0,-8.0,0.0
-30.0,-30.0,-137.0,30.0,27.0,-4.0,71.0,3.0,25.0,-11.0,0.0
-34.0,-61.0,-150.0,18.0,45.0,-10.0,93.0,13.0,24.0,-4.0,0.0
-12.0,-84.0,-124.0,-8.0,48.0,11.0,112.0,32.0,23.0,4.0,0.0
25.0,-92.0,-78.0,-23.0,78.0,20.0,112.0,53.0,46.0,28.0,0.0
33.0,-76.0,25.0,4.0,122.0,29.0,98.0,64.0,58.0,38.0,0.0
39.0,-71.0,24.0,-60.0,82.0,38.0,74.0,55.0,18.0,25.0,0.0
43.0,26.0,14.0,-135.0,7.0,-14.0,47.0,7.0,-23.0,-7.0,0.0
40.0,127.0,-29.0,-169.0,-47.0,-20.0,35.0,-3.0,-43.0,-2.0,0.0
34.0,47.0,-28.0,-177.0,-86.0,-45.0,10.0,-21.0,-202.0,-3.0,0.0
28.0,-27.0,21.0,-92.0,-118.0,-48.0,24.0,-25.0,-110.0,0.0,0.0
20.0,-62.0,52.0,-55.0,-149.0,-50.0,30.0,-25.0,-23.0,-1.0,0.0
21.0,-16.0,76.0,-51.0,-138.0,-47.0,25.0,-38.0,-54.0,-14.0,0.0
20.0,142.0,135.0,-28.0,-113.0,-47.0,63.0,-52.0,-77.0,-20.0,0.0
12.0,166.0,120.0,-19.0,-130.0,-63.0,46.0,-56.0,-227.0,-20.0,0.0
9.0,144.0,129.0,85.0,-130.0,-52.0,51.0,-32.0,-88.0,-2.0,0.0
1.0,114.0,161.0,150.0,-90.0,-42.0,81.0,-12.0,30.0,0.0,0.0
-10.0,104.0,169.0,204.0,4.0,-36.0,104.0,-17.0,24.0,-21.0,0.0
-20.0,58.0,111.0,230.0,93.0,-30.0,104.0,-46.0,4.0,-34.0,0.0
-9.0,13.0,40.0,157.0,107.0,-7.0,99.0,-34.0,-6.0,-9.0,0.0
20.0,15.0,15.0,-13.0,80.0,27.0,121.0,6.0,17.0,19.0,0.0
30.0,-10.0,-32.0,-119.0,25.0,17.0,109.0,-4.0,31.0,22.0,0.0
17.0,-29.0,-78.0,-102.0,17.0,26.0,82.0,-8.0,43.0,20.0,0.0
25.0,-5.0,-92.0,-47.0,24.0,31.0,64.0,13.0,14.0,30.0,0.0
46.0,-23.0,-74.0,-53.0,-3.0,-7.0,8.0,9.0,-144.0,20.0,0.0
53.0,-3.0,-37.0,-70.0,-12.0,31.0,23.0,14.0,24.0,21.0,0.0
40.0,-21.0,-93.0,-95.0,-6.0,35.0,39.0,10.0,61.0,25.0,0.0
43.0,-3.0,-112.0,-135.0,-40.0,9.0,21.0,1.0,41.0,30.0,0.0
51.0,54.0,-28.0,-150.0,-73.0,7.0,13.0,14.0,27.0,24.0,0.0
32.0,2.0,-29.0,-113.0,-59.0,-6.0,-23.0,16.0,-128.0,3.0,0.0
16.0,7.0,-12.0,7.0,17.0,15.0,47.0,-11.0,13.0,-11.0,0.0
1.0,40.0,-21.0,9.0,8.0,-9.0,63.0,-6.0,29.0,-3.0,0.0
-34.0,6.0,47.0,65.0,17.0,-28.0,21.0,-23.0,-72.0,-33.0,0.0
-45.0,-201.0,27.0,35.0,-2.0,-125.0,-250.0,-68.0,-937.0,-66.0,0.0
-39.0,-219.0,34.0,107.0,7.0,-105.0,-316.0,-63.0,-871.0,-59.0,0.0
-26.0,-6.0,85.0,206.0,42.0,29.0,6.0,-15.0,131.0,-17.0,0.0
4.0,39.0,72.0,93.0,4.0,40.0,49.0,-4.0,196.0,12.0,0.0
14.0,85.0,59.0,16.0,-13.0,45.0,34.0,0.0,176.0,22.0,0.0
-8.0,83.0,38.0,-21.0,-16.0,52.0,12.0,1.0,165.0,22.0,0.0
-5.0,75.0,-4.0,-33.0,-20.0,31.0,-4.0,-9.0,146.0,25.0,0.0
-5.0,44.0,-45.0,-50.0,-19.0,20.0,-25.0,-9.0,146.0,18.0,0.0
-19.0,-5.0,-28.0,-74.0,-12.0,13.0,-43.0,-30.0,100.0,-3.0,0.0
-20.0,-19.0,-43.0,-80.0,-22.0,-16.0,-77.0,-42.0,56.0,-1.0,0.0
-19.0,-25.0,-36.0,-42.0,-31.0,-32.0,-82.0,-35.0,46.0,7.0,0.0
-1.0,-10.0,28.0,80.0,-15.0,-15.0,-101.0,-34.0,58.0,16.0,0.0
31.0,4.0,66.0,146.0,-5.0,3.0,-113.0,-33.0,62.0,17.0,0.0
37.0,-11.0,10.0,99.0,-8.0,1.0,-95.0,-26.0,58.0,13.0,0.0
5.0,-33.0,8.0,61.0,20.0,3.0,-69.0,-18.0,44.0,9.0,0.0
3.0,-38.0,26.0,45.0,37.0,7.0,-88.0,-14.0,-94.0,-7.0,0.0
6.0,-3.0,16.0,62.0,39.0,33.0,-90.0,13.0,3.0,0.0,0.0
22.0,17.0,-1.0,60.0,34.0,43.0,-60.0,22.0,132.0,16.0,0.0
30.0,12.0,-9.0,42.0,8.0,23.0,-45.0,16.0,109.0,2.0,0.0
51.0,-61.0,-39.0,-50.0,-37.0,-42.0,-125.0,10.0,-265.0,9.0,0.0
48.0,-168.0,-87.0,-146.0,-88.0,-116.0,-232.0,6.0,-637.0,15.0,0.0
40.0,-56.0,-76.0,-56.0,-42.0,-23.0,-54.0,33.0,23.0,37.0,0.0
25.0,-57.0,-51.0,0.0,-8.0,13.0,-29.0,31.0,137.0,18.0,0.0
11.0,-53.0,1.0,30.0,4.0,20.0,-35.0,18.0,125.0,-7.0,0.0
26.0,-50.0,35.0,12.0,-19.0,19.0,-24.0,15.0,117.0,-2.0,0.0
33.0,-12.0,51.0,-2.0,-39.0,29.0,-21.0,5.0,105.0,9.0,0.0
28.0,53.0,93.0,9.0,-6.0,34.0,-21.0,-16.0,93.0,-7.0,0.0
23.0,66.0,104.0,27.0,12.0,17.0,-24.0,-28.0,99.0,-31.0,0.0
7.0,1.0,79.0,44.0,9.0,11.0,-11.0,-27.0,125.0,-18.0,0.0
-4.0,-47.0,56.0,48.0,10.0,0.0,-3.0,-28.0,127.0,-2.0,0.0
-13.0,-342.0,-155.0,-174.0,-36.0,-46.0,-71.0,29.0,-344.0,-9.0,0.0
-13.0,-310.0,-85.0,-213.0,-43.0,-127.0,-167.0,-36.0,-758.0,-62.0,0.0
22.0,9.0,49.0,-144.0,-19.0,-176.0,-199.0,-76.0,-931.0,-72.0,0.0
33.0,200.0,139.0,-2.0,35.0,-109.0,-113.0,-39.0,-674.0,-43.0,0.0
28.0,167.0,181.0,119.0,61.0,-16.0,27.0,-8.0,-135.0,-13.0,0.0
30.0,108.0,150.0,89.0,62.0,-5.0,105.0,16.0,70.0,-6.0,0.0
34.0,81.0,84.0,-6.0,29.0,17.0,101.0,25.0,167.0,2.0,0.0
28.0,24.0,0.0,-152.0,-30.0,20.0,90.0,22.0,128.0,-4.0,0.0
10.0,17.0,-73.0,-193.0,-64.0,32.0,107.0,13.0,275.0,-16.0,0.0
-32.0,-27.0,-100.0,-115.0,-67.0,8.0,91.0,-6.0,256.0,-37.0,0.0
-55.0,-68.0,-51.0,-16.0,-53.0,-17.0,84.0,-34.0,218.0,-54.0,0.0
-25.0,17.0,49.0,218.0,32.0,17.0,128.0,-52.0,173.0,-61.0,0.0
-1.0,67.0,70.0,305.0,75.0,11.0,166.0,-42.0,143.0,-57.0,0.0
19.0,43.0,-11.0,218.0,84.0,23.0,151.0,-5.0,70.0,-21.0,0.0
32.0,-158.0,-152.0,-11.0,18.0,-51.0,-68.0,0.0,-713.0,-9.0,0.0
43.0,-157.0,-163.0,-111.0,-47.0,-38.0,-100.0,15.0,-676.0,5.0,0.0
35.0,39.0,-75.0,13.0,-24.0,55.0,214.0,34.0,244.0,15.0,0.0
10.0,24.0,-58.0,4.0,-26.0,50.0,254.0,32.0,268.0,20.0,0.0
15.0,5.0,-50.0,-89.0,-75.0,32.0,242.0,38.0,237.0,41.0,0.0
23.0,-43.0,-56.0,-71.0,-33.0,6.0,238.0,49.0,238.0,35.0,0.0
32.0,-49.0,-43.0,35.0,32.0,12.0,251.0,45.0,247.0,39.0,0.0
10.0,-39.0,-4.0,116.0,62.0,-6.0,221.0,34.0,159.0,27.0,0.0
-25.0,-234.0,-35.0,54.0,51.0,-101.0,-31.0,3.0,-623.0,-19.0,0.0
-34.0,-342.0,-98.0,-36.0,3.0,-95.0,-122.0,18.0,-785.0,-19.0,0.0
-34.0,-116.0,-60.0,-31.0,-60.0,14.0,160.0,26.0,132.0,2.0,0.0
4.0,109.0,28.0,-77.0,-158.0,-15.0,223.0,-2.0,273.0,0.0,0.0
44.0,171.0,63.0,-76.0,-155.0,-28.0,242.0,6.0,273.0,7.0,0.0
23.0,119.0,60.0,-55.0,-98.0,-31.0,250.0,6.0,264.0,-4.0,0.0
-4.0,82.0,31.0,-20.0,-44.0,-13.0,256.0,-11.0,216.0,-25.0,0.0
-17.0,134.0,-39.0,-27.0,-40.0,-7.0,236.0,-31.0,162.0,-56.0,0.0
-16.0,193.0,-26.0,-20.0,-37.0,-14.0,223.0,-28.0,147.0,-52.0,0.0
14.0,166.0,48.0,-19.0,-42.0,-15.0,242.0,-14.0,159.0,-16.0,0.0
17.0,149.0,53.0,-7.0,-21.0,-2.0,235.0,-15.0,155.0,2.0,0.0
21.0,111.0,19.0,11.0,0.0,14.0,210.0,-8.0,149.0,24.0,0.0
10.0,53.0,-20.0,-6.0,19.0,12.0,209.0,5.0,157.0,25.0,0.0
13.0,30.0,-77.0,-66.0,20.0,6.0,219.0,3.0,137.0,10.0,0.0
15.0,32.0,-20.0,-168.0,-6.0,4.0,202.0,-5.0,124.0,-5.0,0.0
13.0,22.0,13.0,-169.0,-30.0,0.0,174.0,-5.0,59.0,0.0,0.0
-12.0,-7.0,13.0,-18.0,-23.0,-13.0,132.0,-7.0,-100.0,-8.0,0.0
-14.0,67.0,56.0,154.0,15.0,6.0,132.0,-1.0,43.0,-21.0,0.0
1.0,82.0,74.0,219.0,38.0,-10.0,114.0,-26.0,54.0,-33.0,0.0
-7.0,59.0,-11.0,256.0,104.0,-9.0,87.0,-47.0,36.0,-31.0,0.0
-15.0,41.0,-68.0,215.0,184.0,20.0,114.0,-21.0,71.0,-16.0,0.0
-23.0,13.0,-15.0,64.0,165.0,40.0,138.0,4.0,94.0,-24.0,0.0
-22.0,11.0,-40.0,19.0,139.0,34.0,138.0,16.0,104.0,-22.0,0.0
-16.0,9.0,-38.0,72.0,86.0,14.0,136.0,1.0,87.0,-7.0,0.0
5.0,17.0,-36.0,63.0,8.0,-15.0,152.0,4.0,98.0,19.0,0.0
30.0,28.0,-11.0,-101.0,-82.0,-2.0,192.0,41.0,122.0,44.0,0.0
35.0,23.0,-50.0,-248.0,-130.0,-10.0,187.0,58.0,124.0,67.0,0.0
25.0,-3.0,-82.0,-255.0,-110.0,-31.0,177.0,37.0,91.0,44.0,0.0
4.0,-24.0,-79.0,-200.0,-61.0,-10.0,138.0,30.0,70.0,23.0,0.0
-18.0,-53.0,-45.0,-162.0,-34.0,33.0,102.0,18.0,57.0,6.0,0.0
-30.0,-61.0,-28.0,-132.0,-22.0,18.0,93.0,12.0,46.0,-11.0,0.0
-38.0,-52.0,-77.0,-87.0,-10.0,-14.0,82.0,-14.0,17.0,-14.0,0.0
-36.0,-33.0,-52.0,-73.0,-8.0,-26.0,74.0,-29.0,-6.0,-5.0,0.0
-25.0,-39.0,-41.0,-44.0,12.0,-32.0,67.0,-16.0,-5.0,5.0,0.0
-19.0,-50.0,-66.0,79.0,38.0,-3.0,47.0,-7.0,-5.0,17.0,0.0
-32.0,-46.0,57.0,173.0,47.0,1.0,23.0,1.0,-48.0,16.0,0.0
-29.0,-87.0,-4.0,67.0,18.0,-33.0,-8.0,0.0,-223.0,6.0,0.0
-23.0,-54.0,24.0,10.0,9.0,-13.0,11.0,-3.0,-74.0,0.0,0.0
-12.0,-8.0,111.0,3.0,-7.0,-18.0,25.0,-3.0,-10.0,1.0,0.0
-12.0,-2.0,97.0,-13.0,-34.0,-27.0,26.0,-10.0,12.0,12.0,0.0
0.0,-13.0,38.0,-17.0,-44.0,-32.0,24.0,-5.0,-16.0,21.0,0.0
-1.0,-64.0,-9.0,134.0,-1.0,-41.0,-3.0,2.0,-152.0,22.0,0.0
-14.0,-110.0,-79.0,351.0,104.0,12.0,17.0,41.0,31.0,27.0,0.0
-32.0,-169.0,-153.0,356.0,183.0,68.0,18.0,49.0,56.0,17.0,0.0
-59.0,-179.0,-110.0,385.0,210.0,79.0,9.0,31.0,18.0,-11.0,0.0
-69.0,-135.0,5.0,316.0,185.0,39.0,-6.0,-10.0,-87.0,-33.0,0.0
-34.0,-60.0,85.0,132.0,138.0,4.0,-25.0,-14.0,-192.0,-28.0,0.0
1.0,-55.0,83.0,-77.0,59.0,30.0,-4.0,25.0,10.0,13.0,0.0
17.0,-131.0,-28.0,-281.0,-27.0,14.0,-7.0,42.0,48.0,37.0,0.0
10.0,-34.0,-20.0,-227.0,-63.0,-2.0,4.0,26.0,55.0,24.0,0.0
15.0,177.0,116.0,-112.0,-107.0,-25.0,-7.0,14.0,38.0,11.0,0.0
24.0,271.0,100.0,-105.0,-152.0,-37.0,-25.0,-1.0,0.0,10.0,0.0
49.0,303.0,97.0,-79.0,-131.0,-16.0,-11.0,16.0,19.0,24.0,0.0
36.0,220.0,106.0,-46.0,-60.0,14.0,7.0,30.0,58.0,68.0,0.0
14.0,97.0,63.0,-66.0,-35.0,28.0,7.0,16.0,65.0,48.0,0.0
-5.0,18.0,37.0,-21.0,-24.0,3.0,-38.0,0.0,-70.0,8.0,0.0
-26.0,10.0,86.0,75.0,16.0,-13.0,-56.0,-3.0,-123.0,-22.0,0.0
-33.0,64.0,140.0,132.0,86.0,8.0,-25.0,5.0,14.0,-22.0,0.0
-23.0,62.0,99.0,70.0,113.0,6.0,-5.0,-2.0,12.0,-9.0,0.0
-28.0,40.0,38.0,-15.0,69.0,-7.0,9.0,-9.0,7.0,-14.0,0.0
-35.0,14.0,-13.0,-91.0,-29.0,-33.0,25.0,-2.0,-23.0,-9.0,0.0
-11.0,-53.0,-104.0,-141.0,-80.0,-49.0,0.0,0.0,-158.0,5.0,0.0
-8.0,-48.0,-140.0,-136.0,-73.0,-5.0,17.0,25.0,38.0,17.0,0.0
3.0,-27.0,-122.0,-135.0,-51.0,16.0,14.0,42.0,120.0,9.0,0.0
19.0,-5.0,-120.0,-114.0,-20.0,27.0,-11.0,46.0,123.0,4.0,0.0
27.0,-6.0,-136.0,-79.0,-24.0,25.0,-10.0,21.0,114.0,9.0,0.0
12.0,-21.0,-95.0,-50.0,-34.0,23.0,-40.0,8.0,110.0,4.0,0.0
12.0,-33.0,-48.0,-45.0,-38.0,3.0,-86.0,11.0,92.0,5.0,0.0
23.0,-20.0,-20.0,-39.0,-26.0,7.0,-86.0,27.0,81.0,8.0,0.0
-1.0,-16.0,-10.0,-30.0,-10.0,15.0,-78.0,22.0,72.0,9.0,0.0
-6.0,-33.0,-8.0,-32.0,-15.0,26.0,-86.0,3.0,52.0,13.0,0.0
16.0,-33.0,12.0,-20.0,-13.0,27.0,-107.0,2.0,31.0,23.0,0.0
23.0,-13.0,19.0,-9.0,13.0,21.0,-104.0,15.0,34.0,17.0,0.0
40.0,17.0,-5.0,1.0,40.0,32.0,-101.0,18.0,30.0,29.0,0.0
35.0,-10.0,-39.0,-2.0,41.0,40.0,-100.0,15.0,21.0,31.0,0.0
18.0,-66.0,-24.0,-39.0,17.0,3.0,-118.0,12.0,-104.0,27.0,0.0
19.0,-90.0,-35.0,-80.0,3.0,-24.0,-118.0,14.0,-169.0,27.0,0.0
5.0,-69.0,-51.0,-67.0,15.0,-2.0,-59.0,14.0,16.0,29.0,0.0
2.0,-75.0,-13.0,20.0,18.0,5.0,-54.0,9.0,35.0,26.0,0.0
2.0,-26.0,57.0,150.0,30.0,17.0,-55.0,7.0,44.0,24.0,0.0
1.0,0.0,50.0,147.0,26.0,-18.0,-48.0,-21.0,-95.0,0.0,0.0
-11.0,8.0,-62.0,96.0,33.0,-24.0,-61.0,-45.0,-148.0,-14.0,0.0
-10.0,27.0,-58.0,53.0,38.0,1.0,-59.0,-40.0,-64.0,-19.0,0.0
18.0,17.0,-95.0,-9.0,18.0,-17.0,-90.0,-29.0,-169.0,-15.0,0.0
20.0,2.0,-86.0,13.0,16.0,2.0,-48.0,-16.0,25.0,-2.0,0.0
22.0,-21.0,13.0,15.0,28.0,5.0,-54.0,-14.0,42.0,-5.0,0.0
21.0,27.0,61.0,2.0,38.0,17.0,-49.0,-26.0,28.0,-18.0,0.0
15.0,58.0,65.0,-6.0,9.0,19.0,-9.0,-31.0,3.0,-25.0,0.0
26.0,62.0,66.0,-20.0,-17.0,16.0,3.0,-4.0,9.0,-17.0,0.0
26.0,40.0,62.0,-22.0,-19.0,5.0,11.0,7.0,26.0,-4.0,0.0
27.0,19.0,45.0,-3.0,-1.0,6.0,47.0,8.0,15.0,2.0,0.0
24.0,-15.0,26.0,-21.0,-11.0,7.0,50.0,18.0,-112.0,12.0,0.0
-11.0,-30.0,-48.0,-17.0,-7.0,3.0,53.0,35.0,-141.0,8.0,0.0
-48.0,-60.0,-57.0,10.0,8.0,0.0,66.0,23.0,-166.0,-15.0,0.0
-45.0,-34.0,31.0,39.0,16.0,30.0,110.0,11.0,-36.0,-14.0,0.0
-23.0,-6.0,49.0,11.0,-10.0,10.0,123.0,7.0,42.0,8.0,0.0
-11.0,-50.0,17.0,-45.0,-30.0,-20.0,125.0,-9.0,-101.0,6.0,0.0
7.0,-6.0,44.0,1.0,7.0,13.0,173.0,-17.0,53.0,-5.0,0.0
7.0,34.0,67.0,3.0,15.0,31.0,165.0,-5.0,53.0,2.0,0.0
1.0,-27.0,35.0,-46.0,-1.0,1.0,118.0,3.0,-105.0,2.0,0.0
-13.0,-46.0,-24.0,-7.0,-15.0,21.0,134.0,4.0,15.0,-4.0,0.0
-8.0,-36.0,-76.0,47.0,-3.0,36.0,145.0,9.0,123.0,-4.0,0.0
-3.0,-72.0,-20.0,42.0,6.0,25.0,113.0,22.0,-11.0,2.0,0.0
17.0,-54.0,-1.0,39.0,5.0,49.0,102.0,43.0,-1.0,20.0,0.0
16.0,-37.0,-6.0,47.0,13.0,62.0,144.0,39.0,157.0,18.0,0.0
-5.0,-54.0,22.0,67.0,31.0,66.0,159.0,16.0,134.0,0.0,0.0
-23.0,-76.0,3.0,66.0,20.0,52.0,144.0,0.0,118.0,-9.0,0.0
-30.0,-112.0,-18.0,42.0,11.0,31.0,141.0,6.0,121.0,-2.0,0.0
-31.0,-108.0,2.0,6.0,11.0,1.0,172.0,10.0,121.0,-7.0,0.0
-4.0,50.0,43.0,-26.0,-7.0,-12.0,192.0,0.0,99.0,-5.0,0.0
4.0,191.0,55.0,-60.0,-43.0,-8.0,205.0,-13.0,55.0,-2.0,0.0
-13.0,116.0,3.0,-55.0,12.0,2.0,173.0,-13.0,46.0,-10.0,0.0
-21.0,26.0,-18.0,-12.0,105.0,7.0,137.0,-10.0,42.0,-19.0,0.0
-16.0,40.0,4.0,40.0,118.0,16.0,129.0,2.0,50.0,-8.0,0.0
-4.0,26.0,18.0,105.0,59.0,10.0,115.0,5.0,31.0,0.0,0.0
8.0,-60.0,30.0,118.0,24.0,-7.0,56.0,-8.0,-122.0,13.0,0.0
17.0,-80.0,46.0,36.0,-21.0,3.0,33.0,-3.0,-150.0,30.0,0.0
15.0,-71.0,83.0,-43.0,-29.0,29.0,57.0,12.0,33.0,46.0,0.0
17.0,-111.0,87.0,-88.0,-10.0,26.0,64.0,11.0,71.0,40.0,0.0
37.0,-94.0,72.0,-49.0,-2.0,14.0,52.0,3.0,73.0,24.0,0.0
31.0,-46.0,28.0,-56.0,-36.0,-35.0,24.0,-32.0,-102.0,-3.0,0.0
21.0,74.0,-1.0,-68.0,-58.0,-39.0,32.0,-61.0,-136.0,-45.0,0.0
13.0,171.0,-23.0,-86.0,-60.0,-37.0,41.0,-68.0,-11.0,-54.0,0.0
15.0,178.0,-17.0,-146.0,-99.0,-55.0,32.0,-57.0,13.0,-35.0,0.0
40.0,148.0,-29.0,-117.0,-126.0,-43.0,20.0,-39.0,11.0,0.0,0.0
52.0,149.0,27.0,-13.0,-88.0,-17.0,31.0,-1.0,25.0,5.0,0.0
31.0,156.0,55.0,41.0,-41.0,-19.0,17.0,-10.0,26.0,8.0,0.0
29.0,96.0,60.0,105.0,-21.0,-28.0,-4.0,-7.0,-7.0,2.0,0.0
25.0,-27.0,34.0,34.0,-35.0,-71.0,-85.0,0.0,-359.0,-9.0,0.0
4.0,-107.0,43.0,-33.0,-44.0,-89.0,-140.0,-16.0,-533.0,-22.0,0.0
-4.0,-7.0,79.0,26.0,5.0,7.0,-24.0,3.0,17.0,-16.0,0.0
-15.0,8.0,63.0,29.0,28.0,24.0,-31.0,17.0,103.0,-15.0,0.0
-17.0,39.0,45.0,47.0,38.0,15.0,-49.0,24.0,119.0,-1.0,0.0
-16.0,50.0,-43.0,49.0,47.0,7.0,-67.0,21.0,112.0,-7.0,0.0
-35.0,9.0,-49.0,17.0,22.0,10.0,-60.0,-8.0,101.0,-25.0,0.0
-43.0,-15.0,-29.0,3.0,-2.0,0.0,-72.0,-39.0,76.0,-39.0,0.0
-45.0,-13.0,24.0,46.0,-7.0,-21.0,-107.0,-46.0,52.0,-31.0,0.0
-39.0,-15.0,118.0,102.0,16.0,-22.0,-117.0,-49.0,49.0,-35.0,0.0
-34.0,-17.0,94.0,100.0,41.0,-4.0,-131.0,-33.0,49.0,-22.0,0.0
-14.0,-8.0,29.0,70.0,45.0,-9.0,-130.0,-24.0,42.0,-6.0,0.0
13.0,-22.0,-56.0,4.0,2.0,-11.0,-144.0,-8.0,54.0,22.0,0.0
37.0,-19.0,-127.0,-101.0,-27.0,2.0,-137.0,26.0,69.0,64.0,0.0
42.0,8.0,-143.0,-167.0,-28.0,9.0,-122.0,51.0,87.0,78.0,0.0
8.0,-26.0,-134.0,-152.0,-30.0,-12.0,-118.0,41.0,65.0,54.0,0.0
0.0,-38.0,-132.0,-136.0,-20.0,-33.0,-135.0,43.0,50.0,58.0,0.0
2.0,-37.0,-102.0,-95.0,12.0,-33.0,-138.0,29.0,49.0,47.0,0.0
-25.0,-6.0,-27.0,56.0,87.0,-18.0,-174.0,-2.0,0.0,-3.0,0.0
-46.0,28.0,37.0,158.0,128.0,-11.0,-205.0,-40.0,-52.0,-57.0,0.0
-24.0,59.0,41.0,98.0,100.0,-3.0,-215.0,-31.0,-31.0,-44.0,0.0
-10.0,60.0,23.0,17.0,50.0,19.0,-193.0,7.0,31.0,0.0,0.0
0.0,45.0,16.0,-41.0,-18.0,7.0,-176.0,15.0,75.0,13.0,0.0
3.0,30.0,6.0,-50.0,-63.0,-39.0,-186.0,6.0,53.0,9.0,0.0
-4.0,38.0,21.0,-12.0,-58.0,-54.0,-180.0,-13.0,47.0,-7.0,0.0
-7.0,26.0,26.0,3.0,-54.0,-35.0,-154.0,-20.0,42.0,-20.0,0.0
-11.0,-6.0,15.0,-24.0,-41.0,-13.0,-141.0,-5.0,49.0,-25.0,0.0
-14.0,-17.0,5.0,-41.0,-12.0,13.0,-140.0,8.0,45.0,-24.0,0.0
-15.0,-18.0,9.0,5.0,20.0,22.0,-144.0,7.0,21.0,-23.0,0.0
1.0,-16.0,19.0,32.0,31.0,19.0,-159.0,4.0,7.0,-21.0,0.0
23.0,10.0,14.0,18.0,20.0,8.0,-170.0,1.0,5.0,-11.0,0.0
18.0,10.0,-1.0,-2.0,-7.0,1.0,-157.0,0.0,15.0,-7.0,0.0
21.0,5.0,0.0,-6.0,-22.0,1.0,-143.0,10.0,24.0,3.0,0.0
38.0,27.0,4.0,-1.0,-10.0,-2.0,-145.0,19.0,12.0,16.0,0.0
33.0,34.0,25.0,-6.0,-8.0,15.0,-144.0,16.0,-5.0,0.0,0.0
15.0,34.0,28.0,2.0,4.0,18.0,-168.0,27.0,-6.0,0.0,0.0
14.0,29.0,18.0,23.0,25.0,4.0,-215.0,24.0,-12.0,2.0,0.0
25.0,23.0,16.0,27.0,23.0,-8.0,-216.0,2.0,-22.0,3.0,0.0
12.0,-5.0,1.0,8.0,20.0,6.0,-214.0,-14.0,-37.0,-3.0,0.0
-20.0,-34.0,-27.0,-16.0,23.0,20.0,-233.0,-29.0,-54.0,-5.0,0.0
-40.0,-25.0,-89.0,-17.0,26.0,5.0,-234.0,-36.0,-62.0,-14.0,0.0
-56.0,-34.0,-92.0,0.0,22.0,0.0,-214.0,-43.0,-52.0,-23.0,0.0
-49.0,-28.0,-51.0,-1.0,-11.0,6.0,-209.0,-33.0,-29.0,-21.0,0.0
-30.0,-34.0,-53.0,-24.0,-29.0,4.0,-198.0,-9.0,-11.0,-8.0,0.0
-16.0,-38.0,35.0,-18.0,-11.0,7.0,-199.0,9.0,17.0,-3.0,0.0
-11.0,3.0,99.0,12.0,-10.0,0.0,-169.0,18.0,24.0,-5.0,0.0
-8.0,11.0,58.0,52.0,7.0,2.0,-145.0,9.0,35.0,-13.0,0.0
6.0,-8.0,-14.0,78.0,34.0,24.0,-149.0,-4.0,49.0,-9.0,0.0
31.0,0.0,-27.0,23.0,24.0,28.0,-162.0,-1.0,41.0,7.0,0.0
51.0,-2.0,-13.0,-38.0,-2.0,10.0,-164.0,-6.0,39.0,19.0,0.0
37.0,-36.0,-1.0,1.0,-1.0,24.0,-160.0,6.0,34.0,25.0,0.0
24.0,-32.0,18.0,69.0,23.0,44.0,-189.0,24.0,22.0,25.0,0.0
8.0,-8.0,69.0,63.0,22.0,30.0,-198.0,34.0,6.0,27.0,0.0
-12.0,-45.0,24.0,16.0,5.0,0.0,-223.0,24.0,-179.0,5.0,0.0
-17.0,-45.0,10.0,28.0,11.0,16.0,-233.0,9.0,-120.0,0.0,0.0
-16.0,-7.0,-12.0,31.0,9.0,6.0,-234.0,0.0,-11.0,0.0,0.0
-8.0,48.0,-12.0,-8.0,7.0,0.0,-217.0,0.0,21.0,-5.0,0.0
-11.0,39.0,-55.0,-21.0,3.0,9.0,-181.0,0.0,18.0,-10.0,0.0
-8.0,-11.0,-117.0,-27.0,3.0,18.0,-168.0,7.0,17.0,12.0,0.0
5.0,-35.0,-103.0,-74.0,-2.0,7.0,-158.0,19.0,-51.0,15.0,0.0
13.0,16.0,-46.0,-84.0,-16.0,6.0,-137.0,25.0,-128.0,9.0,0.0
12.0,64.0,15.0,-27.0,-6.0,4.0,-92.0,15.0,23.0,12.0,0.0
8.0,33.0,38.0,-5.0,-16.0,-28.0,-83.0,-7.0,2.0,3.0,0.0
19.0,13.0,49.0,-36.0,-21.0,-41.0,-62.0,-17.0,-15.0,-1.0,0.0
0.0,14.0,78.0,-44.0,-23.0,-35.0,-46.0,-12.0,-22.0,-15.0,0.0
-19.0,10.0,104.0,-20.0,-21.0,-17.0,-46.0,1.0,-3.0,-24.0,0.0
-6.0,7.0,99.0,-30.0,-31.0,-5.0,-50.0,4.0,16.0,0.0,0.0
-15.0,20.0,95.0,-23.0,-28.0,10.0,-47.0,12.0,21.0,13.0,0.0
-37.0,-35.0,40.0,-36.0,-22.0,9.0,-59.0,-6.0,-3.0,-6.0,0.0
-26.0,-41.0,-56.0,-28.0,-31.0,5.0,-58.0,-10.0,-21.0,-19.0,0.0
21.0,15.0,-84.0,-47.0,-3.0,27.0,-45.0,30.0,14.0,14.0,0.0
44.0,43.0,-127.0,-124.0,31.0,63.0,-47.0,60.0,57.0,40.0,0.0
39.0,40.0,-125.0,-141.0,44.0,64.0,-47.0,51.0,54.0,38.0,0.0
20.0,32.0,-100.0,-51.0,55.0,45.0,-43.0,30.0,59.0,17.0,0.0
7.0,48.0,30.0,58.0,79.0,44.0,-35.0,21.0,72.0,17.0,0.0
11.0,74.0,97.0,55.0,65.0,49.0,-30.0,22.0,76.0,23.0,0.0
10.0,71.0,96.0,0.0,40.0,46.0,-25.0,33.0,90.0,19.0,0.0
-1.0,2.0,57.0,-24.0,0.0,9.0,-43.0,23.0,-32.0,11.0,0.0
-26.0,-91.0,30.0,15.0,-11.0,-20.0,-58.0,-10.0,-152.0,-12.0,0.0
-29.0,-83.0,0.0,20.0,-6.0,15.0,-5.0,17.0,23.0,0.0,0.0
-15.0,-90.0,-82.0,-70.0,-29.0,14.0,0.0,23.0,38.0,4.0,0.0
-27.0,-136.0,-148.0,-118.0,-36.0,-7.0,17.0,23.0,39.0,10.0,0.0
-25.0,-164.0,-138.0,-101.0,-36.0,9.0,16.0,42.0,34.0,30.0,0.0
-39.0,-209.0,-108.0,19.0,2.0,27.0,23.0,52.0,40.0,23.0,0.0
-51.0,-257.0,-100.0,153.0,42.0,44.0,11.0,39.0,22.0,9.0,0.0
-36.0,-225.0,-72.0,138.0,40.0,29.0,-13.0,5.0,-12.0,-20.0,0.0
-22.0,-35.0,-17.0,60.0,13.0,-4.0,-1.0,-21.0,-43.0,-43.0,0.0
-5.0,247.0,16.0,2.0,0.0,-10.0,6.0,-33.0,-65.0,-41.0,0.0
-16.0,236.0,-11.0,-25.0,-14.0,-7.0,0.0,-44.0,-65.0,-41.0,0.0
-36.0,100.0,-81.0,-32.0,-9.0,-16.0,20.0,-26.0,-49.0,-37.0,0.0
-11.0,89.0,0.0,-40.0,0.0,5.0,23.0,0.0,-27.0,-31.0,0.0
27.0,113.0,74.0,-58.0,-19.0,-9.0,19.0,9.0,-87.0,-23.0,0.0
32.0,70.0,-16.0,-63.0,-39.0,-40.0,17.0,-3.0,-175.0,-21.0,0.0
36.0,68.0,-92.0,-20.0,-26.0,-21.0,70.0,-10.0,-23.0,-3.0,0.0
36.0,39.0,-69.0,4.0,14.0,-18.0,86.0,-6.0,-32.0,10.0,0.0
20.0,27.0,44.0,-1.0,45.0,-15.0,71.0,-3.0,-29.0,-1.0,0.0
-2.0,24.0,49.0,9.0,38.0,-8.0,81.0,-18.0,-38.0,-23.0,0.0
-8.0,22.0,8.0,100.0,47.0,5.0,90.0,-28.0,-25.0,-21.0,0.0
-6.0,26.0,83.0,135.0,69.0,16.0,102.0,-19.0,-12.0,-10.0,0.0
0.0,56.0,108.0,48.0,54.0,11.0,118.0,-21.0,-4.0,-12.0,0.0
5.0,57.0,30.0,-123.0,-22.0,-1.0,107.0,-17.0,-15.0,3.0,0.0
-1.0,13.0,-42.0,-325.0,-118.0,-21.0,61.0,-1.0,-29.0,7.0,0.0
-11.0,-13.0,-30.0,-370.0,-146.0,-31.0,29.0,17.0,-32.0,6.0,0.0
-5.0,-3.0,13.0,-116.0,-68.0,-29.0,34.0,19.0,-19.0,3.0,0.0
22.0,33.0,107.0,247.0,16.0,-14.0,49.0,23.0,4.0,19.0,0.0
48.0,22.0,159.0,303.0,35.0,-9.0,42.0,26.0,32.0,35.0,0.0
43.0,3.0,102.0,186.0,36.0,0.0,41.0,18.0,44.0,31.0,0.0
28.0,-2.0,84.0,111.0,48.0,-1.0,38.0,9.0,10.0,9.0,0.0
11.0,-33.0,71.0,64.0,81.0,-12.0,-13.0,-17.0,-188.0,0.0,0.0
0.0,-40.0,61.0,67.0,108.0,-17.0,-10.0,-26.0,-219.0,-4.0,0.0
-10.0,-41.0,54.0,129.0,98.0,5.0,7.0,-28.0,-50.0,-7.0,0.0
-36.0,-56.0,43.0,175.0,70.0,14.0,5.0,-19.0,52.0,-13.0,0.0
-63.0,-66.0,5.0,141.0,72.0,19.0,-5.0,-21.0,50.0,-17.0,0.0
-47.0,-65.0,-82.0,33.0,32.0,3.0,7.0,-22.0,14.0,-8.0,0.0
-39.0,-55.0,-8.0,12.0,-34.0,-18.0,6.0,-25.0,-16.0,-16.0,0.0
-20.0,-25.0,62.0,73.0,-73.0,-19.0,-8.0,-8.0,-6.0,-6.0,0.0
-16.0,-10.0,79.0,98.0,-73.0,-19.0,-35.0,0.0,11.0,9.0,0.0
-16.0,-32.0,-25.0,36.0,-82.0,-13.0,-27.0,-2.0,20.0,20.0,0.0
-16.0,-37.0,-123.0,-48.0,-128.0,-1.0,-29.0,1.0,34.0,35.0,0.0
-8.0,-7.0,-99.0,-108.0,-145.0,0.0,-41.0,8.0,68.0,43.0,0.0
-2.0,18.0,12.0,-83.0,-95.0,-15.0,-41.0,19.0,92.0,44.0,0.0
-21.0,-8.0,-6.0,-65.0,-35.0,-20.0,-79.0,12.0,-35.0,17.0,0.0
-22.0,-49.0,-119.0,-52.0,-13.0,0.0,-119.0,21.0,-104.0,16.0,0.0
-18.0,-31.0,-49.0,16.0,6.0,26.0,-84.0,21.0,65.0,17.0,0.0
-20.0,-26.0,27.0,42.0,25.0,14.0,-83.0,25.0,85.0,2.0,0.0
-37.0,-50.0,11.0,-8.0,10.0,14.0,-90.0,8.0,72.0,-17.0,0.0
-17.0,21.0,34.0,-100.0,-34.0,1.0,-80.0,-9.0,55.0,-19.0,0.0
5.0,96.0,70.0,-98.0,-48.0,-14.0,-81.0,-9.0,40.0,-12.0,0.0
25.0,61.0,83.0,-44.0,-29.0,-9.0,-81.0,-13.0,44.0,-1.0,0.0
31.0,13.0,73.0,-10.0,-15.0,-6.0,-46.0,-11.0,35.0,7.0,0.0
8.0,-16.0,53.0,-10.0,-10.0,-6.0,-17.0,7.0,43.0,32.0,0.0
7.0,-25.0,43.0,14.0,-11.0,1.0,21.0,30.0,47.0,35.0,0.0
3.0,-2.0,64.0,87.0,-1.0,13.0,7.0,5.0,28.0,6.0,0.0
-10.0,14.0,84.0,128.0,3.0,16.0,2.0,-15.0,-5.0,-11.0,0.0
-32.0,-15.0,23.0,115.0,-4.0,2.0,8.0,-15.0,-15.0,-10.0,0.0
-27.0,-14.0,-45.0,74.0,-23.0,3.0,15.0,-11.0,-10.0,7.0,0.0
-19.0,-2.0,-50.0,47.0,-32.0,16.0,-20.0,8.0,4.0,24.0,0.0
-13.0,8.0,-37.0,56.0,-9.0,7.0,-34.0,10.0,23.0,17.0,0.0
-26.0,12.0,-5.0,59.0,2.0,-7.0,-39.0,-7.0,2.0,-13.0,0.0
-32.0,-1.0,24.0,20.0,8.0,-11.0,-28.0,-28.0,-19.0,-37.0,0.0
-17.0,21.0,-1.0,-17.0,24.0,-4.0,-16.0,-13.0,-12.0,-18.0,0.0
-5.0,34.0,-35.0,3.0,44.0,0.0,-4.0,-1.0,-4.0,11.0,0.0
-7.0,11.0,-38.0,21.0,72.0,15.0,6.0,-8.0,-8.0,23.0,0.0
-5.0,-18.0,-22.0,0.0,72.0,22.0,5.0,-20.0,-35.0,30.0,0.0
7.0,-59.0,-24.0,-56.0,40.0,-7.0,-5.0,-26.0,-161.0,28.0,0.0
3.0,-47.0,-9.0,-45.0,17.0,-3.0,8.0,-16.0,-82.0,21.0,0.0
-16.0,1.0,12.0,-17.0,12.0,16.0,39.0,-4.0,66.0,14.0,0.0
-17.0,-17.0,4.0,-25.0,-12.0,-7.0,38.0,3.0,60.0,15.0,0.0
1.0,-40.0,-14.0,-19.0,-35.0,-18.0,29.0,6.0,64.0,22.0,0.0
8.0,-18.0,-46.0,-4.0,-39.0,-6.0,7.0,-9.0,56.0,25.0,0.0
6.0,0.0,11.0,8.0,-19.0,6.0,-19.0,-26.0,27.0,0.0,0.0
-11.0,9.0,63.0,4.0,-4.0,-1.0,-33.0,-32.0,16.0,-6.0,0.0
-4.0,41.0,116.0,13.0,-10.0,-6.0,-35.0,-24.0,17.0,-7.0,0.0
6.0,60.0,113.0,20.0,0.0,4.0,-28.0,-16.0,11.0,-1.0,0.0
9.0,27.0,68.0,13.0,5.0,3.0,-30.0,-12.0,8.0,-5.0,0.0
-9.0,-16.0,40.0,12.0,11.0,-13.0,-42.0,-26.0,-4.0,-9.0,0.0
-21.0,-41.0,-16.0,-27.0,-13.0,-15.0,-62.0,-31.0,-12.0,-18.0,0.0
-11.0,-61.0,24.0,7.0,-60.0,-39.0,-84.0,-35.0,-41.0,-33.0,0.0
0.0,-23.0,103.0,70.0,-58.0,-51.0,-92.0,-31.0,-46.0,-30.0,0.0
12.0,10.0,135.0,38.0,-51.0,-65.0,-115.0,-16.0,-177.0,-6.0,0.0
8.0,-89.0,77.0,-30.0,-63.0,-132.0,-241.0,-18.0,-691.0,-4.0,0.0
-11.0,-45.0,33.0,62.0,-22.0,-54.0,-163.0,-5.0,-288.0,5.0,0.0
-1.0,-9.0,-43.0,77.0,17.0,4.0,-79.0,14.0,-56.0,23.0,0.0
11.0,-30.0,-124.0,26.0,22.0,26.0,-79.0,28.0,-74.0,44.0,0.0
25.0,26.0,-94.0,33.0,18.0,48.0,-70.0,37.0,101.0,45.0,0.0
30.0,37.0,-66.0,4.0,-6.0,46.0,-53.0,27.0,112.0,26.0,0.0
29.0,17.0,-74.0,-31.0,-23.0,30.0,-40.0,16.0,107.0,25.0,0.0
32.0,16.0,-47.0,-25.0,0.0,21.0,-37.0,5.0,118.0,31.0,0.0
29.0,36.0,-19.0,9.0,27.0,32.0,-38.0,6.0,122.0,22.0,0.0
23.0,25.0,-1.0,11.0,40.0,17.0,-35.0,-3.0,109.0,12.0,0.0
8.0,-44.0,-27.0,-9.0,48.0,-16.0,-63.0,-32.0,-77.0,0.0,0.0
-2.0,-55.0,-45.0,0.0,83.0,19.0,-32.0,-19.0,13.0,-8.0,0.0
-2.0,-51.0,-42.0,-5.0,80.0,34.0,-10.0,-3.0,99.0,0.0,0.0
-10.0,-72.0,-32.0,-31.0,46.0,27.0,-1.0,-2.0,89.0,2.0,0.0
-34.0,-118.0,3.0,-37.0,24.0,31.0,13.0,-14.0,69.0,-2.0,0.0
-40.0,-156.0,27.0,38.0,31.0,28.0,30.0,-19.0,59.0,-5.0,0.0
-8.0,-179.0,-7.0,50.0,19.0,36.0,44.0,10.0,85.0,16.0,0.0
39.0,-143.0,-54.0,-40.0,-36.0,12.0,51.0,21.0,92.0,29.0,0.0
64.0,35.0,-17.0,-104.0,-115.0,-47.0,49.0,-18.0,46.0,23.0,0.0
44.0,125.0,10.0,-125.0,-143.0,-53.0,57.0,-26.0,27.0,20.0,0.0
38.0,93.0,25.0,-91.0,-114.0,-45.0,42.0,7.0,-14.0,3.0,0.0
48.0,118.0,50.0,-90.0,-97.0,-73.0,12.0,-12.0,-184.0,-25.0,0.0
53.0,273.0,78.0,-56.0,-68.0,-52.0,39.0,-29.0,-50.0,-18.0,0.0
46.0,255.0,67.0,8.0,-19.0,-6.0,52.0,1.0,6.0,7.0,0.0
56.0,158.0,-4.0,30.0,-5.0,17.0,63.0,11.0,9.0,15.0,0.0
64.0,104.0,-80.0,-10.0,-17.0,15.0,63.0,17.0,15.0,8.0,0.0
44.0,92.0,-36.0,-6.0,-10.0,12.0,65.0,31.0,66.0,2.0,0.0
39.0,79.0,-3.0,9.0,-4.0,-10.0,58.0,30.0,29.0,2.0,0.0
39.0,26.0,21.0,3.0,-7.0,-46.0,17.0,-7.0,-186.0,-10.0,0.0
2.0,5.0,40.0,47.0,-8.0,-33.0,27.0,-41.0,-66.0,-30.0,0.0
-32.0,-12.0,35.0,100.0,-5.0,-30.0,16.0,-49.0,2.0,-58.0,0.0
-52.0,-14.0,-19.0,104.0,-2.0,-31.0,34.0,-49.0,-2.0,-57.0,0.0
-77.0,-8.0,-31.0,71.0,27.0,-20.0,61.0,-59.0,-2.0,-35.0,0.0
-71.0,-36.0,-43.0,21.0,115.0,19.0,78.0,-44.0,17.0,-30.0,0.0
-54.0,-59.0,-58.0,1.0,181.0,57.0,97.0,0.0,49.0,-21.0,0.0
7.0,20.0,0.0,93.0,137.0,90.0,134.0,38.0,137.0,23.0,0.0
14.0,27.0,-3.0,26.0,17.0,62.0,144.0,47.0,163.0,46.0,0.0
-1.0,2.0,-39.0,-155.0,-106.0,2.0,114.0,14.0,67.0,23.0,0.0
-8.0,-95.0,-128.0,-366.0,-196.0,-134.0,-65.0,-35.0,-578.0,-15.0,0.0
-9.0,-27.0,59.0,127.0,-68.0,-50.0,72.0,-18.0,-36.0,34.0,0.0
-35.0,-81.0,22.0,87.0,-39.0,-59.0,62.0,-18.0,-70.0,11.0,0.0
-46.0,-151.0,-21.0,22.0,-42.0,-93.0,-14.0,-13.0,-328.0,-11.0,0.0
-62.0,-234.0,-66.0,-33.0,-51.0,-116.0,-105.0,-30.0,-547.0,-38.0,0.0
-69.0,-142.0,-43.0,36.0,-6.0,-8.0,34.0,-14.0,25.0,-40.0,0.0
-73.0,-106.0,27.0,83.0,32.0,22.0,68.0,-40.0,93.0,-55.0,0.0
-71.0,-28.0,131.0,142.0,58.0,18.0,80.0,-67.0,75.0,-68.0,0.0
-43.0,97.0,170.0,151.0,76.0,16.0,67.0,-61.0,86.0,-67.0,0.0
-30.0,179.0,124.0,132.0,103.0,17.0,77.0,-43.0,108.0,-43.0,0.0
-26.0,135.0,82.0,106.0,93.0,26.0,86.0,-13.0,95.0,-16.0,0.0
-6.0,53.0,-5.0,86.0,36.0,-6.0,71.0,6.0,-40.0,-8.0,0.0
4.0,59.0,-63.0,120.0,40.0,14.0,114.0,19.0,119.0,-7.0,0.0
4.0,41.0,-87.0,98.0,78.0,35.0,96.0,23.0,135.0,-8.0,0.0
8.0,8.0,-76.0,36.0,59.0,52.0,42.0,29.0,86.0,-13.0,0.0
20.0,-3.0,-82.0,-55.0,-16.0,32.0,18.0,23.0,78.0,-6.0,0.0
23.0,-23.0,-96.0,-81.0,-44.0,18.0,13.0,18.0,81.0,3.0,0.0
16.0,-27.0,-181.0,-39.0,-6.0,45.0,10.0,21.0,87.0,9.0,0.0
18.0,7.0,-124.0,-19.0,-14.0,42.0,-9.0,21.0,102.0,15.0,0.0
39.0,41.0,-46.0,-64.0,-66.0,-4.0,-17.0,-3.0,97.0,10.0,0.0
35.0,25.0,-74.0,-78.0,-99.0,-20.0,-9.0,-27.0,91.0,14.0,0.0
14.0,-14.0,-15.0,-40.0,-78.0,-15.0,0.0,-28.0,71.0,11.0,0.0
1.0,-73.0,-22.0,-69.0,-84.0,-23.0,-12.0,-11.0,-72.0,7.0,0.0
-2.0,-50.0,-6.0,-63.0,-77.0,-5.0,28.0,0.0,10.0,5.0,0.0
5.0,35.0,50.0,-25.0,-54.0,6.0,58.0,4.0,113.0,0.0,0.0
8.0,45.0,68.0,-12.0,-29.0,26.0,44.0,15.0,113.0,7.0,0.0
7.0,20.0,102.0,-7.0,-17.0,51.0,46.0,33.0,102.0,11.0,0.0
11.0,64.0,128.0,14.0,-24.0,37.0,50.0,32.0,87.0,-9.0,0.0
0.0,76.0,38.0,30.0,-24.0,35.0,33.0,19.0,74.0,-21.0,0.0
-19.0,7.0,21.0,23.0,-37.0,29.0,3.0,10.0,56.0,-29.0,0.0
-31.0,-37.0,21.0,22.0,-28.0,36.0,-27.0,11.0,40.0,-34.0,0.0
-21.0,-62.0,-32.0,42.0,-12.0,45.0,-52.0,2.0,16.0,-25.0,0.0
-12.0,-45.0,-16.0,72.0,5.0,30.0,-62.0,1.0,-1.0,-15.0,0.0
7.0,-8.0,-9.0,59.0,16.0,21.0,-56.0,21.0,1.0,-3.0,0.0
14.0,3.0,-14.0,-12.0,-14.0,29.0,-59.0,32.0,10.0,8.0,0.0
13.0,-49.0,-55.0,-109.0,-50.0,-6.0,-72.0,27.0,-121.0,3.0,0.0
3.0,-60.0,-86.0,-122.0,-28.0,0.0,-32.0,10.0,-47.0,-3.0,0.0
4.0,-49.0,-122.0,-91.0,4.0,34.0,-7.0,12.0,71.0,1.0,0.0
1.0,-58.0,-41.0,-74.0,21.0,52.0,-7.0,19.0,95.0,14.0,0.0
4.0,-38.0,-18.0,-42.0,24.0,47.0,-21.0,25.0,89.0,0.0,0.0
10.0,33.0,-74.0,-36.0,20.0,25.0,-19.0,7.0,56.0,-12.0,0.0
6.0,48.0,-92.0,-16.0,30.0,27.0,-30.0,0.0,17.0,-20.0,0.0
0.0,20.0,2.0,-17.0,45.0,2.0,-53.0,1.0,-6.0,-31.0,0.0
14.0,47.0,69.0,-25.0,30.0,0.0,-56.0,5.0,-8.0,-23.0,0.0
23.0,79.0,100.0,-22.0,33.0,10.0,-29.0,19.0,-4.0,-11.0,0.0
47.0,42.0,97.0,-25.0,26.0,1.0,5.0,15.0,-13.0,-8.0,0.0
41.0,1.0,79.0,-47.0,-13.0,-12.0,9.0,-6.0,-24.0,-18.0,0.0
26.0,-8.0,78.0,-34.0,-32.0,-33.0,-25.0,-27.0,-51.0,-31.0,0.0
17.0,-9.0,84.0,20.0,-19.0,-46.0,-43.0,-50.0,-75.0,-33.0,0.0
3.0,-29.0,106.0,58.0,35.0,-43.0,-75.0,-65.0,-128.0,-41.0,0.0
-3.0,-67.0,129.0,62.0,62.0,-56.0,-139.0,-61.0,-271.0,-45.0,0.0
-8.0,-41.0,80.0,87.0,67.0,-1.0,-129.0,-21.0,-96.0,-18.0,0.0
-2.0,-121.0,-41.0,40.0,38.0,6.0,-182.0,23.0,-176.0,3.0,0.0
3.0,-162.0,-49.0,7.0,-3.0,1.0,-200.0,24.0,-103.0,18.0,0.0
9.0,-173.0,-45.0,-14.0,-20.0,-9.0,-196.0,19.0,-131.0,30.0,0.0
36.0,136.0,-7.0,13.0,-38.0,-31.0,-198.0,-28.0,-87.0,-21.0,0.0
45.0,63.0,-13.0,-78.0,-72.0,-103.0,-290.0,-30.0,-535.0,-9.0,0.0
61.0,-19.0,-29.0,-134.0,-67.0,-112.0,-306.0,-16.0,-682.0,-2.0,0.0
53.0,6.0,-36.0,-94.0,-32.0,-58.0,-205.0,8.0,-333.0,17.0,0.0
44.0,47.0,-27.0,-23.0,0.0,12.0,-75.0,21.0,140.0,33.0,0.0
16.0,5.0,-18.0,-5.0,15.0,32.0,-45.0,7.0,155.0,26.0,0.0
-6.0,-5.0,6.0,2.0,33.0,37.0,-38.0,-4.0,120.0,18.0,0.0
-10.0,-30.0,31.0,0.0,40.0,36.0,-54.0,2.0,104.0,9.0,0.0
-3.0,-6.0,39.0,6.0,46.0,40.0,-35.0,25.0,102.0,7.0,0.0
12.0,-21.0,22.0,0.0,24.0,1.0,-79.0,17.0,-66.0,8.0,0.0
0.0,-55.0,36.0,30.0,25.0,-10.0,-92.0,13.0,-107.0,5.0,0.0
-11.0,-50.0,77.0,68.0,35.0,18.0,-64.0,3.0,41.0,-2.0,0.0
-9.0,45.0,69.0,91.0,31.0,9.0,-40.0,-12.0,150.0,-22.0,0.0
0.0,162.0,55.0,104.0,8.0,-13.0,-3.0,-42.0,133.0,-41.0,0.0
3.0,137.0,-9.0,69.0,-24.0,-17.0,21.0,-34.0,122.0,-43.0,0.0
8.0,65.0,-57.0,-5.0,-47.0,-11.0,37.0,-6.0,127.0,-16.0,0.0
9.0,40.0,-97.0,-74.0,-65.0,-10.0,35.0,9.0,130.0,-4.0,0.0
13.0,23.0,-123.0,-89.0,-56.0,-12.0,28.0,37.0,87.0,18.0,0.0
5.0,-53.0,-104.0,-97.0,-45.0,-37.0,-17.0,21.0,-105.0,10.0,0.0
-5.0,-41.0,-53.0,-57.0,-24.0,-6.0,14.0,3.0,39.0,-11.0,0.0
-14.0,-27.0,-52.0,-43.0,-17.0,0.0,30.0,24.0,104.0,-1.0,0.0
-10.0,-25.0,-59.0,-61.0,9.0,-2.0,19.0,34.0,105.0,-1.0,0.0
-23.0,-49.0,-48.0,-17.0,70.0,0.0,-7.0,11.0,60.0,-19.0,0.0
-42.0,-39.0,-54.0,169.0,127.0,8.0,-20.0,-5.0,17.0,-54.0,0.0
-34.0,14.0,-85.0,292.0,133.0,19.0,-4.0,5.0,37.0,-49.0,0.0
0.0,18.0,-133.0,198.0,64.0,4.0,-21.0,31.0,-21.0,2.0,0.0
38.0,35.0,-115.0,41.0,-31.0,-7.0,-28.0,57.0,1.0,43.0,0.0
42.0,47.0,-35.0,-37.0,-50.0,4.0,-6.0,63.0,182.0,46.0,0.0
14.0,0.0,-90.0,-98.0,-59.0,-1.0,-27.0,48.0,180.0,36.0,0.0
-8.0,-44.0,-46.0,-101.0,-61.0,0.0,-43.0,46.0,163.0,36.0,0.0
1.0,-23.0,32.0,-72.0,-46.0,-6.0,-34.0,26.0,126.0,20.0,0.0
13.0,13.0,63.0,-39.0,-14.0,0.0,-17.0,14.0,94.0,1.0,0.0
5.0,-13.0,72.0,-20.0,39.0,12.0,-12.0,4.0,69.0,-1.0,0.0
-13.0,-20.0,77.0,7.0,63.0,0.0,-33.0,4.0,44.0,-11.0,0.0
0.0,30.0,94.0,36.0,48.0,-16.0,-28.0,-15.0,14.0,-14.0,0.0
14.0,29.0,71.0,52.0,18.0,-38.0,-37.0,-18.0,-153.0,-6.0,0.0
30.0,44.0,26.0,78.0,31.0,-6.0,-30.0,12.0,-89.0,16.0,0.0
33.0,52.0,22.0,47.0,26.0,18.0,4.0,29.0,72.0,34.0,0.0
12.0,20.0,32.0,-28.0,0.0,16.0,22.0,19.0,74.0,38.0,0.0
11.0,-21.0,24.0,-90.0,-16.0,-7.0,7.0,3.0,-31.0,33.0,0.0
8.0,-72.0,10.0,-97.0,-4.0,-13.0,-24.0,-7.0,-140.0,18.0,0.0
6.0,-15.0,33.0,-33.0,52.0,5.0,-12.0,3.0,41.0,30.0,0.0
-17.0,-49.0,22.0,6.0,104.0,3.0,-30.0,-8.0,24.0,5.0,0.0
-54.0,-114.0,4.0,35.0,111.0,6.0,-47.0,-23.0,-7.0,-25.0,0.0
-66.0,-126.0,-11.0,69.0,85.0,7.0,-58.0,-26.0,-14.0,-30.0,0.0
-51.0,-41.0,-31.0,166.0,56.0,-4.0,-33.0,-18.0,2.0,-12.0,0.0
-26.0,69.0,105.0,268.0,41.0,0.0,5.0,21.0,34.0,10.0,0.0
-2.0,71.0,173.0,217.0,13.0,8.0,38.0,27.0,47.0,21.0,0.0
11.0,-1.0,68.0,44.0,-41.0,1.0,35.0,13.0,57.0,29.0,0.0
35.0,-57.0,-5.0,-100.0,-73.0,4.0,58.0,33.0,81.0,56.0,0.0
32.0,-113.0,-66.0,-93.0,-28.0,2.0,86.0,40.0,92.0,51.0,0.0
0.0,-77.0,-68.0,-36.0,26.0,4.0,95.0,21.0,89.0,20.0,0.0
-1.0,60.0,8.0,-9.0,42.0,16.0,117.0,9.0,79.0,3.0,0.0
12.0,46.0,16.0,19.0,27.0,-5.0,121.0,16.0,14.0,10.0,0.0
7.0,-56.0,-35.0,7.0,7.0,-35.0,77.0,5.0,-135.0,19.0,0.0
11.0,-14.0,11.0,-22.0,-14.0,-25.0,57.0,-16.0,-137.0,15.0,0.0
25.0,185.0,-26.0,-66.0,-42.0,-13.0,73.0,-15.0,-122.0,16.0,0.0
16.0,253.0,-43.0,-67.0,-46.0,17.0,91.0,-14.0,44.0,8.0,0.0
-7.0,142.0,41.0,-34.0,-41.0,17.0,67.0,-19.0,68.0,1.0,0.0
-13.0,68.0,78.0,15.0,-15.0,33.0,55.0,-12.0,65.0,11.0,0.0
-13.0,51.0,86.0,4.0,-23.0,5.0,48.0,-26.0,44.0,-3.0,0.0
1.0,57.0,70.0,-72.0,-58.0,-34.0,37.0,-32.0,27.0,-10.0,0.0
-7.0,47.0,30.0,-118.0,-59.0,-46.0,25.0,-6.0,47.0,13.0,0.0
-19.0,22.0,0.0,-96.0,-29.0,-30.0,25.0,9.0,44.0,18.0,0.0
-2.0,-17.0,-27.0,-130.0,-56.0,-9.0,36.0,18.0,53.0,22.0,0.0
31.0,-11.0,-61.0,-174.0,-86.0,3.0,66.0,34.0,48.0,52.0,0.0
23.0,-37.0,-39.0,-128.0,-66.0,11.0,71.0,24.0,28.0,32.0,0.0
3.0,-84.0,-56.0,-65.0,-29.0,8.0,59.0,15.0,11.0,18.0,0.0
9.0,-98.0,-78.0,-48.0,-9.0,5.0,68.0,1.0,3.0,20.0,0.0
17.0,-42.0,-37.0,-49.0,-14.0,-6.0,91.0,-2.0,-37.0,21.0,0.0
2.0,73.0,47.0,-38.0,-8.0,-39.0,62.0,-6.0,-198.0,8.0,0.0
-15.0,127.0,64.0,-12.0,15.0,3.0,72.0,3.0,-68.0,2.0,0.0
-25.0,55.0,48.0,4.0,25.0,12.0,67.0,3.0,-6.0,1.0,0.0
-22.0,-19.0,29.0,10.0,17.0,-4.0,47.0,-8.0,-3.0,-10.0,0.0
-14.0,-67.0,16.0,7.0,3.0,-5.0,30.0,-11.0,18.0,-11.0,0.0
-19.0,-76.0,-7.0,5.0,2.0,6.0,18.0,-6.0,23.0,-3.0,0.0
-17.0,-89.0,-25.0,-1.0,8.0,13.0,0.0,-16.0,26.0,0.0,0.0
-15.0,-20.0,-46.0,3.0,5.0,-3.0,-20.0,-43.0,7.0,-11.0,0.0
-9.0,122.0,17.0,4.0,-8.0,-21.0,-29.0,-50.0,-15.0,-23.0,0.0
2.0,172.0,44.0,21.0,4.0,-8.0,-6.0,-24.0,-1.0,-11.0,0.0
4.0,103.0,33.0,18.0,24.0,16.0,-10.0,-3.0,17.0,13.0,0.0
4.0,42.0,14.0,8.0,26.0,17.0,-39.0,0.0,27.0,18.0,0.0
4.0,2.0,4.0,-4.0,18.0,3.0,-45.0,-12.0,12.0,17.0,0.0
5.0,-28.0,-6.0,-7.0,8.0,0.0,-29.0,-28.0,-6.0,0.0,0.0
-12.0,-43.0,-16.0,12.0,24.0,7.0,-35.0,-21.0,-5.0,2.0,0.0
-9.0,-38.0,-22.0,24.0,36.0,8.0,-10.0,-7.0,1.0,8.0,0.0
2.0,-8.0,-13.0,7.0,24.0,-7.0,7.0,-2.0,8.0,13.0,0.0
-3.0,0.0,-10.0,18.0,23.0,-10.0,14.0,-12.0,20.0,9.0,0.0
-13.0,-23.0,0.0,49.0,47.0,1.0,25.0,-21.0,12.0,3.0,0.0
-20.0,-34.0,24.0,66.0,57.0,12.0,39.0,-13.0,-1.0,-3.0,0.0
-19.0,-37.0,26.0,42.0,43.0,18.0,40.0,-13.0,28.0,-2.0,0.0
-8.0,-30.0,9.0,17.0,38.0,9.0,41.0,-26.0,48.0,9.0,0.0
-12.0,-28.0,1.0,41.0,47.0,5.0,12.0,-26.0,42.0,-7.0,0.0
-14.0,-34.0,-22.0,69.0,54.0,40.0,6.0,-23.0,45.0,-20.0,0.0
-17.0,-20.0,-35.0,65.0,49.0,26.0,2.0,-29.0,40.0,-9.0,0.0
-10.0,-38.0,-19.0,30.0,29.0,-6.0,-19.0,-34.0,-100.0,-11.0,0.0
-3.0,-57.0,-39.0,-9.0,18.0,-21.0,-48.0,-40.0,-154.0,-19.0,0.0
-9.0,0.0,7.0,8.0,23.0,0.0,-16.0,-36.0,-10.0,-24.0,0.0
3.0,17.0,57.0,2.0,7.0,-17.0,-5.0,-41.0,12.0,-17.0,0.0
3.0,-4.0,46.0,-31.0,-6.0,-43.0,-9.0,-27.0,-25.0,3.0,0.0
0.0,-89.0,-23.0,-80.0,-37.0,-75.0,-4.0,-6.0,-179.0,3.0,0.0
-9.0,-81.0,-116.0,-71.0,-69.0,-60.0,49.0,-6.0,-12.0,9.0,0.0
-20.0,-63.0,-133.0,1.0,-51.0,-44.0,62.0,-9.0,13.0,-3.0,0.0
-5.0,-10.0,-79.0,110.0,33.0,-8.0,64.0,9.0,23.0,2.0,0.0
9.0,41.0,-114.0,86.0,121.0,48.0,82.0,28.0,42.0,13.0,0.0
-3.0,-17.0,-116.0,42.0,130.0,74.0,79.0,9.0,23.0,-3.0,0.0
4.0,-61.0,-76.0,16.0,96.0,77.0,82.0,16.0,35.0,0.0,0.0
37.0,-21.0,-19.0,-29.0,31.0,66.0,92.0,26.0,53.0,15.0,0.0
64.0,56.0,28.0,-67.0,-75.0,30.0,82.0,6.0,61.0,17.0,0.0
57.0,109.0,62.0,-87.0,-127.0,17.0,67.0,-10.0,50.0,9.0,0.0
49.0,84.0,55.0,-94.0,-113.0,24.0,50.0,0.0,71.0,15.0,0.0
43.0,41.0,40.0,-103.0,-51.0,10.0,29.0,10.0,82.0,12.0,0.0
25.0,45.0,30.0,-106.0,-18.0,-5.0,24.0,0.0,63.0,16.0,0.0
22.0,47.0,9.0,-57.0,-7.0,-19.0,47.0,-4.0,52.0,11.0,0.0
5.0,42.0,58.0,97.0,38.0,-15.0,43.0,2.0,24.0,7.0,0.0
-19.0,-14.0,94.0,226.0,48.0,-31.0,-13.0,-7.0,-182.0,3.0,0.0
-9.0,18.0,108.0,239.0,50.0,-4.0,6.0,0.0,-52.0,-3.0,0.0
-11.0,39.0,44.0,133.0,30.0,13.0,28.0,1.0,36.0,1.0,0.0
-33.0,16.0,-88.0,-30.0,-21.0,-1.0,27.0,9.0,46.0,15.0,0.0
-43.0,-27.0,-138.0,-118.0,-51.0,-26.0,5.0,3.0,25.0,1.0,0.0
-49.0,-73.0,-41.0,-16.0,-11.0,-26.0,-15.0,-9.0,0.0,-35.0,0.0
-65.0,-93.0,3.0,32.0,28.0,-17.0,-14.0,-10.0,-15.0,-42.0,0.0
-74.0,-141.0,-2.0,-30.0,29.0,-3.0,-47.0,0.0,-115.0,-36.0,0.0
-68.0,-171.0,17.0,-56.0,17.0,-12.0,-90.0,-10.0,-223.0,-42.0,0.0
-73.0,-114.0,94.0,2.0,11.0,-17.0,-77.0,-20.0,-63.0,-46.0,0.0
-38.0,-69.0,130.0,69.0,-1.0,-28.0,-89.0,-46.0,-42.0,-52.0,0.0
-15.0,-38.0,83.0,71.0,-30.0,-28.0,-103.0,-40.0,-30.0,-36.0,0.0
4.0,59.0,29.0,35.0,-48.0,-14.0,-117.0,-1.0,-11.0,-11.0,0.0
24.0,122.0,-18.0,14.0,-52.0,5.0,-108.0,25.0,14.0,8.0,0.0
11.0,60.0,-44.0,-19.0,-65.0,13.0,-101.0,43.0,44.0,25.0,0.0
8.0,-13.0,-96.0,-70.0,-74.0,-4.0,-86.0,47.0,46.0,31.0,0.0
7.0,-34.0,-129.0,-67.0,-33.0,1.0,-82.0,46.0,61.0,31.0,0.0
-6.0,-53.0,-146.0,-38.0,-5.0,7.0,-92.0,30.0,52.0,17.0,0.0
-20.0,-68.0,-86.0,-14.0,10.0,16.0,-88.0,13.0,61.0,19.0,0.0
-24.0,-79.0,-53.0,24.0,41.0,28.0,-63.0,16.0,66.0,20.0,0.0
-22.0,-93.0,-57.0,32.0,54.0,29.0,-39.0,33.0,78.0,26.0,0.0
-31.0,-119.0,-47.0,47.0,50.0,42.0,-38.0,38.0,90.0,25.0,0.0
-19.0,-157.0,-53.0,64.0,28.0,46.0,-35.0,25.0,69.0,6.0,0.0
0.0,-205.0,-83.0,38.0,13.0,41.0,-11.0,10.0,36.0,2.0,0.0
22.0,-189.0,-68.0,-39.0,-40.0,21.0,-8.0,12.0,28.0,19.0,0.0
49.0,-30.0,7.0,-166.0,-130.0,-22.0,-22.0,2.0,7.0,26.0,0.0
48.0,126.0,37.0,-245.0,-145.0,-36.0,-39.0,-15.0,-39.0,-1.0,0.0
29.0,159.0,64.0,-230.0,-113.0,-34.0,-55.0,-15.0,-53.0,-18.0,0.0
40.0,244.0,62.0,-219.0,-65.0,-38.0,-51.0,-25.0,-43.0,-20.0,0.0
35.0,248.0,73.0,-131.0,0.0,-30.0,-63.0,-31.0,-35.0,-20.0,0.0
10.0,178.0,89.0,66.0,89.0,-9.0,-75.0,-37.0,-44.0,-30.0,0.0
6.0,103.0,93.0,221.0,126.0,5.0,-83.0,-43.0,-47.0,-32.0,0.0
-3.0,72.0,45.0,272.0,93.0,-12.0,-85.0,-55.0,-69.0,-43.0,0.0
16.0,111.0,68.0,344.0,62.0,-37.0,-60.0,-44.0,-75.0,-39.0,0.0
26.0,108.0,118.0,317.0,1.0,-28.0,-57.0,-24.0,-50.0,-20.0,0.0
14.0,73.0,77.0,123.0,-60.0,-28.0,-67.0,0.0,-12.0,8.0,0.0
18.0,44.0,26.0,-112.0,-153.0,-54.0,-59.0,-2.0,6.0,25.0,0.0
12.0,9.0,-3.0,-181.0,-171.0,-57.0,-46.0,-6.0,2.0,29.0,0.0
-7.0,-15.0,-17.0,-133.0,-112.0,-29.0,-32.0,7.0,-15.0,25.0,0.0
-3.0,7.0,-19.0,-104.0,-80.0,-19.0,-15.0,10.0,1.0,16.0,0.0
-1.0,7.0,-3.0,-76.0,-49.0,-29.0,-17.0,2.0,12.0,15.0,0.0
-16.0,-12.0,-3.0,-47.0,-42.0,-32.0,-24.0,-5.0,11.0,5.0,0.0
-23.0,-29.0,9.0,-3.0,-39.0,-30.0,-26.0,-1.0,18.0,-10.0,0.0
-34.0,-14.0,12.0,-1.0,-44.0,-32.0,-32.0,-3.0,37.0,-10.0,0.0
-39.0,-4.0,33.0,-12.0,-22.0,-18.0,-51.0,-4.0,38.0,-16.0,0.0
-39.0,-24.0,33.0,-21.0,-11.0,-9.0,-79.0,-6.0,25.0,-11.0,0.0
-18.0,-28.0,-21.0,-21.0,-7.0,-13.0,-94.0,0.0,18.0,-11.0,0.0
-18.0,-14.0,-85.0,-25.0,0.0,-19.0,-70.0,12.0,26.0,-7.0,0.0
-23.0,-28.0,-82.0,-23.0,6.0,-26.0,-57.0,5.0,15.0,-3.0,0.0
-12.0,-51.0,-68.0,-20.0,0.0,-22.0,-44.0,1.0,5.0,-9.0,0.0
-27.0,-62.0,-3.0,-3.0,10.0,-11.0,-22.0,0.0,-3.0,-4.0,0.0
-30.0,-60.0,18.0,0.0,18.0,-11.0,-21.0,6.0,-9.0,-4.0,0.0
-30.0,-55.0,14.0,-2.0,11.0,-18.0,-12.0,-3.0,-20.0,0.0,0.0
-29.0,-80.0,-36.0,-5.0,19.0,-18.0,5.0,-7.0,-15.0,5.0,0.0
-27.0,-90.0,-62.0,-24.0,33.0,-4.0,39.0,-8.0,-5.0,6.0,0.0
-36.0,-111.0,-30.0,-36.0,46.0,16.0,41.0,0.0,-2.0,9.0,0.0
-30.0,-93.0,-17.0,-22.0,47.0,22.0,43.0,3.0,1.0,17.0,0.0
-11.0,-73.0,-6.0,-2.0,43.0,13.0,51.0,0.0,-14.0,15.0,0.0
7.0,-49.0,-91.0,-15.0,53.0,0.0,45.0,-2.0,-26.0,14.0,0.0
-5.0,-77.0,-95.0,-7.0,63.0,12.0,42.0,0.0,-23.0,2.0,0.0
-12.0,-62.0,18.0,-1.0,45.0,4.0,19.0,-7.0,-34.0,-11.0,0.0
-10.0,27.0,55.0,-14.0,-11.0,-15.0,10.0,-27.0,-30.0,-37.0,0.0
1.0,116.0,50.0,-16.0,-17.0,-16.0,15.0,-14.0,-5.0,-37.0,0.0
8.0,82.0,40.0,21.0,24.0,-7.0,17.0,2.0,22.0,-21.0,0.0
4.0,56.0,45.0,35.0,38.0,-4.0,13.0,9.0,41.0,-20.0,0.0
-7.0,58.0,57.0,50.0,50.0,-4.0,15.0,1.0,43.0,-22.0,0.0
-11.0,45.0,20.0,55.0,50.0,8.0,44.0,-3.0,27.0,-18.0,0.0
-4.0,31.0,-76.0,59.0,42.0,9.0,35.0,0.0,23.0,-10.0,0.0
-10.0,23.0,-78.0,43.0,0.0,-5.0,10.0,-5.0,26.0,-6.0,0.0
-12.0,49.0,24.0,63.0,-30.0,-14.0,21.0,-1.0,18.0,0.0,0.0
-19.0,-8.0,33.0,90.0,-43.0,-37.0,33.0,-19.0,-154.0,-3.0,0.0
-19.0,-18.0,4.0,87.0,-16.0,2.0,43.0,-13.0,-140.0,-8.0,0.0
1.0,-17.0,0.0,53.0,-1.0,17.0,40.0,-14.0,-30.0,-29.0,0.0
7.0,-27.0,-1.0,-3.0,-28.0,5.0,22.0,-19.0,-33.0,-24.0,0.0
10.0,-34.0,12.0,-62.0,-44.0,0.0,8.0,-19.0,-33.0,-13.0,0.0
38.0,-10.0,43.0,-134.0,-55.0,-5.0,-8.0,-8.0,-20.0,5.0,0.0
61.0,21.0,-32.0,-214.0,-50.0,-3.0,12.0,3.0,-1.0,18.0,0.0
46.0,22.0,-133.0,-149.0,-22.0,-18.0,24.0,-9.0,-17.0,-1.0,0.0
26.0,11.0,-78.0,24.0,56.0,-17.0,14.0,-13.0,-19.0,-10.0,0.0
29.0,-2.0,55.0,116.0,66.0,10.0,14.0,10.0,-3.0,5.0,0.0
33.0,12.0,97.0,85.0,1.0,22.0,20.0,18.0,14.0,19.0,0.0
30.0,24.0,105.0,19.0,-38.0,3.0,28.0,12.0,25.0,12.0,0.0
24.0,8.0,69.0,-83.0,-67.0,-6.0,47.0,2.0,22.0,0.0,0.0
44.0,15.0,-8.0,-136.0,-61.0,14.0,92.0,18.0,36.0,19.0,0.0
75.0,26.0,-84.0,-107.0,11.0,55.0,113.0,41.0,58.0,26.0,0.0
69.0,15.0,-82.0,-50.0,24.0,51.0,84.0,35.0,56.0,13.0,0.0
47.0,-12.0,-49.0,10.0,-1.0,27.0,60.0,30.0,62.0,9.0,0.0
26.0,-8.0,-59.0,17.0,-7.0,28.0,47.0,42.0,76.0,20.0,0.0
20.0,-5.0,-98.0,-13.0,-24.0,20.0,55.0,16.0,51.0,13.0,0.0
12.0,-10.0,-54.0,-20.0,-30.0,-13.0,43.0,-14.0,-54.0,-12.0,0.0
0.0,-27.0,43.0,-44.0,-34.0,-48.0,-1.0,-26.0,-225.0,-20.0,0.0
-6.0,21.0,68.0,-11.0,-18.0,-15.0,12.0,-14.0,-41.0,-15.0,0.0
-5.0,5.0,29.0,9.0,-5.0,-9.0,-1.0,-8.0,4.0,-8.0,0.0
7.0,-11.0,-58.0,22.0,12.0,-8.0,-20.0,-4.0,18.0,-7.0,0.0
13.0,8.0,-37.0,22.0,9.0,-15.0,-24.0,2.0,32.0,7.0,0.0
4.0,-24.0,-7.0,9.0,-5.0,-23.0,-56.0,0.0,17.0,16.0,0.0
-1.0,-30.0,-4.0,12.0,-4.0,-6.0,-92.0,19.0,14.0,16.0,0.0
-20.0,-21.0,17.0,24.0,12.0,12.0,-94.0,30.0,6.0,12.0,0.0
-21.0,-21.0,23.0,29.0,12.0,21.0,-86.0,19.0,7.0,-1.0,0.0
-27.0,-9.0,64.0,32.0,12.0,24.0,-77.0,1.0,-4.0,-12.0,0.0
-45.0,-16.0,108.0,37.0,21.0,16.0,-89.0,-11.0,5.0,-34.0,0.0
-55.0,-28.0,88.0,62.0,48.0,29.0,-89.0,-20.0,21.0,-33.0,0.0
-54.0,-23.0,58.0,95.0,95.0,49.0,-72.0,-11.0,23.0,-27.0,0.0
-51.0,-41.0,8.0,128.0,137.0,58.0,-30.0,-2.0,35.0,-31.0,0.0
-53.0,-87.0,0.0,155.0,169.0,51.0,-1.0,-29.0,12.0,-28.0,0.0
-65.0,-108.0,37.0,184.0,206.0,56.0,-15.0,-35.0,3.0,-21.0,0.0
-72.0,-133.0,41.0,174.0,177.0,55.0,-33.0,-8.0,15.0,-5.0,0.0
-80.0,-199.0,6.0,128.0,120.0,53.0,-18.0,23.0,36.0,-2.0,0.0
-75.0,-242.0,-48.0,55.0,60.0,64.0,-21.0,67.0,67.0,8.0,0.0
-37.0,-237.0,-147.0,-129.0,-120.0,-17.0,-38.0,56.0,38.0,7.0,0.0
1.0,12.0,-101.0,-144.0,-194.0,-76.0,-25.0,11.0,-25.0,-5.0,0.0
62.0,352.0,94.0,-111.0,-184.0,-102.0,-46.0,6.0,-203.0,22.0,0.0
82.0,229.0,85.0,-176.0,-191.0,-141.0,-153.0,3.0,-622.0,46.0,0.0
65.0,104.0,20.0,-130.0,-137.0,-56.0,-56.0,35.0,-157.0,58.0,0.0
35.0,17.0,-42.0,-89.0,-76.0,-11.0,30.0,39.0,88.0,58.0,0.0
14.0,-63.0,-74.0,-84.0,-34.0,1.0,42.0,23.0,75.0,34.0,0.0
11.0,1.0,-33.0,-87.0,-37.0,8.0,47.0,5.0,64.0,22.0,0.0
32.0,181.0,6.0,-106.0,-33.0,-5.0,55.0,4.0,73.0,32.0,0.0
35.0,271.0,-24.0,-121.0,-23.0,-9.0,63.0,8.0,88.0,50.0,0.0
42.0,223.0,-3.0,-125.0,-38.0,-14.0,77.0,29.0,114.0,62.0,0.0
24.0,105.0,3.0,-86.0,-56.0,-2.0,50.0,44.0,101.0,61.0,0.0
2.0,38.0,11.0,-24.0,-59.0,-1.0,2.0,11.0,57.0,14.0,0.0
1.0,100.0,42.0,-8.0,-73.0,-18.0,-4.0,-29.0,15.0,-14.0,0.0
21.0,188.0,43.0,-73.0,-82.0,-19.0,0.0,-18.0,33.0,11.0,0.0
-22.0,26.0,-16.0,-25.0,-11.0,8.0,-55.0,3.0,31.0,-2.0,0.0
-24.0,-14.0,-22.0,84.0,56.0,5.0,-57.0,23.0,12.0,-15.0,0.0
-11.0,-33.0,14.0,126.0,70.0,-35.0,-146.0,33.0,-251.0,-19.0,0.0
2.0,-152.0,-6.0,7.0,-4.0,-124.0,-333.0,0.0,-836.0,-24.0,0.0
-28.0,1.0,1.0,66.0,22.0,29.0,-42.0,5.0,61.0,-13.0,0.0
-22.0,-22.0,-4.0,43.0,29.0,-23.0,-89.0,0.0,-129.0,-10.0,0.0
-20.0,-167.0,-46.0,-54.0,-24.0,-133.0,-270.0,-25.0,-784.0,-28.0,0.0
-46.0,-257.0,-129.0,-86.0,-54.0,-166.0,-384.0,-47.0,-1091.0,-43.0,0.0
-54.0,-194.0,-121.0,-18.0,-30.0,-101.0,-323.0,-61.0,-762.0,-32.0,0.0
-37.0,8.0,-3.0,100.0,24.0,48.0,-1.0,0.0,231.0,23.0,0.0
-23.0,22.0,-61.0,64.0,20.0,57.0,38.0,14.0,297.0,37.0,0.0
-13.0,15.0,-16.0,81.0,30.0,47.0,39.0,4.0,275.0,14.0,0.0
-16.0,-12.0,7.0,85.0,23.0,35.0,17.0,-7.0,240.0,14.0,0.0
-29.0,-1.0,-1.0,49.0,11.0,34.0,-8.0,-2.0,210.0,18.0,0.0
-37.0,-16.0,-6.0,0.0,7.0,36.0,-29.0,0.0,204.0,9.0,0.0
-28.0,-31.0,-23.0,-38.0,22.0,29.0,-48.0,9.0,123.0,10.0,0.0
-26.0,-22.0,-12.0,-54.0,10.0,-2.0,-90.0,12.0,-11.0,15.0,0.0
-30.0,-18.0,-12.0,-5.0,9.0,9.0,-65.0,-2.0,134.0,17.0,0.0
1.0,-4.0,1.0,6.0,6.0,8.0,-58.0,-18.0,155.0,17.0,0.0
-9.0,19.0,6.0,-2.0,-2.0,16.0,-65.0,-11.0,169.0,11.0,0.0
-40.0,18.0,23.0,6.0,7.0,25.0,-78.0,15.0,201.0,4.0,0.0
-23.0,21.0,40.0,10.0,16.0,21.0,-61.0,20.0,124.0,0.0,0.0
-8.0,-27.0,19.0,-10.0,3.0,5.0,-52.0,-4.0,-67.0,3.0,0.0
-12.0,-19.0,20.0,12.0,11.0,34.0,-18.0,-11.0,97.0,11.0,0.0
-25.0,5.0,33.0,-3.0,9.0,29.0,-37.0,-5.0,121.0,11.0,0.0
-20.0,17.0,22.0,-37.0,9.0,22.0,-44.0,12.0,123.0,10.0,0.0
-22.0,-4.0,3.0,-65.0,7.0,10.0,-29.0,10.0,110.0,9.0,0.0
2.0,14.0,-34.0,-91.0,5.0,7.0,-21.0,-30.0,81.0,-21.0,0.0
28.0,-10.0,-24.0,-110.0,-18.0,0.0,1.0,-22.0,93.0,-20.0,0.0
50.0,-19.0,-58.0,-95.0,-24.0,-45.0,1.0,-13.0,-93.0,-5.0,0.0
41.0,-95.0,22.0,-7.0,-12.0,-128.0,-147.0,-30.0,-636.0,-21.0,0.0
37.0,37.0,193.0,201.0,61.0,-44.0,-63.0,-28.0,-159.0,-15.0,0.0
35.0,105.0,221.0,293.0,120.0,3.0,9.0,-35.0,114.0,-28.0,0.0
32.0,73.0,160.0,263.0,130.0,5.0,8.0,-53.0,101.0,-28.0,0.0
35.0,43.0,74.0,152.0,120.0,28.0,21.0,-32.0,120.0,-13.0,0.0
12.0,16.0,4.0,97.0,164.0,71.0,39.0,-24.0,132.0,-16.0,0.0
-40.0,0.0,0.0,151.0,196.0,109.0,27.0,-48.0,98.0,-56.0,0.0
-43.0,-15.0,-21.0,121.0,137.0,88.0,19.0,-50.0,60.0,-54.0,0.0
