channel0,channel1,channel2,channel3,channel4,channel5,channel6,channel7,channel8,channel9,true_locs
1.0,-45.0,-29.0,-6.0,10.0,12.0,19.0,38.0,9.0,-15.0,0.0
-9.0,-77.0,-29.0,-2.0,10.0,8.0,24.0,35.0,3.0,-25.0,0.0
-20.0,-67.0,-20.0,2.0,12.0,0.0,21.0,32.0,6.0,-28.0,0.0
-11.0,-43.0,-2.0,7.0,6.0,-5.0,26.0,16.0,5.0,-18.0,0.0
-23.0,-34.0,3.0,8.0,2.0,-1.0,19.0,10.0,6.0,-21.0,0.0
-31.0,-37.0,-3.0,-2.0,0.0,-5.0,1.0,0.0,-1.0,-1.0,0.0
-1.0,-43.0,-11.0,-7.0,-3.0,-19.0,2.0,-10.0,-5.0,13.0,0.0
11.0,-41.0,-14.0,-7.0,-2.0,-19.0,-6.0,-13.0,-3.0,21.0,0.0
3.0,-34.0,-4.0,0.0,13.0,-16.0,-19.0,-6.0,-2.0,14.0,0.0
1.0,-38.0,-2.0,-3.0,3.0,-16.0,-12.0,-15.0,-6.0,2.0,0.0
23.0,-22.0,-1.0,-13.0,-5.0,-24.0,-9.0,-16.0,6.0,-2.0,0.0
28.0,-24.0,4.0,-16.0,-5.0,-31.0,-12.0,-24.0,16.0,2.0,0.0
20.0,-37.0,17.0,0.0,7.0,-19.0,-13.0,-15.0,13.0,0.0,0.0
3.0,-13.0,18.0,4.0,13.0,-13.0,-8.0,-2.0,9.0,-5.0,0.0
4.0,14.0,6.0,-2.0,0.0,-9.0,-5.0,2.0,19.0,-1.0,0.0
5.0,40.0,-1.0,-6.0,-1.0,0.0,-4.0,2.0,23.0,-6.0,0.0
7.0,39.0,4.0,-26.0,8.0,9.0,-1.0,2.0,10.0,-22.0,0.0
-9.0,14.0,15.0,-41.0,14.0,17.0,0.0,0.0,7.0,-52.0,0.0
-12.0,12.0,19.0,-37.0,14.0,20.0,-10.0,-5.0,-1.0,-59.0,0.0
9.0,32.0,17.0,-40.0,8.0,3.0,-25.0,-24.0,-5.0,-34.0,0.0
24.0,24.0,12.0,-44.0,7.0,-1.0,-24.0,-31.0,3.0,5.0,0.0
23.0,12.0,5.0,-43.0,12.0,-5.0,-23.0,-27.0,-2.0,10.0,0.0
-4.0,4.0,0.0,-31.0,20.0,2.0,-21.0,-22.0,0.0,-4.0,0.0
0.0,-2.0,-13.0,-33.0,19.0,9.0,-11.0,-18.0,2.0,-5.0,0.0
24.0,-2.0,-24.0,-20.0,14.0,19.0,0.0,-14.0,18.0,40.0,0.0
4.0,-17.0,-19.0,14.0,25.0,35.0,2.0,-5.0,15.0,59.0,0.0
-19.0,-23.0,-1.0,35.0,37.0,43.0,6.0,0.0,0.0,32.0,0.0
-26.0,-22.0,4.0,30.0,30.0,27.0,14.0,-2.0,-2.0,25.0,0.0
-11.0,-14.0,-4.0,21.0,20.0,20.0,20.0,6.0,4.0,25.0,0.0
3.0,-9.0,-7.0,15.0,14.0,13.0,8.0,2.0,12.0,19.0,0.0
0.0,0.0,-5.0,15.0,9.0,2.0,0.0,-3.0,-1.0,3.0,0.0
-15.0,18.0,1.0,26.0,21.0,3.0,-1.0,0.0,-12.0,-4.0,0.0
-25.0,9.0,6.0,21.0,14.0,4.0,-1.0,2.0,-15.0,2.0,0.0
-21.0,13.0,21.0,27.0,10.0,1.0,16.0,3.0,-8.0,-3.0,0.0
-20.0,11.0,15.0,21.0,4.0,-6.0,18.0,2.0,2.0,-13.0,0.0
-18.0,11.0,29.0,15.0,10.0,0.0,-1.0,4.0,-2.0,-13.0,0.0
-19.0,19.0,38.0,12.0,23.0,7.0,-7.0,0.0,-10.0,-22.0,0.0
-12.0,31.0,29.0,16.0,30.0,5.0,-5.0,-5.0,-21.0,-18.0,0.0
-16.0,28.0,33.0,26.0,18.0,9.0,-18.0,-17.0,-26.0,-10.0,0.0
-6.0,20.0,39.0,18.0,0.0,4.0,-22.0,-23.0,-35.0,3.0,0.0
13.0,19.0,37.0,4.0,-13.0,-4.0,-22.0,-25.0,-24.0,49.0,0.0
30.0,15.0,26.0,8.0,-8.0,-12.0,-13.0,-15.0,-7.0,66.0,0.0
27.0,5.0,21.0,17.0,2.0,-1.0,-11.0,-7.0,-10.0,36.0,0.0
22.0,0.0,18.0,15.0,10.0,8.0,-21.0,-4.0,-2.0,10.0,0.0
6.0,4.0,26.0,13.0,3.0,5.0,-18.0,-3.0,-1.0,3.0,0.0
6.0,21.0,51.0,9.0,0.0,8.0,0.0,7.0,-6.0,7.0,0.0
29.0,58.0,70.0,6.0,-10.0,8.0,1.0,6.0,4.0,31.0,0.0
21.0,55.0,73.0,2.0,-9.0,-6.0,-3.0,-6.0,-2.0,25.0,0.0
7.0,34.0,76.0,11.0,-17.0,1.0,-3.0,-8.0,-19.0,7.0,0.0
5.0,11.0,69.0,3.0,-25.0,6.0,-9.0,0.0,-26.0,11.0,0.0
5.0,-25.0,29.0,-5.0,-11.0,12.0,-9.0,13.0,-20.0,16.0,0.0
0.0,-80.0,-49.0,-12.0,-11.0,20.0,-3.0,19.0,-6.0,26.0,0.0
0.0,-116.0,-88.0,-10.0,-10.0,13.0,0.0,29.0,7.0,11.0,0.0
-1.0,-63.0,-56.0,-8.0,-10.0,7.0,0.0,18.0,14.0,-2.0,0.0
-8.0,-26.0,-21.0,-13.0,-15.0,8.0,0.0,4.0,6.0,-14.0,0.0
-17.0,-7.0,-1.0,-21.0,-12.0,0.0,-11.0,3.0,9.0,-35.0,0.0
-21.0,13.0,22.0,-11.0,-9.0,-1.0,-13.0,-3.0,0.0,-45.0,0.0
-21.0,21.0,28.0,-7.0,-7.0,0.0,-1.0,-6.0,-16.0,-38.0,0.0
-9.0,14.0,23.0,-25.0,-18.0,4.0,0.0,-17.0,-6.0,-15.0,0.0
16.0,25.0,24.0,-38.0,-18.0,0.0,-5.0,-23.0,-7.0,16.0,0.0
32.0,19.0,16.0,-35.0,-18.0,-2.0,-23.0,-23.0,-8.0,22.0,0.0
18.0,12.0,20.0,-28.0,-18.0,-7.0,-36.0,-15.0,-16.0,21.0,0.0
13.0,9.0,16.0,-34.0,-14.0,-21.0,-22.0,0.0,-12.0,16.0,0.0
10.0,12.0,0.0,-33.0,-10.0,-8.0,-2.0,8.0,0.0,7.0,0.0
7.0,9.0,10.0,-24.0,3.0,5.0,0.0,15.0,5.0,4.0,0.0
4.0,20.0,19.0,-28.0,0.0,0.0,-4.0,16.0,0.0,4.0,0.0
0.0,26.0,8.0,-25.0,-8.0,-7.0,0.0,7.0,4.0,16.0,0.0
5.0,18.0,8.0,-13.0,-8.0,-9.0,-4.0,0.0,3.0,14.0,0.0
14.0,18.0,10.0,-15.0,0.0,-3.0,-6.0,1.0,9.0,14.0,0.0
10.0,17.0,-2.0,-9.0,9.0,14.0,-12.0,0.0,13.0,14.0,0.0
4.0,9.0,-10.0,-4.0,14.0,20.0,-7.0,6.0,10.0,6.0,0.0
-2.0,2.0,-11.0,-12.0,6.0,23.0,-2.0,0.0,2.0,0.0,0.0
8.0,-6.0,-11.0,-7.0,-7.0,16.0,5.0,0.0,-5.0,-12.0,0.0
15.0,-3.0,-4.0,1.0,-5.0,3.0,-4.0,-12.0,-6.0,-9.0,0.0
9.0,9.0,-7.0,1.0,-1.0,7.0,-14.0,-3.0,-14.0,-8.0,0.0
0.0,14.0,-10.0,23.0,-8.0,10.0,-7.0,-9.0,-19.0,-15.0,0.0
-2.0,19.0,-2.0,30.0,-5.0,15.0,8.0,-16.0,-11.0,-16.0,0.0
0.0,21.0,-7.0,33.0,2.0,18.0,20.0,-12.0,-13.0,-23.0,0.0
0.0,32.0,0.0,40.0,13.0,13.0,14.0,-7.0,-20.0,-27.0,0.0
-1.0,38.0,4.0,34.0,9.0,9.0,1.0,4.0,-14.0,-26.0,0.0
-14.0,33.0,0.0,19.0,3.0,9.0,5.0,6.0,-18.0,-16.0,0.0
-13.0,25.0,0.0,15.0,4.0,11.0,10.0,8.0,-11.0,-11.0,0.0
-19.0,6.0,6.0,19.0,5.0,4.0,14.0,10.0,1.0,-10.0,0.0
-23.0,-16.0,0.0,12.0,-4.0,-2.0,16.0,15.0,15.0,-10.0,0.0
-15.0,-25.0,-4.0,17.0,-5.0,-5.0,10.0,13.0,17.0,6.0,0.0
-2.0,-21.0,4.0,14.0,-9.0,-7.0,2.0,0.0,6.0,21.0,0.0
-1.0,-16.0,8.0,9.0,-5.0,-6.0,11.0,1.0,0.0,15.0,0.0
-19.0,-5.0,-13.0,5.0,-6.0,0.0,17.0,14.0,-8.0,-6.0,0.0
-19.0,10.0,-23.0,0.0,-21.0,-1.0,9.0,10.0,-5.0,-11.0,0.0
-7.0,31.0,-6.0,0.0,-15.0,-16.0,-4.0,4.0,8.0,0.0,0.0
-6.0,29.0,-12.0,-11.0,-12.0,-20.0,6.0,4.0,32.0,17.0,0.0
-7.0,5.0,-20.0,-22.0,-7.0,-17.0,25.0,11.0,27.0,6.0,0.0
9.0,0.0,-28.0,-28.0,-9.0,-11.0,11.0,5.0,13.0,9.0,0.0
42.0,5.0,-30.0,-26.0,-13.0,-7.0,3.0,0.0,13.0,30.0,0.0
52.0,12.0,-31.0,-12.0,-11.0,0.0,11.0,2.0,16.0,27.0,0.0
53.0,12.0,-21.0,-1.0,-6.0,5.0,18.0,14.0,21.0,16.0,0.0
39.0,2.0,-7.0,3.0,0.0,9.0,20.0,13.0,34.0,-3.0,0.0
10.0,7.0,0.0,4.0,10.0,16.0,24.0,9.0,43.0,-3.0,0.0
3.0,14.0,0.0,4.0,24.0,6.0,9.0,4.0,23.0,-4.0,0.0
1.0,23.0,6.0,12.0,22.0,-14.0,11.0,2.0,2.0,-17.0,0.0
-8.0,20.0,9.0,18.0,25.0,-12.0,6.0,-11.0,-6.0,-20.0,1.0
0.0,12.0,2.0,17.0,14.0,-4.0,-7.0,-18.0,-12.0,-5.0,1.0
14.0,12.0,3.0,13.0,5.0,-13.0,-4.0,-20.0,-5.0,19.0,1.0
14.0,14.0,0.0,1.0,11.0,-5.0,13.0,-21.0,-10.0,22.0,1.0
8.0,11.0,0.0,3.0,15.0,8.0,3.0,-15.0,-9.0,0.0,1.0
5.0,9.0,0.0,8.0,7.0,6.0,12.0,-4.0,-10.0,-20.0,1.0
-1.0,6.0,0.0,12.0,12.0,3.0,22.0,-8.0,-21.0,-22.0,1.0
-12.0,0.0,-6.0,1.0,13.0,-1.0,17.0,-1.0,-16.0,-25.0,1.0
-11.0,5.0,-2.0,-15.0,12.0,2.0,13.0,-2.0,-3.0,-15.0,1.0
4.0,14.0,-8.0,-10.0,13.0,1.0,15.0,3.0,3.0,-2.0,1.0
6.0,15.0,1.0,-3.0,14.0,3.0,11.0,6.0,1.0,5.0,1.0
7.0,16.0,5.0,-10.0,20.0,-1.0,13.0,7.0,8.0,5.0,1.0
0.0,4.0,1.0,-13.0,12.0,-9.0,13.0,13.0,7.0,-7.0,1.0
7.0,8.0,0.0,-22.0,9.0,-21.0,15.0,8.0,18.0,-5.0,1.0
28.0,14.0,10.0,-28.0,5.0,-17.0,20.0,5.0,27.0,8.0,1.0
33.0,8.0,11.0,-12.0,-2.0,-15.0,7.0,8.0,34.0,34.0,1.0
30.0,7.0,11.0,5.0,-10.0,-18.0,3.0,4.0,33.0,38.0,1.0
36.0,0.0,22.0,14.0,-7.0,-20.0,0.0,1.0,32.0,29.0,1.0
50.0,-8.0,7.0,12.0,-7.0,-18.0,2.0,-4.0,34.0,24.0,0.0
58.0,-25.0,-12.0,14.0,-5.0,-11.0,13.0,-3.0,34.0,22.0,0.0
37.0,-26.0,-25.0,22.0,4.0,-1.0,9.0,2.0,26.0,11.0,0.0
18.0,-21.0,-19.0,17.0,10.0,1.0,-6.0,0.0,12.0,1.0,0.0
14.0,-7.0,-8.0,8.0,4.0,-7.0,5.0,-7.0,0.0,12.0,0.0
1.0,-4.0,-5.0,16.0,2.0,-12.0,9.0,-18.0,2.0,29.0,0.0
-17.0,14.0,13.0,28.0,0.0,3.0,0.0,-7.0,-10.0,23.0,0.0
-21.0,29.0,14.0,37.0,5.0,8.0,5.0,14.0,-20.0,-1.0,0.0
-15.0,6.0,21.0,39.0,7.0,2.0,5.0,13.0,-13.0,-23.0,0.0
-7.0,1.0,21.0,28.0,7.0,5.0,8.0,18.0,-5.0,-27.0,0.0
-3.0,3.0,0.0,0.0,8.0,9.0,18.0,21.0,-2.0,-32.0,0.0
-1.0,5.0,-15.0,-13.0,2.0,3.0,28.0,22.0,0.0,-49.0,0.0
2.0,15.0,10.0,-14.0,0.0,6.0,32.0,22.0,3.0,-64.0,0.0
-2.0,42.0,45.0,-2.0,-1.0,-10.0,22.0,15.0,-6.0,-66.0,0.0
26.0,104.0,78.0,6.0,0.0,-15.0,14.0,-1.0,-9.0,-45.0,0.0
66.0,168.0,109.0,15.0,8.0,-14.0,0.0,-2.0,-9.0,4.0,0.0
43.0,156.0,122.0,20.0,5.0,-5.0,2.0,6.0,-11.0,43.0,0.0
58.0,123.0,107.0,13.0,-7.0,-10.0,-7.0,-1.0,-7.0,71.0,0.0
101.0,77.0,83.0,2.0,-13.0,-19.0,-25.0,-23.0,-23.0,66.0,0.0
100.0,34.0,42.0,-1.0,-9.0,-9.0,-21.0,-31.0,-33.0,54.0,0.0
73.0,-32.0,-46.0,-11.0,0.0,1.0,-7.0,-22.0,-26.0,48.0,0.0
33.0,-92.0,-89.0,-17.0,-6.0,1.0,-1.0,-10.0,-12.0,28.0,0.0
7.0,-70.0,-60.0,-13.0,-10.0,7.0,2.0,0.0,-13.0,4.0,0.0
-19.0,-51.0,-47.0,-18.0,-6.0,13.0,6.0,7.0,-21.0,-26.0,0.0
-21.0,-48.0,-41.0,-15.0,-7.0,16.0,10.0,-8.0,-26.0,-44.0,0.0
-30.0,-66.0,-37.0,10.0,-1.0,16.0,21.0,-5.0,-24.0,-39.0,0.0
-43.0,-67.0,-38.0,23.0,4.0,17.0,29.0,4.0,-21.0,-28.0,0.0
-42.0,-55.0,-33.0,19.0,14.0,11.0,44.0,7.0,-22.0,-26.0,0.0
-17.0,-43.0,-35.0,21.0,12.0,9.0,48.0,10.0,-11.0,-7.0,0.0
6.0,-38.0,-32.0,12.0,-15.0,-4.0,44.0,1.0,-1.0,16.0,0.0
-5.0,-50.0,-43.0,1.0,-20.0,7.0,32.0,4.0,10.0,19.0,0.0
-5.0,-59.0,-31.0,-2.0,-3.0,4.0,18.0,14.0,22.0,8.0,0.0
-3.0,-45.0,-15.0,-3.0,3.0,4.0,11.0,7.0,20.0,10.0,0.0
1.0,-40.0,-14.0,2.0,9.0,5.0,12.0,0.0,16.0,21.0,0.0
6.0,-36.0,-11.0,1.0,6.0,-1.0,15.0,1.0,18.0,27.0,0.0
13.0,-18.0,-6.0,0.0,2.0,-7.0,12.0,-2.0,18.0,44.0,0.0
9.0,-9.0,2.0,-2.0,1.0,-6.0,-1.0,3.0,11.0,35.0,0.0
1.0,-7.0,5.0,4.0,2.0,-7.0,8.0,1.0,0.0,25.0,0.0
-1.0,-3.0,9.0,10.0,8.0,-11.0,13.0,-6.0,0.0,26.0,0.0
-3.0,0.0,-4.0,11.0,15.0,-6.0,22.0,-10.0,10.0,38.0,0.0
-3.0,5.0,-22.0,12.0,24.0,-5.0,24.0,-13.0,4.0,28.0,0.0
-2.0,11.0,-21.0,16.0,14.0,2.0,15.0,-14.0,-7.0,17.0,0.0
-3.0,14.0,-25.0,13.0,8.0,3.0,-3.0,-9.0,-10.0,26.0,0.0
-2.0,20.0,-25.0,17.0,14.0,-9.0,0.0,0.0,-6.0,20.0,0.0
7.0,24.0,-17.0,28.0,16.0,-6.0,6.0,5.0,-11.0,18.0,0.0
11.0,26.0,-31.0,25.0,10.0,-4.0,7.0,-3.0,-4.0,22.0,0.0
-2.0,15.0,-36.0,17.0,-1.0,-4.0,4.0,-16.0,0.0,24.0,0.0
-11.0,7.0,-32.0,11.0,-6.0,2.0,6.0,-22.0,2.0,18.0,0.0
-28.0,7.0,-22.0,9.0,-4.0,5.0,5.0,-24.0,0.0,10.0,0.0
-36.0,4.0,-12.0,9.0,-8.0,1.0,3.0,-19.0,-6.0,0.0,0.0
-25.0,10.0,-10.0,9.0,-9.0,-3.0,-9.0,-22.0,-3.0,-17.0,0.0
-31.0,6.0,-5.0,-1.0,3.0,-6.0,-4.0,-24.0,0.0,-25.0,0.0
-34.0,-2.0,-17.0,-30.0,6.0,-12.0,-7.0,-24.0,-6.0,-31.0,0.0
-39.0,5.0,-16.0,-27.0,11.0,-13.0,-13.0,-27.0,-9.0,-28.0,0.0
-30.0,4.0,-5.0,-19.0,10.0,-10.0,-6.0,-34.0,-2.0,-21.0,0.0
-22.0,-2.0,-9.0,-16.0,9.0,-3.0,-14.0,-41.0,-6.0,2.0,0.0
-20.0,-15.0,-13.0,-13.0,10.0,-4.0,-19.0,-42.0,-2.0,23.0,0.0
-18.0,-22.0,-4.0,-11.0,10.0,-4.0,-24.0,-28.0,-2.0,19.0,0.0
-6.0,-18.0,3.0,4.0,0.0,-5.0,-21.0,-19.0,6.0,25.0,0.0
14.0,-15.0,9.0,11.0,-11.0,-7.0,-5.0,-16.0,14.0,29.0,0.0
20.0,-3.0,4.0,-3.0,-19.0,-10.0,-20.0,-11.0,11.0,22.0,0.0
20.0,15.0,1.0,-17.0,-16.0,-9.0,-18.0,-11.0,10.0,7.0,0.0
9.0,24.0,-6.0,-28.0,-13.0,0.0,-21.0,-11.0,18.0,-1.0,0.0
3.0,30.0,-3.0,-20.0,-11.0,7.0,-25.0,-8.0,29.0,7.0,0.0
15.0,41.0,13.0,-14.0,-8.0,-3.0,-29.0,-22.0,30.0,14.0,0.0
24.0,30.0,15.0,-15.0,-3.0,-2.0,-25.0,-31.0,26.0,12.0,0.0
32.0,18.0,3.0,-20.0,0.0,1.0,-28.0,-16.0,33.0,14.0,0.0
18.0,9.0,-7.0,-23.0,5.0,5.0,-22.0,-6.0,34.0,11.0,0.0
4.0,-1.0,-8.0,-24.0,11.0,-7.0,-14.0,-14.0,36.0,18.0,0.0
1.0,-6.0,-23.0,-11.0,7.0,0.0,-17.0,-13.0,42.0,30.0,0.0
-4.0,-10.0,-27.0,-7.0,4.0,1.0,-25.0,-3.0,40.0,22.0,0.0
2.0,-13.0,-26.0,-14.0,7.0,2.0,-24.0,-12.0,31.0,11.0,0.0
5.0,-26.0,-36.0,-21.0,11.0,5.0,-25.0,-17.0,26.0,0.0,0.0
8.0,-28.0,-19.0,-15.0,-3.0,8.0,-35.0,-11.0,15.0,0.0,0.0
5.0,-19.0,-5.0,-4.0,2.0,9.0,-44.0,-11.0,11.0,4.0,0.0
-7.0,-12.0,-1.0,-2.0,5.0,1.0,-33.0,-5.0,14.0,8.0,0.0
-23.0,-15.0,20.0,0.0,0.0,-8.0,-22.0,0.0,16.0,2.0,0.0
-19.0,-5.0,36.0,0.0,-3.0,-9.0,-17.0,3.0,6.0,0.0,0.0
-14.0,13.0,25.0,6.0,-4.0,-15.0,-27.0,0.0,-4.0,0.0,0.0
-13.0,53.0,28.0,3.0,-2.0,-7.0,-22.0,-1.0,-5.0,-8.0,0.0
-10.0,75.0,31.0,5.0,7.0,12.0,0.0,-4.0,2.0,-2.0,0.0
-4.0,64.0,23.0,5.0,10.0,15.0,-4.0,-3.0,-8.0,-3.0,0.0
5.0,9.0,-9.0,10.0,10.0,13.0,-15.0,16.0,-10.0,-7.0,0.0
6.0,-39.0,-35.0,11.0,8.0,25.0,0.0,28.0,-1.0,1.0,0.0
3.0,-56.0,-29.0,25.0,1.0,26.0,10.0,20.0,-4.0,-9.0,0.0
-13.0,-47.0,-10.0,34.0,0.0,19.0,1.0,4.0,-10.0,-23.0,0.0
-23.0,-21.0,-1.0,37.0,2.0,14.0,-2.0,11.0,0.0,-29.0,0.0
-24.0,-5.0,-1.0,31.0,16.0,12.0,0.0,7.0,-4.0,-31.0,0.0
-21.0,8.0,-5.0,26.0,13.0,3.0,-2.0,9.0,-14.0,-26.0,0.0
-13.0,45.0,18.0,37.0,5.0,-1.0,-7.0,0.0,-9.0,-26.0,0.0
-7.0,88.0,42.0,42.0,8.0,-4.0,0.0,-9.0,-8.0,-14.0,0.0
-8.0,62.0,39.0,39.0,8.0,-5.0,-1.0,-7.0,-13.0,6.0,0.0
-10.0,26.0,27.0,27.0,7.0,-7.0,0.0,1.0,-12.0,2.0,0.0
-17.0,1.0,19.0,23.0,-3.0,-16.0,3.0,2.0,-16.0,-26.0,0.0
-19.0,-31.0,-7.0,24.0,-2.0,-6.0,1.0,16.0,-5.0,-44.0,0.0
-18.0,-82.0,-71.0,7.0,0.0,13.0,9.0,31.0,12.0,-44.0,0.0
-16.0,-102.0,-90.0,5.0,3.0,15.0,21.0,37.0,16.0,-28.0,0.0
-9.0,-63.0,-50.0,7.0,6.0,3.0,20.0,31.0,8.0,-21.0,0.0
-2.0,-37.0,-33.0,-3.0,-3.0,-5.0,3.0,24.0,12.0,10.0,0.0
17.0,-31.0,-32.0,-7.0,-4.0,-10.0,-3.0,17.0,0.0,36.0,0.0
9.0,-24.0,-29.0,3.0,13.0,10.0,-1.0,18.0,-4.0,39.0,0.0
-38.0,-19.0,-14.0,16.0,23.0,21.0,17.0,28.0,-3.0,-1.0,0.0
-65.0,-23.0,4.0,19.0,18.0,15.0,29.0,28.0,-18.0,-25.0,0.0
-60.0,-27.0,-6.0,25.0,5.0,9.0,21.0,15.0,-26.0,-41.0,0.0
-55.0,-27.0,-7.0,22.0,-1.0,3.0,31.0,22.0,-21.0,-38.0,0.0
-57.0,-31.0,-14.0,13.0,1.0,8.0,26.0,22.0,-26.0,-43.0,0.0
-49.0,-22.0,-21.0,17.0,7.0,7.0,23.0,15.0,-22.0,-25.0,0.0
-16.0,-30.0,-15.0,11.0,17.0,3.0,15.0,7.0,-9.0,10.0,0.0
16.0,-23.0,0.0,4.0,1.0,-1.0,4.0,8.0,-4.0,24.0,0.0
18.0,-9.0,6.0,-3.0,-7.0,-4.0,19.0,18.0,-2.0,25.0,0.0
-2.0,-7.0,2.0,-9.0,-10.0,2.0,18.0,20.0,-8.0,12.0,0.0
-12.0,2.0,6.0,-8.0,-9.0,5.0,20.0,20.0,-6.0,-14.0,0.0
-17.0,7.0,2.0,4.0,-3.0,5.0,2.0,16.0,-8.0,-9.0,0.0
-1.0,-2.0,-4.0,2.0,-13.0,-6.0,4.0,13.0,-7.0,24.0,0.0
8.0,-5.0,-1.0,-3.0,-20.0,-9.0,9.0,13.0,1.0,54.0,0.0
20.0,-3.0,1.0,-17.0,-19.0,-13.0,-4.0,11.0,3.0,78.0,0.0
21.0,11.0,3.0,-13.0,-6.0,-18.0,-1.0,11.0,14.0,89.0,0.0
6.0,12.0,10.0,-8.0,-7.0,-22.0,8.0,19.0,10.0,58.0,0.0
-9.0,6.0,10.0,-25.0,-5.0,-12.0,15.0,25.0,-6.0,25.0,0.0
-8.0,9.0,1.0,-26.0,-3.0,-8.0,16.0,19.0,-10.0,24.0,0.0
0.0,23.0,7.0,-28.0,-8.0,-16.0,4.0,15.0,-10.0,30.0,0.0
1.0,31.0,15.0,-28.0,-8.0,-20.0,-2.0,19.0,-3.0,29.0,0.0
-11.0,33.0,9.0,-23.0,-3.0,-17.0,-4.0,15.0,-11.0,27.0,0.0
-11.0,27.0,6.0,-12.0,6.0,-9.0,-10.0,12.0,-8.0,24.0,0.0
17.0,16.0,12.0,11.0,7.0,-9.0,-9.0,1.0,-12.0,18.0,0.0
34.0,15.0,13.0,16.0,-3.0,-10.0,-20.0,-5.0,-25.0,17.0,0.0
25.0,0.0,11.0,5.0,-4.0,9.0,-12.0,12.0,-34.0,6.0,0.0
11.0,-18.0,-4.0,6.0,-4.0,22.0,-4.0,29.0,-23.0,3.0,0.0
3.0,-16.0,-7.0,0.0,3.0,15.0,0.0,26.0,-17.0,1.0,0.0
-2.0,-7.0,-13.0,-11.0,2.0,12.0,10.0,28.0,-22.0,1.0,0.0
0.0,10.0,-13.0,-8.0,0.0,7.0,12.0,21.0,-29.0,-7.0,0.0
-5.0,1.0,-14.0,-2.0,10.0,18.0,14.0,24.0,-33.0,-13.0,0.0
-9.0,-10.0,-21.0,7.0,4.0,12.0,20.0,33.0,-29.0,-19.0,0.0
-4.0,-8.0,-16.0,5.0,0.0,8.0,18.0,22.0,-19.0,-24.0,0.0
-16.0,-12.0,-5.0,-3.0,16.0,17.0,19.0,26.0,-8.0,-37.0,0.0
-27.0,-16.0,-1.0,-2.0,22.0,11.0,4.0,30.0,-2.0,-40.0,0.0
-28.0,-21.0,1.0,0.0,14.0,11.0,0.0,18.0,0.0,-35.0,0.0
-24.0,-13.0,-7.0,-6.0,5.0,10.0,-6.0,17.0,-12.0,-33.0,0.0
-25.0,3.0,-17.0,-5.0,4.0,3.0,-11.0,10.0,-21.0,-38.0,0.0
-20.0,16.0,-6.0,-1.0,12.0,10.0,-1.0,-8.0,-19.0,-33.0,0.0
-10.0,3.0,-6.0,-1.0,11.0,4.0,-12.0,-17.0,-31.0,-19.0,0.0
5.0,4.0,-11.0,-1.0,-3.0,-2.0,-32.0,-19.0,-43.0,-9.0,0.0
15.0,14.0,6.0,0.0,-13.0,-4.0,-32.0,-16.0,-43.0,-2.0,0.0
22.0,24.0,13.0,-4.0,-14.0,0.0,-16.0,-13.0,-31.0,8.0,0.0
38.0,38.0,16.0,-9.0,-14.0,3.0,-18.0,-3.0,-9.0,22.0,0.0
44.0,38.0,18.0,-5.0,-23.0,4.0,-6.0,-15.0,10.0,37.0,0.0
54.0,43.0,22.0,-13.0,-25.0,-7.0,-3.0,-3.0,15.0,48.0,0.0
67.0,44.0,15.0,-21.0,-28.0,-15.0,0.0,7.0,26.0,49.0,0.0
70.0,34.0,17.0,-14.0,-30.0,-5.0,6.0,8.0,36.0,34.0,0.0
69.0,30.0,14.0,-5.0,-14.0,6.0,1.0,-7.0,31.0,23.0,0.0
50.0,27.0,2.0,-3.0,-6.0,0.0,-11.0,-22.0,14.0,-1.0,0.0
22.0,18.0,-12.0,0.0,-7.0,-1.0,-5.0,-19.0,6.0,-12.0,0.0
8.0,14.0,-12.0,-3.0,0.0,14.0,-10.0,-9.0,13.0,-5.0,0.0
8.0,11.0,-26.0,-6.0,5.0,26.0,-8.0,-5.0,8.0,2.0,0.0
3.0,7.0,-29.0,-6.0,10.0,30.0,-1.0,0.0,1.0,16.0,0.0
-14.0,-5.0,-25.0,-13.0,12.0,18.0,3.0,5.0,6.0,2.0,0.0
-12.0,-8.0,-22.0,-7.0,9.0,16.0,1.0,7.0,-2.0,-14.0,0.0
11.0,10.0,-23.0,-3.0,7.0,5.0,-9.0,10.0,-11.0,-13.0,0.0
21.0,7.0,-19.0,0.0,-1.0,8.0,-24.0,14.0,-19.0,-2.0,0.0
7.0,-4.0,-21.0,1.0,4.0,12.0,-1.0,18.0,-10.0,-14.0,0.0
-8.0,-7.0,-21.0,2.0,4.0,7.0,8.0,9.0,-6.0,-18.0,0.0
-10.0,0.0,-14.0,0.0,4.0,7.0,-2.0,-2.0,-13.0,-34.0,0.0
-13.0,10.0,2.0,0.0,16.0,0.0,6.0,-4.0,-10.0,-49.0,0.0
-19.0,24.0,19.0,2.0,14.0,4.0,17.0,-7.0,-25.0,-54.0,0.0
-16.0,41.0,39.0,4.0,13.0,18.0,4.0,-12.0,-27.0,-52.0,0.0
-4.0,33.0,32.0,10.0,6.0,22.0,7.0,-14.0,-11.0,-35.0,0.0
3.0,21.0,16.0,16.0,3.0,19.0,-2.0,-14.0,-1.0,-8.0,0.0
-7.0,23.0,8.0,11.0,6.0,21.0,-8.0,-17.0,-10.0,0.0,0.0
-16.0,11.0,13.0,-11.0,1.0,5.0,1.0,-21.0,-9.0,-6.0,0.0
-6.0,-5.0,0.0,-48.0,-4.0,0.0,-6.0,-27.0,-3.0,13.0,0.0
-1.0,-9.0,4.0,-52.0,-3.0,7.0,-8.0,-19.0,3.0,6.0,0.0
-7.0,-13.0,19.0,-39.0,-11.0,10.0,-1.0,-17.0,4.0,-18.0,0.0
-11.0,-13.0,36.0,-30.0,-11.0,12.0,-11.0,-19.0,-2.0,-24.0,0.0
-19.0,-13.0,26.0,-25.0,-7.0,10.0,-16.0,-22.0,-1.0,-19.0,0.0
-6.0,-20.0,10.0,-25.0,-11.0,0.0,-8.0,-22.0,0.0,-12.0,0.0
24.0,-18.0,7.0,-19.0,-6.0,-12.0,-16.0,-19.0,-5.0,15.0,0.0
31.0,-14.0,13.0,-9.0,-10.0,-33.0,-24.0,-18.0,-9.0,18.0,0.0
11.0,-41.0,6.0,-11.0,-15.0,-38.0,-11.0,-12.0,-11.0,-3.0,0.0
-2.0,-38.0,-2.0,-16.0,-10.0,-28.0,0.0,-4.0,-4.0,-26.0,0.0
0.0,-13.0,-13.0,-19.0,-9.0,-14.0,-6.0,5.0,2.0,-26.0,0.0
2.0,-5.0,-37.0,-18.0,-1.0,-2.0,-3.0,21.0,13.0,-12.0,0.0
-4.0,-32.0,-68.0,-31.0,-9.0,6.0,17.0,26.0,17.0,-13.0,0.0
19.0,15.0,-37.0,-24.0,-13.0,2.0,14.0,20.0,8.0,8.0,0.0
41.0,103.0,18.0,-3.0,-2.0,0.0,5.0,8.0,-3.0,37.0,0.0
36.0,111.0,40.0,24.0,-9.0,3.0,5.0,12.0,4.0,51.0,0.0
32.0,67.0,35.0,24.0,-14.0,8.0,-7.0,10.0,19.0,44.0,0.0
28.0,15.0,24.0,8.0,-27.0,-7.0,-9.0,0.0,13.0,26.0,0.0
22.0,-38.0,-35.0,4.0,-20.0,-11.0,-1.0,11.0,24.0,21.0,0.0
20.0,-91.0,-114.0,9.0,-15.0,-3.0,9.0,32.0,30.0,17.0,0.0
4.0,-105.0,-108.0,20.0,-13.0,-5.0,13.0,27.0,33.0,12.0,0.0
-10.0,-68.0,-60.0,19.0,-8.0,-14.0,6.0,21.0,19.0,6.0,0.0
-7.0,-44.0,-49.0,8.0,-6.0,-20.0,-3.0,19.0,5.0,4.0,0.0
0.0,-39.0,-41.0,7.0,4.0,-11.0,1.0,15.0,4.0,22.0,0.0
-3.0,-42.0,-33.0,0.0,5.0,-7.0,0.0,15.0,17.0,31.0,0.0
7.0,-35.0,-8.0,9.0,2.0,-5.0,-15.0,23.0,25.0,27.0,0.0
7.0,-7.0,20.0,-1.0,-6.0,-21.0,-21.0,19.0,17.0,11.0,0.0
8.0,15.0,14.0,-36.0,0.0,-27.0,-4.0,12.0,7.0,-3.0,0.0
5.0,35.0,8.0,-43.0,8.0,-19.0,3.0,12.0,-1.0,-19.0,0.0
9.0,52.0,1.0,-33.0,0.0,0.0,15.0,15.0,2.0,-21.0,0.0
11.0,44.0,-15.0,-33.0,-1.0,8.0,15.0,17.0,13.0,-15.0,0.0
4.0,7.0,-24.0,-22.0,3.0,16.0,14.0,12.0,16.0,-7.0,0.0
3.0,-41.0,-36.0,-24.0,14.0,19.0,16.0,20.0,12.0,8.0,0.0
12.0,-63.0,-38.0,-18.0,17.0,0.0,12.0,23.0,3.0,23.0,0.0
4.0,-65.0,-38.0,-4.0,16.0,-2.0,9.0,13.0,2.0,25.0,0.0
-7.0,-47.0,-24.0,10.0,14.0,2.0,10.0,15.0,0.0,6.0,0.0
-14.0,-39.0,-24.0,8.0,20.0,6.0,4.0,21.0,2.0,-25.0,0.0
-13.0,-32.0,-14.0,17.0,17.0,6.0,0.0,4.0,8.0,-28.0,0.0
-15.0,-28.0,-6.0,21.0,11.0,9.0,-24.0,-1.0,-7.0,-41.0,0.0
-20.0,-22.0,8.0,21.0,6.0,0.0,-39.0,-6.0,-24.0,-49.0,0.0
-13.0,-9.0,17.0,23.0,6.0,1.0,-14.0,6.0,-16.0,-13.0,0.0
-12.0,-5.0,17.0,28.0,4.0,-8.0,0.0,-5.0,-9.0,8.0,0.0
-3.0,4.0,16.0,25.0,-7.0,-12.0,-5.0,-15.0,-19.0,20.0,0.0
-4.0,21.0,37.0,19.0,-8.0,-13.0,-4.0,-22.0,-13.0,23.0,0.0
3.0,27.0,41.0,16.0,-11.0,-9.0,-5.0,-15.0,-2.0,22.0,0.0
0.0,18.0,35.0,14.0,-2.0,-4.0,-6.0,1.0,-5.0,10.0,0.0
-9.0,10.0,24.0,20.0,2.0,-7.0,-11.0,7.0,-1.0,1.0,0.0
0.0,20.0,14.0,11.0,1.0,-9.0,0.0,-3.0,6.0,0.0,0.0
17.0,30.0,11.0,1.0,-1.0,-14.0,-2.0,-12.0,0.0,1.0,0.0
30.0,28.0,13.0,3.0,7.0,-16.0,-8.0,-17.0,-4.0,3.0,0.0
28.0,35.0,11.0,1.0,11.0,-9.0,10.0,-11.0,15.0,8.0,0.0
16.0,37.0,13.0,0.0,11.0,-16.0,-5.0,-16.0,24.0,22.0,0.0
15.0,35.0,13.0,-5.0,0.0,-22.0,-24.0,-20.0,7.0,32.0,0.0
19.0,43.0,21.0,4.0,-10.0,-18.0,-23.0,-33.0,2.0,29.0,0.0
18.0,36.0,21.0,13.0,-12.0,-24.0,-38.0,-38.0,9.0,23.0,0.0
22.0,31.0,18.0,13.0,-8.0,-20.0,-39.0,-29.0,11.0,20.0,0.0
15.0,17.0,-1.0,12.0,-5.0,-21.0,-34.0,-22.0,2.0,24.0,0.0
4.0,27.0,-1.0,2.0,-14.0,-27.0,-36.0,-20.0,0.0,27.0,0.0
-5.0,16.0,-10.0,-13.0,-12.0,-19.0,-36.0,-12.0,10.0,24.0,0.0
-8.0,1.0,-18.0,-14.0,-2.0,-6.0,-24.0,-9.0,18.0,35.0,0.0
-14.0,-10.0,-18.0,-11.0,9.0,-3.0,-5.0,-3.0,32.0,47.0,0.0
-26.0,-19.0,-16.0,-8.0,3.0,2.0,7.0,8.0,48.0,36.0,0.0
-37.0,-31.0,-19.0,-7.0,4.0,12.0,6.0,11.0,35.0,10.0,0.0
-38.0,-24.0,-18.0,2.0,0.0,14.0,19.0,22.0,26.0,-5.0,0.0
-34.0,-26.0,-11.0,2.0,8.0,18.0,24.0,13.0,17.0,-13.0,0.0
-46.0,-27.0,-3.0,7.0,11.0,9.0,13.0,20.0,3.0,-24.0,0.0
-54.0,-9.0,1.0,13.0,15.0,7.0,16.0,5.0,-4.0,-41.0,0.0
-56.0,15.0,20.0,12.0,12.0,12.0,2.0,-8.0,-13.0,-42.0,0.0
-56.0,8.0,28.0,11.0,12.0,13.0,4.0,-7.0,-14.0,-29.0,0.0
-50.0,0.0,24.0,7.0,12.0,6.0,21.0,-11.0,-9.0,-31.0,0.0
-31.0,4.0,25.0,-12.0,9.0,-9.0,17.0,-5.0,-6.0,-15.0,0.0
-5.0,7.0,33.0,-23.0,-2.0,-10.0,2.0,-7.0,-15.0,-9.0,0.0
2.0,11.0,27.0,0.0,-17.0,-7.0,1.0,2.0,-11.0,3.0,0.0
-4.0,27.0,10.0,-1.0,-12.0,-6.0,-2.0,9.0,-3.0,9.0,0.0
-13.0,29.0,4.0,-13.0,-4.0,-1.0,-4.0,17.0,-4.0,1.0,0.0
-14.0,9.0,7.0,-27.0,-11.0,0.0,-3.0,15.0,-14.0,-10.0,0.0
-4.0,-1.0,1.0,-28.0,-10.0,7.0,-2.0,9.0,-14.0,-20.0,0.0
-1.0,0.0,-8.0,-20.0,-1.0,15.0,-3.0,6.0,-12.0,-24.0,0.0
-6.0,2.0,-12.0,1.0,-3.0,13.0,-19.0,9.0,-12.0,-25.0,0.0
-6.0,0.0,-19.0,16.0,-2.0,7.0,-29.0,0.0,-11.0,-19.0,0.0
-5.0,-5.0,-18.0,16.0,-1.0,3.0,-11.0,-7.0,-6.0,-12.0,0.0
1.0,-5.0,-24.0,12.0,-9.0,-7.0,-6.0,-10.0,-3.0,-9.0,0.0
5.0,-5.0,-20.0,13.0,-1.0,-6.0,-18.0,-6.0,-1.0,-1.0,0.0
6.0,-22.0,-13.0,17.0,8.0,-9.0,-32.0,-5.0,-5.0,1.0,0.0
14.0,-19.0,-12.0,0.0,0.0,-20.0,-37.0,-8.0,-5.0,22.0,0.0
26.0,-19.0,-20.0,0.0,-19.0,-15.0,-52.0,-6.0,10.0,45.0,0.0
12.0,-19.0,-18.0,0.0,-11.0,-14.0,-32.0,-2.0,12.0,27.0,0.0
0.0,-13.0,7.0,14.0,-1.0,-15.0,-4.0,9.0,1.0,-6.0,0.0
-12.0,-1.0,24.0,17.0,-7.0,-11.0,5.0,10.0,-1.0,-27.0,0.0
-11.0,7.0,27.0,18.0,-13.0,-21.0,0.0,4.0,0.0,-28.0,0.0
-2.0,-1.0,24.0,20.0,-16.0,-36.0,-5.0,2.0,6.0,-26.0,0.0
0.0,-1.0,33.0,19.0,-4.0,-20.0,-15.0,6.0,7.0,-13.0,0.0
17.0,-7.0,30.0,14.0,-2.0,-20.0,-15.0,2.0,9.0,10.0,0.0
47.0,-12.0,23.0,9.0,-2.0,-25.0,-11.0,6.0,12.0,38.0,0.0
69.0,-15.0,12.0,3.0,0.0,-11.0,-11.0,13.0,15.0,54.0,0.0
48.0,-28.0,5.0,-17.0,-12.0,0.0,-5.0,17.0,20.0,43.0,0.0
27.0,-6.0,-10.0,-24.0,-21.0,-6.0,-10.0,-3.0,17.0,34.0,0.0
21.0,11.0,-9.0,-13.0,-21.0,-19.0,-6.0,-15.0,18.0,6.0,0.0
8.0,23.0,3.0,-15.0,-14.0,-20.0,12.0,-7.0,19.0,-12.0,0.0
-2.0,25.0,-2.0,-7.0,-17.0,-8.0,13.0,-4.0,22.0,-23.0,0.0
-9.0,1.0,-7.0,11.0,-17.0,-2.0,4.0,3.0,10.0,-38.0,0.0
-9.0,-3.0,8.0,22.0,-10.0,9.0,6.0,4.0,-4.0,-46.0,0.0
-20.0,0.0,29.0,26.0,-7.0,11.0,-1.0,-12.0,0.0,-51.0,0.0
2.0,-1.0,27.0,24.0,-12.0,10.0,-7.0,-13.0,-6.0,-18.0,0.0
12.0,3.0,20.0,18.0,-15.0,-17.0,-19.0,-39.0,-35.0,21.0,0.0
-14.0,-15.0,16.0,6.0,-12.0,-31.0,-57.0,-62.0,-87.0,-16.0,0.0
-22.0,1.0,30.0,18.0,-2.0,15.0,-15.0,-23.0,-23.0,-15.0,0.0
-20.0,-5.0,38.0,43.0,4.0,24.0,3.0,-17.0,5.0,-20.0,0.0
-11.0,-11.0,37.0,34.0,6.0,11.0,-3.0,-19.0,0.0,-28.0,0.0
-8.0,-9.0,29.0,23.0,4.0,17.0,-5.0,-4.0,-2.0,-14.0,0.0
-16.0,-14.0,18.0,22.0,1.0,22.0,1.0,-10.0,-3.0,-12.0,0.0
-11.0,-7.0,17.0,10.0,4.0,17.0,13.0,-3.0,1.0,-8.0,0.0
-9.0,19.0,19.0,7.0,-7.0,3.0,10.0,-10.0,-1.0,6.0,0.0
-5.0,17.0,12.0,4.0,-14.0,5.0,9.0,-16.0,-2.0,13.0,0.0
-1.0,45.0,14.0,2.0,-7.0,-5.0,5.0,-19.0,-4.0,18.0,0.0
13.0,84.0,38.0,0.0,0.0,-2.0,16.0,-10.0,3.0,21.0,0.0
16.0,75.0,43.0,-6.0,5.0,0.0,18.0,-13.0,5.0,14.0,0.0
0.0,37.0,55.0,-8.0,4.0,0.0,9.0,-18.0,3.0,-2.0,0.0
6.0,17.0,42.0,5.0,-4.0,5.0,9.0,-17.0,13.0,-2.0,0.0
7.0,-4.0,5.0,9.0,-6.0,9.0,11.0,-13.0,17.0,4.0,0.0
8.0,-69.0,-68.0,9.0,-12.0,8.0,17.0,1.0,20.0,18.0,0.0
5.0,-108.0,-110.0,11.0,-10.0,11.0,5.0,9.0,16.0,16.0,0.0
-9.0,-71.0,-72.0,14.0,-7.0,2.0,10.0,11.0,17.0,6.0,0.0
-9.0,-40.0,-36.0,9.0,-17.0,-2.0,19.0,19.0,26.0,3.0,0.0
0.0,-30.0,-25.0,-3.0,-14.0,0.0,11.0,25.0,26.0,-6.0,0.0
-8.0,-22.0,-19.0,-5.0,-3.0,14.0,0.0,30.0,15.0,-4.0,0.0
-11.0,-25.0,-8.0,5.0,1.0,19.0,8.0,25.0,17.0,-12.0,0.0
-6.0,-25.0,-5.0,8.0,-4.0,12.0,11.0,25.0,7.0,-23.0,0.0
6.0,-25.0,-5.0,11.0,-12.0,6.0,2.0,8.0,-1.0,-13.0,0.0
18.0,-13.0,-8.0,9.0,-11.0,12.0,3.0,3.0,-4.0,15.0,0.0
13.0,12.0,3.0,9.0,-8.0,13.0,9.0,-9.0,-12.0,13.0,0.0
1.0,12.0,7.0,0.0,-4.0,11.0,5.0,-21.0,-21.0,-10.0,0.0
1.0,7.0,1.0,2.0,-1.0,18.0,5.0,-25.0,-21.0,-10.0,0.0
10.0,-12.0,5.0,4.0,-3.0,14.0,3.0,-16.0,-6.0,15.0,0.0
19.0,-29.0,4.0,9.0,-8.0,7.0,-11.0,-24.0,-23.0,16.0,0.0
11.0,-24.0,17.0,12.0,-6.0,28.0,3.0,-18.0,-22.0,-11.0,0.0
-4.0,-30.0,10.0,6.0,2.0,39.0,24.0,-1.0,-3.0,-16.0,0.0
-11.0,-29.0,-8.0,0.0,3.0,31.0,32.0,8.0,3.0,-10.0,0.0
-8.0,-36.0,-19.0,-3.0,7.0,21.0,26.0,6.0,8.0,-5.0,0.0
-1.0,-32.0,-20.0,-5.0,15.0,11.0,41.0,0.0,3.0,-16.0,0.0
16.0,-25.0,-27.0,-17.0,11.0,5.0,31.0,0.0,-7.0,-11.0,0.0
35.0,-12.0,-29.0,-15.0,-1.0,8.0,25.0,-6.0,-21.0,-9.0,0.0
38.0,-12.0,-24.0,-18.0,12.0,13.0,30.0,4.0,-2.0,-2.0,0.0
22.0,5.0,-20.0,-5.0,12.0,12.0,29.0,8.0,4.0,-6.0,0.0
15.0,36.0,0.0,0.0,0.0,3.0,28.0,-1.0,4.0,0.0,0.0
12.0,31.0,7.0,-3.0,-4.0,5.0,18.0,3.0,7.0,18.0,0.0
10.0,40.0,23.0,3.0,-1.0,0.0,2.0,5.0,-4.0,20.0,0.0
-4.0,84.0,53.0,8.0,0.0,-10.0,0.0,5.0,-2.0,7.0,0.0
1.0,123.0,57.0,5.0,-5.0,-13.0,-2.0,1.0,8.0,0.0,0.0
3.0,111.0,38.0,9.0,-9.0,-15.0,-7.0,7.0,0.0,-3.0,0.0
-5.0,80.0,26.0,4.0,-3.0,-14.0,8.0,4.0,3.0,-8.0,0.0
-12.0,30.0,12.0,-8.0,-3.0,-7.0,7.0,4.0,4.0,-4.0,0.0
-16.0,-3.0,-7.0,-5.0,-2.0,-4.0,18.0,8.0,12.0,-5.0,0.0
-11.0,-11.0,-14.0,4.0,14.0,7.0,29.0,23.0,22.0,-2.0,0.0
-6.0,-16.0,-10.0,6.0,18.0,14.0,20.0,26.0,8.0,-10.0,0.0
-16.0,0.0,12.0,7.0,8.0,15.0,17.0,21.0,-2.0,-25.0,0.0
-30.0,15.0,35.0,13.0,16.0,15.0,16.0,15.0,-2.0,-35.0,0.0
-23.0,25.0,32.0,20.0,21.0,14.0,22.0,26.0,-3.0,-35.0,0.0
-1.0,19.0,10.0,3.0,17.0,16.0,4.0,19.0,-7.0,-23.0,0.0
11.0,-14.0,-13.0,-4.0,4.0,8.0,-5.0,13.0,-5.0,-9.0,0.0
36.0,-27.0,-11.0,-4.0,3.0,-3.0,-6.0,5.0,16.0,30.0,0.0
40.0,-18.0,-4.0,-13.0,-8.0,-7.0,-19.0,2.0,27.0,63.0,0.0
12.0,-8.0,4.0,-14.0,-6.0,-3.0,-21.0,-4.0,27.0,30.0,0.0
8.0,-12.0,-4.0,-7.0,7.0,9.0,-6.0,-11.0,19.0,0.0,0.0
9.0,-13.0,-17.0,-1.0,5.0,0.0,-15.0,-11.0,15.0,4.0,0.0
4.0,-21.0,-12.0,-3.0,7.0,-17.0,-15.0,-1.0,9.0,15.0,0.0
6.0,-35.0,-6.0,-3.0,-1.0,-20.0,-22.0,0.0,4.0,4.0,0.0
27.0,-21.0,-5.0,-7.0,-15.0,-12.0,-31.0,-4.0,21.0,29.0,0.0
67.0,13.0,-4.0,-1.0,-15.0,-18.0,-16.0,-2.0,29.0,70.0,0.0
69.0,34.0,4.0,1.0,-6.0,-16.0,-8.0,-10.0,37.0,94.0,0.0
41.0,13.0,7.0,0.0,8.0,-22.0,-10.0,-19.0,44.0,66.0,0.0
18.0,8.0,10.0,-7.0,11.0,-19.0,-5.0,-16.0,30.0,35.0,0.0
20.0,20.0,3.0,-5.0,0.0,-20.0,2.0,-9.0,23.0,17.0,0.0
21.0,19.0,-3.0,8.0,6.0,-23.0,-6.0,-5.0,8.0,2.0,0.0
26.0,15.0,0.0,13.0,11.0,-9.0,6.0,5.0,2.0,-1.0,0.0
11.0,14.0,0.0,12.0,12.0,0.0,27.0,3.0,3.0,-17.0,0.0
-3.0,14.0,0.0,8.0,17.0,-3.0,13.0,1.0,5.0,-24.0,0.0
6.0,19.0,14.0,16.0,12.0,-7.0,14.0,2.0,-8.0,-28.0,0.0
0.0,59.0,47.0,16.0,17.0,-13.0,12.0,-1.0,-21.0,-45.0,0.0
-6.0,82.0,50.0,13.0,17.0,-8.0,1.0,-15.0,-17.0,-56.0,0.0
-13.0,71.0,49.0,14.0,20.0,-14.0,4.0,-23.0,-17.0,-77.0,0.0
-17.0,41.0,35.0,6.0,5.0,-22.0,-2.0,-30.0,-25.0,-74.0,0.0
-21.0,10.0,18.0,2.0,17.0,-23.0,-5.0,-37.0,-29.0,-71.0,0.0
-27.0,-43.0,-63.0,6.0,24.0,-18.0,9.0,-30.0,-25.0,-71.0,0.0
-8.0,-87.0,-122.0,6.0,34.0,4.0,20.0,-23.0,-32.0,-39.0,0.0
21.0,-61.0,-94.0,7.0,43.0,7.0,16.0,-19.0,-30.0,3.0,0.0
0.0,-17.0,-48.0,8.0,36.0,12.0,16.0,-13.0,-21.0,12.0,0.0
-19.0,-15.0,-35.0,7.0,30.0,10.0,14.0,-31.0,-17.0,-5.0,0.0
-23.0,-25.0,-44.0,8.0,20.0,11.0,10.0,-30.0,-15.0,-10.0,0.0
-7.0,-20.0,-47.0,5.0,11.0,11.0,9.0,-20.0,-12.0,2.0,0.0
1.0,-19.0,-36.0,-19.0,9.0,10.0,12.0,-7.0,-13.0,2.0,0.0
2.0,-13.0,-31.0,-11.0,13.0,10.0,21.0,7.0,-26.0,2.0,0.0
5.0,-5.0,-27.0,-6.0,5.0,6.0,18.0,2.0,-16.0,1.0,0.0
-5.0,-1.0,-18.0,-6.0,7.0,16.0,0.0,-15.0,-6.0,3.0,0.0
-11.0,-4.0,-24.0,-4.0,10.0,8.0,-5.0,-18.0,-3.0,0.0,0.0
1.0,-1.0,-10.0,-1.0,4.0,8.0,-1.0,1.0,-2.0,-11.0,0.0
2.0,-2.0,-5.0,7.0,13.0,13.0,-3.0,13.0,-2.0,-19.0,0.0
-2.0,-4.0,-14.0,15.0,9.0,10.0,-3.0,11.0,-6.0,-23.0,0.0
-2.0,-2.0,-5.0,22.0,18.0,4.0,0.0,14.0,2.0,-29.0,0.0
-8.0,-2.0,-6.0,21.0,14.0,1.0,-2.0,12.0,-14.0,-26.0,0.0
1.0,16.0,3.0,19.0,-3.0,-3.0,-27.0,-7.0,-38.0,-23.0,0.0
18.0,45.0,16.0,19.0,3.0,3.0,-37.0,-28.0,-30.0,4.0,0.0
19.0,50.0,23.0,10.0,2.0,8.0,-34.0,-42.0,-25.0,22.0,0.0
6.0,38.0,20.0,15.0,16.0,6.0,-24.0,-27.0,-20.0,16.0,0.0
-3.0,15.0,16.0,10.0,27.0,2.0,-17.0,-27.0,-16.0,7.0,0.0
-1.0,6.0,26.0,15.0,26.0,12.0,-5.0,-25.0,-13.0,-5.0,0.0
1.0,9.0,29.0,16.0,19.0,11.0,0.0,-13.0,-7.0,-19.0,0.0
-5.0,11.0,23.0,20.0,24.0,10.0,-7.0,-23.0,-5.0,-31.0,0.0
-5.0,15.0,22.0,22.0,36.0,17.0,9.0,-27.0,-15.0,-34.0,0.0
0.0,10.0,8.0,19.0,35.0,21.0,19.0,-6.0,-12.0,-24.0,0.0
-4.0,3.0,0.0,13.0,28.0,8.0,16.0,-6.0,-7.0,-28.0,0.0
-8.0,-3.0,10.0,3.0,34.0,8.0,10.0,-1.0,0.0,-35.0,0.0
-25.0,-8.0,15.0,-1.0,27.0,16.0,16.0,2.0,9.0,-30.0,0.0
-43.0,-14.0,18.0,5.0,26.0,20.0,0.0,0.0,15.0,-28.0,0.0
-50.0,-20.0,24.0,12.0,29.0,17.0,-1.0,9.0,16.0,-18.0,0.0
-41.0,-29.0,18.0,11.0,22.0,10.0,9.0,7.0,6.0,8.0,0.0
-23.0,-18.0,19.0,12.0,20.0,6.0,-12.0,-2.0,0.0,17.0,0.0
-9.0,-6.0,16.0,8.0,7.0,-1.0,-27.0,-12.0,-7.0,9.0,0.0
11.0,-9.0,-1.0,-2.0,3.0,-3.0,-26.0,-27.0,-9.0,7.0,0.0
42.0,-10.0,-6.0,-15.0,3.0,-7.0,-28.0,-36.0,-6.0,37.0,0.0
57.0,-12.0,-17.0,-25.0,-7.0,-9.0,-35.0,-29.0,1.0,53.0,0.0
48.0,-9.0,-18.0,-30.0,-12.0,-9.0,-33.0,-19.0,1.0,48.0,0.0
52.0,3.0,-18.0,-30.0,-14.0,-18.0,-34.0,-5.0,7.0,40.0,0.0
59.0,5.0,-18.0,-26.0,-15.0,-19.0,-23.0,-1.0,18.0,33.0,0.0
25.0,2.0,-16.0,-26.0,-4.0,-15.0,-2.0,-2.0,17.0,17.0,0.0
14.0,-1.0,-11.0,-23.0,2.0,-3.0,9.0,5.0,13.0,6.0,0.0
0.0,-8.0,-6.0,-24.0,6.0,0.0,12.0,21.0,0.0,-8.0,0.0
-5.0,-5.0,-7.0,-37.0,5.0,0.0,19.0,32.0,1.0,-23.0,0.0
-12.0,-7.0,-8.0,-15.0,6.0,1.0,0.0,23.0,0.0,-27.0,0.0
-18.0,-16.0,-6.0,-9.0,7.0,0.0,-6.0,6.0,-5.0,-32.0,0.0
-22.0,-27.0,-13.0,-16.0,6.0,-4.0,1.0,3.0,3.0,-29.0,0.0
-14.0,-33.0,-15.0,-11.0,10.0,-5.0,1.0,-3.0,26.0,4.0,0.0
-11.0,-28.0,-21.0,-15.0,8.0,-2.0,-2.0,-2.0,27.0,6.0,0.0
-14.0,-33.0,-39.0,-13.0,6.0,-4.0,17.0,0.0,27.0,-3.0,0.0
-11.0,-21.0,-40.0,-17.0,-7.0,-5.0,9.0,0.0,28.0,2.0,0.0
9.0,-13.0,-26.0,-25.0,-20.0,-14.0,-4.0,0.0,18.0,17.0,0.0
39.0,-12.0,-14.0,-43.0,-18.0,-27.0,-18.0,-15.0,0.0,40.0,0.0
68.0,1.0,-1.0,-36.0,-7.0,-20.0,-7.0,-10.0,19.0,58.0,0.0
68.0,13.0,-1.0,-20.0,2.0,-12.0,5.0,9.0,20.0,64.0,0.0
49.0,-6.0,-7.0,-19.0,12.0,-8.0,14.0,12.0,18.0,49.0,0.0
28.0,-35.0,-6.0,-17.0,10.0,-9.0,14.0,12.0,20.0,29.0,0.0
8.0,-42.0,-15.0,-6.0,9.0,-6.0,13.0,21.0,20.0,26.0,0.0
-16.0,-43.0,-43.0,5.0,0.0,-1.0,19.0,25.0,25.0,14.0,0.0
-21.0,-3.0,-36.0,13.0,5.0,12.0,18.0,28.0,27.0,-4.0,0.0
-22.0,60.0,-13.0,23.0,13.0,22.0,23.0,33.0,19.0,-9.0,0.0
-27.0,68.0,-5.0,25.0,18.0,33.0,27.0,25.0,20.0,-26.0,0.0
-31.0,47.0,-12.0,14.0,11.0,34.0,27.0,19.0,18.0,-22.0,0.0
-8.0,25.0,-19.0,9.0,-1.0,21.0,37.0,6.0,23.0,17.0,0.0
-3.0,28.0,-27.0,13.0,-15.0,13.0,34.0,-4.0,10.0,21.0,0.0
-11.0,19.0,-32.0,17.0,-14.0,9.0,31.0,-8.0,-11.0,8.0,0.0
-12.0,-1.0,-28.0,14.0,-11.0,3.0,18.0,-15.0,-16.0,-5.0,0.0
-15.0,-24.0,-29.0,9.0,-17.0,10.0,25.0,-14.0,-20.0,-17.0,0.0
-9.0,-39.0,-19.0,-8.0,-19.0,13.0,23.0,-13.0,-17.0,-3.0,0.0
-4.0,-29.0,-19.0,-15.0,-15.0,13.0,22.0,-20.0,-9.0,1.0,0.0
-18.0,-22.0,-20.0,-17.0,-13.0,10.0,11.0,-12.0,-8.0,-3.0,0.0
-29.0,-12.0,-8.0,-11.0,-4.0,11.0,2.0,-11.0,-8.0,-9.0,0.0
-21.0,-15.0,-6.0,-8.0,0.0,19.0,9.0,-7.0,-15.0,-13.0,0.0
-25.0,-14.0,-14.0,-7.0,12.0,14.0,-7.0,-8.0,-13.0,-24.0,0.0
-13.0,0.0,-18.0,-4.0,9.0,7.0,0.0,-13.0,-3.0,-25.0,0.0
-18.0,-2.0,-11.0,-7.0,7.0,1.0,-4.0,-22.0,4.0,-1.0,0.0
-29.0,-19.0,-18.0,11.0,10.0,0.0,-16.0,-14.0,9.0,-14.0,0.0
-30.0,-22.0,-23.0,26.0,3.0,-1.0,-8.0,-6.0,6.0,-22.0,0.0
-1.0,-1.0,-28.0,24.0,-5.0,-5.0,-15.0,-19.0,4.0,-15.0,0.0
13.0,15.0,-13.0,18.0,-17.0,4.0,-23.0,-26.0,0.0,-27.0,0.0
19.0,36.0,14.0,18.0,-16.0,0.0,-11.0,-32.0,2.0,-41.0,0.0
5.0,37.0,4.0,17.0,-9.0,-7.0,0.0,-30.0,-1.0,-59.0,0.0
0.0,25.0,-13.0,14.0,-10.0,-9.0,-3.0,-25.0,-13.0,-39.0,0.0
39.0,35.0,-5.0,15.0,-15.0,-13.0,-16.0,-25.0,-19.0,31.0,0.0
47.0,16.0,7.0,22.0,-14.0,-2.0,-17.0,-31.0,2.0,79.0,0.0
2.0,-18.0,-3.0,23.0,-7.0,11.0,-14.0,-17.0,6.0,71.0,0.0
-17.0,-42.0,-10.0,16.0,-5.0,20.0,-9.0,-12.0,5.0,37.0,0.0
-5.0,-42.0,-12.0,11.0,3.0,11.0,-3.0,3.0,18.0,19.0,0.0
-2.0,-44.0,-22.0,-3.0,8.0,6.0,4.0,15.0,16.0,26.0,0.0
4.0,-35.0,-9.0,-13.0,0.0,-5.0,2.0,21.0,23.0,51.0,0.0
25.0,-20.0,1.0,-13.0,-12.0,-8.0,6.0,10.0,31.0,63.0,0.0
31.0,-10.0,10.0,-12.0,-12.0,0.0,-6.0,7.0,23.0,40.0,0.0
21.0,-17.0,2.0,-14.0,-3.0,1.0,-9.0,1.0,16.0,28.0,0.0
20.0,-16.0,-10.0,-26.0,2.0,-6.0,1.0,2.0,27.0,29.0,0.0
23.0,-15.0,-14.0,-34.0,3.0,-10.0,-1.0,17.0,29.0,42.0,0.0
24.0,-31.0,-32.0,-29.0,-7.0,-13.0,2.0,17.0,40.0,42.0,0.0
22.0,-38.0,-31.0,-22.0,-11.0,-13.0,11.0,25.0,54.0,55.0,0.0
23.0,-51.0,-15.0,-19.0,-15.0,-3.0,-3.0,15.0,39.0,56.0,0.0
4.0,-55.0,0.0,-27.0,-14.0,-8.0,-10.0,4.0,19.0,30.0,0.0
-14.0,-45.0,4.0,-18.0,-13.0,-9.0,-14.0,10.0,17.0,12.0,0.0
-20.0,-32.0,-5.0,-18.0,-9.0,-6.0,-10.0,20.0,7.0,3.0,0.0
-25.0,-31.0,-3.0,-21.0,3.0,-1.0,-8.0,25.0,-14.0,0.0,0.0
-38.0,-27.0,11.0,-12.0,12.0,5.0,5.0,21.0,-12.0,-11.0,0.0
-32.0,1.0,24.0,-13.0,17.0,0.0,-1.0,23.0,-19.0,-33.0,0.0
-20.0,22.0,29.0,-19.0,12.0,0.0,-3.0,19.0,-17.0,-43.0,0.0
-23.0,23.0,27.0,-19.0,12.0,0.0,-8.0,22.0,-11.0,-40.0,0.0
-34.0,15.0,25.0,-5.0,21.0,-5.0,0.0,23.0,1.0,-37.0,0.0
-26.0,7.0,26.0,5.0,21.0,9.0,18.0,19.0,3.0,-28.0,0.0
-14.0,3.0,27.0,21.0,32.0,21.0,28.0,20.0,1.0,-24.0,0.0
-21.0,0.0,21.0,31.0,33.0,16.0,21.0,20.0,3.0,-25.0,0.0
-15.0,-6.0,13.0,19.0,26.0,13.0,17.0,18.0,-9.0,-5.0,0.0
0.0,-6.0,4.0,8.0,15.0,2.0,9.0,6.0,-10.0,6.0,0.0
0.0,-8.0,2.0,8.0,13.0,6.0,6.0,8.0,-20.0,-3.0,0.0
-26.0,-1.0,7.0,6.0,15.0,8.0,-5.0,10.0,-34.0,-21.0,0.0
-33.0,-5.0,6.0,-7.0,28.0,16.0,-18.0,12.0,-33.0,-32.0,0.0
-26.0,-6.0,3.0,-18.0,19.0,17.0,-9.0,7.0,-36.0,-40.0,0.0
-32.0,-8.0,-2.0,-20.0,18.0,13.0,-6.0,1.0,-39.0,-38.0,0.0
-26.0,-8.0,0.0,-15.0,22.0,12.0,-20.0,1.0,-32.0,-13.0,0.0
3.0,22.0,23.0,7.0,25.0,21.0,-22.0,-9.0,-36.0,19.0,0.0
5.0,79.0,69.0,33.0,22.0,24.0,-18.0,-9.0,-33.0,11.0,0.0
-9.0,90.0,93.0,48.0,22.0,21.0,-11.0,-4.0,-32.0,-23.0,0.0
-16.0,59.0,84.0,43.0,14.0,24.0,-10.0,-4.0,-32.0,-26.0,0.0
-7.0,40.0,77.0,35.0,16.0,9.0,-14.0,3.0,-26.0,-20.0,0.0
0.0,13.0,65.0,33.0,15.0,6.0,-11.0,6.0,-15.0,-17.0,0.0
9.0,-31.0,-5.0,14.0,20.0,14.0,-19.0,8.0,-2.0,8.0,0.0
20.0,-101.0,-82.0,-12.0,21.0,13.0,-22.0,9.0,7.0,40.0,0.0
24.0,-96.0,-73.0,-24.0,13.0,4.0,-13.0,12.0,0.0,43.0,0.0
10.0,-57.0,-28.0,-16.0,19.0,0.0,-6.0,12.0,-20.0,38.0,0.0
5.0,-32.0,-14.0,21.0,32.0,13.0,5.0,17.0,-25.0,8.0,0.0
7.0,-20.0,-4.0,31.0,27.0,8.0,10.0,16.0,-25.0,2.0,0.0
0.0,-20.0,0.0,15.0,15.0,4.0,4.0,12.0,-32.0,1.0,0.0
-6.0,-24.0,3.0,8.0,7.0,-3.0,1.0,11.0,-28.0,3.0,0.0
1.0,-16.0,-11.0,11.0,10.0,0.0,-6.0,8.0,-27.0,5.0,0.0
3.0,-2.0,-15.0,10.0,8.0,-9.0,-7.0,0.0,-22.0,4.0,0.0
-8.0,1.0,-15.0,21.0,1.0,-10.0,-20.0,3.0,-16.0,9.0,0.0
-12.0,1.0,-8.0,22.0,-9.0,-18.0,-30.0,10.0,-22.0,4.0,0.0
-16.0,8.0,6.0,16.0,-18.0,-18.0,-17.0,7.0,-12.0,-2.0,0.0
-10.0,13.0,8.0,15.0,-16.0,-23.0,-2.0,6.0,1.0,7.0,0.0
0.0,0.0,6.0,5.0,-4.0,-33.0,-1.0,6.0,3.0,27.0,0.0
2.0,-10.0,6.0,-6.0,-15.0,-35.0,-6.0,9.0,8.0,28.0,0.0
11.0,-3.0,6.0,-15.0,-5.0,-26.0,-1.0,8.0,14.0,40.0,0.0
17.0,7.0,1.0,-4.0,6.0,-14.0,-1.0,2.0,18.0,39.0,0.0
23.0,18.0,-7.0,3.0,0.0,0.0,-3.0,8.0,24.0,36.0,0.0
14.0,18.0,1.0,4.0,-6.0,3.0,-15.0,16.0,15.0,23.0,0.0
19.0,13.0,2.0,3.0,-14.0,2.0,-8.0,8.0,14.0,25.0,0.0
15.0,16.0,0.0,-2.0,-10.0,-3.0,-1.0,5.0,15.0,34.0,0.0
15.0,19.0,0.0,-6.0,0.0,6.0,-5.0,1.0,11.0,26.0,0.0
21.0,37.0,7.0,-4.0,3.0,10.0,-5.0,4.0,-4.0,7.0,0.0
13.0,53.0,13.0,-5.0,5.0,11.0,0.0,13.0,1.0,-2.0,0.0
7.0,43.0,17.0,-3.0,7.0,10.0,7.0,12.0,23.0,-1.0,0.0
11.0,25.0,17.0,-8.0,3.0,3.0,-6.0,8.0,25.0,0.0,0.0
14.0,8.0,9.0,-9.0,-2.0,5.0,-7.0,6.0,22.0,3.0,0.0
7.0,-3.0,-8.0,-6.0,-3.0,-1.0,-7.0,0.0,14.0,-3.0,0.0
-10.0,-4.0,-7.0,-10.0,0.0,-5.0,-9.0,6.0,1.0,-15.0,0.0
-14.0,6.0,1.0,-11.0,-2.0,0.0,-25.0,6.0,3.0,-23.0,0.0
-1.0,14.0,4.0,-8.0,-2.0,-6.0,-25.0,0.0,0.0,-26.0,0.0
3.0,15.0,4.0,-2.0,0.0,-8.0,-9.0,-4.0,0.0,-36.0,0.0
14.0,21.0,24.0,0.0,4.0,-11.0,-4.0,-9.0,8.0,-40.0,0.0
15.0,20.0,39.0,3.0,-5.0,-1.0,-7.0,-9.0,13.0,-36.0,0.0
15.0,24.0,26.0,-1.0,-15.0,-2.0,-9.0,-16.0,2.0,-11.0,0.0
36.0,24.0,23.0,0.0,-14.0,-1.0,5.0,-3.0,5.0,32.0,0.0
19.0,21.0,21.0,-9.0,-3.0,21.0,6.0,-3.0,7.0,37.0,0.0
-12.0,18.0,21.0,-24.0,1.0,28.0,6.0,0.0,4.0,9.0,0.0
-18.0,7.0,19.0,-28.0,-1.0,20.0,18.0,19.0,4.0,-8.0,0.0
-19.0,-5.0,17.0,-27.0,-12.0,18.0,23.0,20.0,15.0,-15.0,0.0
-28.0,-7.0,10.0,-23.0,-22.0,18.0,8.0,16.0,0.0,-37.0,0.0
-9.0,-2.0,-2.0,-21.0,-23.0,1.0,-15.0,6.0,-11.0,-42.0,0.0
8.0,6.0,5.0,-21.0,-19.0,-5.0,-20.0,-3.0,-6.0,-37.0,0.0
23.0,11.0,27.0,-19.0,-14.0,-1.0,-3.0,5.0,-2.0,-15.0,0.0
-1.0,9.0,23.0,-10.0,-16.0,-6.0,3.0,12.0,9.0,9.0,0.0
-31.0,-8.0,21.0,4.0,-5.0,-4.0,-1.0,8.0,2.0,-2.0,0.0
-28.0,-10.0,13.0,17.0,-3.0,-2.0,15.0,4.0,3.0,-12.0,0.0
-17.0,0.0,11.0,26.0,-9.0,2.0,23.0,-3.0,-5.0,-10.0,0.0
-15.0,-20.0,16.0,20.0,-12.0,-7.0,19.0,4.0,0.0,3.0,0.0
-12.0,-34.0,9.0,15.0,-8.0,-12.0,20.0,8.0,12.0,6.0,0.0
-8.0,-40.0,5.0,0.0,-11.0,-5.0,14.0,-2.0,24.0,-12.0,0.0
-3.0,-45.0,2.0,-4.0,-16.0,4.0,12.0,2.0,31.0,-4.0,0.0
8.0,-36.0,0.0,-7.0,-14.0,0.0,13.0,4.0,28.0,2.0,0.0
17.0,-23.0,5.0,-6.0,-14.0,0.0,20.0,-1.0,23.0,18.0,0.0
15.0,-17.0,12.0,-2.0,-13.0,-3.0,1.0,-10.0,10.0,37.0,0.0
9.0,3.0,45.0,3.0,-10.0,0.0,0.0,-13.0,11.0,44.0,0.0
15.0,54.0,77.0,22.0,-7.0,0.0,-1.0,-8.0,12.0,33.0,0.0
27.0,80.0,82.0,29.0,-1.0,-12.0,-23.0,-6.0,-4.0,21.0,0.0
19.0,52.0,70.0,16.0,0.0,-15.0,-25.0,-16.0,-7.0,12.0,0.0
16.0,22.0,61.0,5.0,-5.0,-15.0,-10.0,-15.0,-4.0,12.0,0.0
0.0,8.0,59.0,0.0,-4.0,-16.0,3.0,-23.0,-8.0,-12.0,0.0
-7.0,0.0,53.0,-3.0,-1.0,-9.0,0.0,-16.0,-15.0,-32.0,0.0
-31.0,-11.0,51.0,5.0,9.0,-1.0,4.0,-8.0,-24.0,-46.0,0.0
-50.0,-14.0,42.0,5.0,2.0,5.0,18.0,6.0,-30.0,-50.0,0.0
-47.0,-10.0,33.0,-4.0,1.0,15.0,31.0,21.0,-19.0,-44.0,0.0
-44.0,-22.0,38.0,-6.0,8.0,19.0,24.0,20.0,-17.0,-47.0,0.0
-26.0,-14.0,35.0,-10.0,8.0,15.0,12.0,21.0,-19.0,-42.0,0.0
-15.0,-6.0,34.0,-12.0,12.0,3.0,0.0,8.0,-14.0,-52.0,0.0
-14.0,9.0,36.0,-8.0,11.0,-11.0,-8.0,15.0,-11.0,-52.0,0.0
-23.0,0.0,28.0,-7.0,6.0,-15.0,-10.0,20.0,-1.0,-33.0,0.0
-36.0,-17.0,8.0,-12.0,-6.0,-11.0,-2.0,17.0,14.0,-30.0,0.0
-32.0,-16.0,-3.0,-13.0,-18.0,-16.0,-13.0,5.0,27.0,-18.0,0.0
-3.0,-19.0,-1.0,-11.0,-21.0,-15.0,-3.0,-1.0,54.0,19.0,0.0
27.0,-24.0,-11.0,-15.0,-24.0,-15.0,-1.0,-3.0,69.0,56.0,0.0
25.0,-22.0,-19.0,-22.0,-23.0,-20.0,-17.0,-5.0,63.0,67.0,0.0
22.0,-29.0,-10.0,-27.0,-23.0,-14.0,-16.0,6.0,58.0,64.0,0.0
12.0,-29.0,-15.0,-27.0,-23.0,-9.0,-6.0,6.0,55.0,48.0,0.0
27.0,-21.0,-15.0,-33.0,-25.0,-15.0,-9.0,-11.0,41.0,66.0,0.0
35.0,-15.0,-13.0,-30.0,-16.0,-2.0,-16.0,-7.0,30.0,72.0,0.0
18.0,-22.0,-24.0,-18.0,-8.0,1.0,-17.0,-1.0,10.0,51.0,0.0
-8.0,-36.0,-29.0,-14.0,-16.0,10.0,0.0,0.0,-10.0,23.0,0.0
-21.0,-41.0,-19.0,-6.0,-3.0,0.0,13.0,0.0,-13.0,-1.0,0.0
-25.0,-48.0,-16.0,-11.0,9.0,10.0,2.0,3.0,-10.0,-26.0,0.0
-32.0,-49.0,-10.0,-11.0,4.0,18.0,20.0,9.0,-4.0,-24.0,0.0
-28.0,-38.0,-5.0,-13.0,7.0,15.0,28.0,21.0,-6.0,-26.0,0.0
-18.0,-18.0,0.0,-5.0,11.0,16.0,9.0,19.0,-5.0,-23.0,0.0
-28.0,-18.0,-4.0,2.0,9.0,15.0,14.0,4.0,-9.0,-16.0,0.0
-33.0,-25.0,-13.0,1.0,7.0,5.0,13.0,-5.0,-18.0,-15.0,0.0
-34.0,-28.0,-19.0,-9.0,17.0,-2.0,14.0,-9.0,-21.0,-10.0,0.0
-27.0,-31.0,-23.0,-25.0,8.0,-3.0,21.0,-8.0,-16.0,11.0,0.0
-14.0,-22.0,-26.0,-22.0,-7.0,0.0,14.0,0.0,-4.0,12.0,0.0
-10.0,-25.0,-13.0,-18.0,-10.0,-1.0,3.0,-1.0,-15.0,-9.0,0.0
-4.0,-14.0,-6.0,-16.0,-6.0,-1.0,9.0,-9.0,-23.0,-21.0,0.0
-5.0,11.0,0.0,-18.0,-3.0,-1.0,10.0,-11.0,-11.0,-12.0,0.0
-7.0,12.0,-4.0,-19.0,0.0,-7.0,9.0,-17.0,-9.0,-5.0,0.0
11.0,15.0,-13.0,-22.0,0.0,-14.0,11.0,-20.0,-8.0,25.0,0.0
29.0,18.0,-8.0,-23.0,1.0,-21.0,-14.0,-24.0,-16.0,28.0,0.0
26.0,24.0,7.0,-17.0,0.0,-15.0,-4.0,-16.0,-23.0,0.0,0.0
14.0,31.0,-6.0,-15.0,3.0,-8.0,10.0,-2.0,-19.0,-11.0,0.0
-4.0,37.0,-12.0,-23.0,8.0,-7.0,16.0,-1.0,-11.0,-11.0,0.0
-12.0,87.0,3.0,-28.0,12.0,-6.0,18.0,-1.0,-15.0,-5.0,0.0
-3.0,127.0,36.0,-16.0,14.0,-4.0,24.0,0.0,-9.0,-6.0,0.0
7.0,116.0,49.0,-8.0,14.0,-7.0,20.0,-8.0,-6.0,-22.0,0.0
15.0,100.0,45.0,0.0,15.0,-17.0,-1.0,-5.0,-26.0,-7.0,0.0
19.0,61.0,20.0,-3.0,13.0,-26.0,-6.0,-10.0,-35.0,20.0,0.0
19.0,18.0,-33.0,-3.0,10.0,-27.0,12.0,-13.0,-25.0,18.0,0.0
7.0,-45.0,-99.0,-4.0,19.0,-11.0,37.0,-2.0,-8.0,20.0,0.0
-4.0,-65.0,-97.0,-1.0,24.0,-2.0,32.0,-4.0,-25.0,0.0,0.0
4.0,-32.0,-56.0,8.0,16.0,-13.0,32.0,-7.0,-27.0,-3.0,0.0
15.0,-24.0,-44.0,1.0,-1.0,-16.0,18.0,-17.0,-25.0,-7.0,0.0
-2.0,-21.0,-46.0,8.0,-2.0,-16.0,11.0,-30.0,-31.0,-15.0,0.0
-20.0,-20.0,-31.0,16.0,5.0,-1.0,13.0,-26.0,-23.0,-23.0,0.0
-17.0,-20.0,-22.0,23.0,0.0,0.0,18.0,-24.0,-34.0,-35.0,0.0
-4.0,-10.0,-11.0,23.0,0.0,4.0,16.0,-11.0,-33.0,-38.0,0.0
-9.0,-6.0,-6.0,29.0,4.0,1.0,22.0,-7.0,-15.0,-33.0,0.0
-12.0,-4.0,-4.0,31.0,2.0,8.0,28.0,-3.0,-22.0,-32.0,0.0
-10.0,15.0,10.0,44.0,1.0,6.0,36.0,-6.0,-23.0,-35.0,0.0
-9.0,25.0,17.0,37.0,1.0,9.0,39.0,2.0,-24.0,-32.0,0.0
-5.0,18.0,12.0,35.0,-7.0,5.0,22.0,12.0,-11.0,-19.0,0.0
-1.0,8.0,8.0,35.0,-6.0,-2.0,11.0,6.0,4.0,-7.0,0.0
1.0,0.0,1.0,27.0,-6.0,-1.0,11.0,-6.0,13.0,2.0,0.0
6.0,7.0,-18.0,11.0,-14.0,1.0,2.0,-6.0,21.0,16.0,0.0
0.0,24.0,-12.0,13.0,-19.0,2.0,8.0,-2.0,25.0,16.0,0.0
5.0,31.0,5.0,14.0,-19.0,-5.0,-1.0,-8.0,20.0,16.0,0.0
18.0,29.0,10.0,13.0,-25.0,-14.0,-17.0,-13.0,8.0,22.0,0.0
27.0,29.0,-2.0,17.0,-17.0,-6.0,-10.0,-10.0,9.0,32.0,0.0
4.0,18.0,-23.0,5.0,-20.0,5.0,-12.0,2.0,20.0,32.0,0.0
-8.0,16.0,-2.0,8.0,-27.0,8.0,-13.0,10.0,17.0,23.0,0.0
-6.0,24.0,16.0,3.0,-13.0,4.0,-8.0,5.0,9.0,22.0,0.0
8.0,13.0,3.0,-22.0,-23.0,-5.0,-13.0,-12.0,6.0,40.0,0.0
24.0,10.0,-7.0,-25.0,-23.0,-12.0,-6.0,0.0,1.0,45.0,0.0
15.0,9.0,-4.0,-24.0,-8.0,-4.0,7.0,15.0,0.0,40.0,0.0
-6.0,6.0,12.0,-23.0,1.0,3.0,13.0,19.0,7.0,9.0,0.0
31.0,15.0,7.0,-22.0,1.0,1.0,9.0,13.0,16.0,40.0,0.0
60.0,23.0,4.0,-23.0,-3.0,4.0,11.0,10.0,20.0,79.0,0.0
27.0,16.0,-1.0,-14.0,2.0,13.0,29.0,16.0,17.0,62.0,0.0
-7.0,-9.0,5.0,-13.0,-5.0,8.0,21.0,10.0,5.0,13.0,0.0
3.0,-19.0,-9.0,-11.0,-13.0,2.0,17.0,3.0,9.0,-14.0,0.0
-3.0,-16.0,-28.0,-5.0,-4.0,10.0,13.0,-8.0,4.0,-26.0,0.0
-16.0,-11.0,-26.0,-2.0,5.0,12.0,11.0,-21.0,-5.0,-38.0,0.0
-17.0,-15.0,-21.0,0.0,5.0,0.0,8.0,-17.0,-16.0,-38.0,0.0
-20.0,-18.0,-26.0,6.0,-1.0,-5.0,0.0,-9.0,-15.0,-27.0,0.0
-17.0,-23.0,-20.0,15.0,-8.0,-4.0,1.0,-14.0,-1.0,-18.0,0.0
-15.0,-13.0,-18.0,22.0,-8.0,0.0,3.0,-5.0,-3.0,-7.0,0.0
-12.0,27.0,-3.0,28.0,-9.0,1.0,2.0,2.0,0.0,-15.0,0.0
-3.0,61.0,17.0,27.0,0.0,10.0,6.0,-5.0,-6.0,-29.0,0.0
1.0,54.0,22.0,18.0,5.0,22.0,3.0,-8.0,-10.0,-25.0,0.0
10.0,31.0,9.0,19.0,8.0,27.0,16.0,-14.0,-9.0,-24.0,0.0
11.0,20.0,0.0,18.0,13.0,22.0,22.0,-13.0,-10.0,-34.0,0.0
6.0,30.0,4.0,20.0,0.0,17.0,17.0,-8.0,-5.0,-35.0,0.0
9.0,25.0,4.0,0.0,-11.0,18.0,18.0,-8.0,5.0,-22.0,0.0
1.0,20.0,-2.0,-3.0,0.0,23.0,15.0,-16.0,3.0,-23.0,0.0
-2.0,7.0,-5.0,-3.0,1.0,16.0,3.0,-25.0,0.0,-24.0,0.0
-10.0,-1.0,2.0,-23.0,-7.0,18.0,-1.0,-21.0,6.0,-8.0,0.0
-17.0,-4.0,0.0,-35.0,-10.0,5.0,-14.0,-19.0,5.0,-1.0,0.0
-26.0,3.0,1.0,-24.0,-7.0,3.0,-4.0,-34.0,-4.0,-13.0,0.0
-26.0,13.0,15.0,0.0,-2.0,-4.0,-13.0,-39.0,-12.0,-30.0,0.0
-15.0,7.0,13.0,5.0,-5.0,6.0,-8.0,-40.0,-14.0,-47.0,0.0
-23.0,0.0,14.0,-4.0,-7.0,16.0,-5.0,-35.0,-19.0,-66.0,0.0
-27.0,18.0,9.0,-10.0,-3.0,10.0,4.0,-26.0,-25.0,-72.0,0.0
-36.0,47.0,23.0,-10.0,-12.0,-2.0,-11.0,-29.0,-37.0,-82.0,0.0
-44.0,41.0,36.0,1.0,-12.0,-6.0,-24.0,-30.0,-35.0,-72.0,0.0
-29.0,12.0,29.0,0.0,-14.0,-1.0,-16.0,-18.0,-19.0,-37.0,0.0
4.0,13.0,14.0,-4.0,-14.0,14.0,-11.0,-13.0,-1.0,2.0,0.0
13.0,10.0,15.0,14.0,-7.0,2.0,-3.0,-12.0,20.0,23.0,0.0
8.0,13.0,13.0,19.0,-11.0,3.0,3.0,3.0,41.0,31.0,0.0
20.0,46.0,30.0,16.0,-18.0,-1.0,-3.0,5.0,33.0,42.0,0.0
41.0,84.0,52.0,18.0,-27.0,-17.0,-2.0,1.0,20.0,44.0,0.0
34.0,66.0,59.0,25.0,-28.0,-11.0,0.0,3.0,9.0,23.0,0.0
21.0,33.0,50.0,20.0,-16.0,-16.0,5.0,3.0,-8.0,28.0,0.0
3.0,-4.0,37.0,8.0,-19.0,-17.0,-11.0,0.0,-16.0,40.0,0.0
0.0,-6.0,19.0,16.0,-31.0,-11.0,-21.0,8.0,-10.0,35.0,0.0
3.0,-40.0,-51.0,12.0,-21.0,-16.0,-15.0,12.0,3.0,29.0,0.0
-11.0,-74.0,-64.0,13.0,-7.0,-16.0,-4.0,14.0,12.0,29.0,0.0
-12.0,-54.0,-21.0,21.0,-11.0,-14.0,-8.0,13.0,13.0,34.0,0.0
-4.0,-43.0,-13.0,16.0,-14.0,-5.0,-10.0,6.0,30.0,39.0,0.0
-7.0,-49.0,-18.0,7.0,-27.0,5.0,-5.0,7.0,29.0,30.0,0.0
-20.0,-53.0,-14.0,0.0,-28.0,0.0,-3.0,10.0,32.0,37.0,0.0
-8.0,-59.0,-7.0,4.0,-25.0,-21.0,-4.0,13.0,36.0,51.0,0.0
4.0,-44.0,-2.0,10.0,-23.0,-30.0,-3.0,3.0,21.0,46.0,0.0
9.0,-16.0,7.0,-1.0,-34.0,-21.0,-17.0,0.0,1.0,37.0,0.0
23.0,18.0,10.0,-8.0,-32.0,-24.0,-21.0,0.0,1.0,32.0,0.0
36.0,36.0,17.0,-15.0,-24.0,-27.0,-14.0,-7.0,13.0,28.0,0.0
25.0,28.0,20.0,-17.0,-18.0,-20.0,-5.0,-16.0,16.0,27.0,0.0
16.0,30.0,32.0,2.0,-21.0,-18.0,-1.0,-3.0,18.0,20.0,0.0
14.0,19.0,21.0,5.0,-23.0,-10.0,-12.0,6.0,24.0,1.0,0.0
13.0,-2.0,25.0,10.0,-19.0,-10.0,-19.0,5.0,14.0,-2.0,0.0
9.0,0.0,28.0,10.0,-10.0,-14.0,-17.0,1.0,13.0,5.0,0.0
18.0,8.0,22.0,10.0,-14.0,-7.0,-19.0,-2.0,19.0,13.0,0.0
21.0,14.0,25.0,8.0,-5.0,-16.0,-34.0,-7.0,25.0,7.0,0.0
-12.0,6.0,40.0,5.0,2.0,-18.0,-22.0,-6.0,23.0,-23.0,0.0
-48.0,9.0,26.0,2.0,-6.0,-13.0,-15.0,-6.0,1.0,-43.0,0.0
-46.0,26.0,7.0,-6.0,-11.0,-4.0,-26.0,-1.0,-2.0,-42.0,0.0
-43.0,31.0,-13.0,-6.0,-8.0,-1.0,-15.0,2.0,6.0,-36.0,0.0
-40.0,13.0,-32.0,-4.0,-6.0,-6.0,0.0,9.0,12.0,-27.0,0.0
-25.0,-1.0,-44.0,-3.0,0.0,2.0,1.0,9.0,15.0,-8.0,0.0
-5.0,-33.0,-51.0,-14.0,7.0,16.0,21.0,30.0,30.0,14.0,0.0
19.0,-58.0,-54.0,-15.0,19.0,31.0,35.0,45.0,27.0,25.0,0.0
25.0,-62.0,-43.0,-17.0,25.0,33.0,31.0,36.0,19.0,22.0,0.0
21.0,-31.0,-26.0,-26.0,15.0,11.0,19.0,20.0,20.0,17.0,0.0
24.0,0.0,-28.0,-5.0,12.0,2.0,8.0,18.0,18.0,19.0,0.0
24.0,4.0,-13.0,3.0,7.0,0.0,3.0,21.0,17.0,22.0,0.0
21.0,6.0,-3.0,5.0,1.0,8.0,4.0,22.0,14.0,15.0,0.0
13.0,-4.0,-9.0,-2.0,0.0,9.0,17.0,19.0,12.0,0.0,0.0
6.0,-22.0,-23.0,0.0,0.0,8.0,4.0,23.0,13.0,-9.0,0.0
5.0,-30.0,-33.0,-2.0,7.0,18.0,6.0,14.0,14.0,-10.0,0.0
0.0,-30.0,-36.0,2.0,10.0,19.0,0.0,2.0,-2.0,-23.0,0.0
-3.0,-18.0,-31.0,3.0,7.0,9.0,-3.0,0.0,-11.0,-38.0,0.0
-6.0,-15.0,-25.0,-8.0,9.0,10.0,-2.0,-5.0,-8.0,-38.0,0.0
7.0,0.0,-18.0,-29.0,2.0,9.0,0.0,-9.0,-12.0,-5.0,0.0
16.0,7.0,-20.0,-34.0,3.0,2.0,5.0,-13.0,-1.0,20.0,0.0
24.0,7.0,-22.0,-32.0,0.0,2.0,-8.0,-5.0,-12.0,38.0,0.0
32.0,5.0,-19.0,-33.0,0.0,4.0,-6.0,0.0,-17.0,14.0,0.0
29.0,15.0,-9.0,-37.0,18.0,5.0,-2.0,10.0,-11.0,13.0,0.0
24.0,8.0,-9.0,-38.0,19.0,2.0,-16.0,14.0,-14.0,24.0,0.0
10.0,2.0,-25.0,-37.0,18.0,6.0,-15.0,20.0,-6.0,18.0,0.0
12.0,0.0,-39.0,-33.0,24.0,18.0,-10.0,26.0,5.0,18.0,0.0
-2.0,-23.0,-31.0,-29.0,27.0,18.0,0.0,22.0,8.0,19.0,0.0
-20.0,-40.0,-28.0,-13.0,13.0,18.0,3.0,21.0,5.0,2.0,0.0
-28.0,-35.0,-19.0,10.0,20.0,30.0,12.0,31.0,9.0,-16.0,0.0
-42.0,-33.0,-18.0,16.0,17.0,41.0,11.0,22.0,-4.0,-35.0,0.0
-45.0,-24.0,-28.0,21.0,14.0,26.0,0.0,18.0,-19.0,-26.0,0.0
-44.0,-28.0,-27.0,21.0,5.0,25.0,-3.0,18.0,-12.0,-5.0,0.0
-51.0,-32.0,-31.0,28.0,3.0,30.0,10.0,18.0,-27.0,-4.0,0.0
-42.0,-26.0,-29.0,20.0,9.0,21.0,19.0,8.0,-29.0,-12.0,0.0
-26.0,-8.0,-26.0,12.0,16.0,12.0,29.0,11.0,-25.0,-17.0,0.0
-20.0,13.0,-21.0,11.0,9.0,5.0,24.0,7.0,-16.0,-31.0,0.0
-16.0,44.0,-9.0,9.0,16.0,6.0,4.0,4.0,-21.0,-28.0,0.0
-9.0,55.0,-15.0,13.0,20.0,4.0,0.0,8.0,-24.0,-19.0,0.0
-23.0,55.0,-9.0,11.0,14.0,0.0,-2.0,9.0,-22.0,-31.0,0.0
-34.0,33.0,-11.0,4.0,8.0,1.0,-11.0,10.0,-16.0,-49.0,0.0
-35.0,19.0,-16.0,10.0,1.0,9.0,-4.0,9.0,0.0,-41.0,0.0
-21.0,13.0,-23.0,8.0,-8.0,8.0,2.0,13.0,22.0,-24.0,0.0
-31.0,-8.0,-21.0,10.0,-8.0,-1.0,-2.0,15.0,25.0,-3.0,0.0
-28.0,-12.0,-18.0,13.0,-7.0,-8.0,-1.0,8.0,23.0,13.0,0.0
19.0,1.0,-10.0,15.0,-11.0,-8.0,-10.0,-7.0,11.0,51.0,0.0
67.0,16.0,-17.0,14.0,-21.0,-8.0,-26.0,-22.0,8.0,94.0,0.0
68.0,32.0,-8.0,17.0,-22.0,-8.0,-20.0,-21.0,6.0,98.0,0.0
37.0,34.0,8.0,21.0,-15.0,-15.0,-1.0,-6.0,4.0,66.0,0.0
26.0,34.0,6.0,16.0,-13.0,-12.0,-3.0,-8.0,3.0,31.0,0.0
21.0,23.0,-3.0,4.0,-14.0,-11.0,-5.0,-18.0,6.0,15.0,0.0
19.0,15.0,-7.0,-4.0,-22.0,-13.0,-7.0,-7.0,18.0,22.0,0.0
26.0,15.0,1.0,5.0,-26.0,-22.0,-10.0,-9.0,17.0,32.0,0.0
21.0,12.0,10.0,7.0,-11.0,-26.0,0.0,-8.0,17.0,30.0,0.0
6.0,7.0,8.0,2.0,0.0,-11.0,10.0,-2.0,17.0,28.0,0.0
6.0,12.0,6.0,-4.0,-12.0,3.0,27.0,-1.0,16.0,18.0,0.0
-1.0,6.0,7.0,-1.0,-11.0,12.0,24.0,8.0,7.0,8.0,0.0
0.0,1.0,8.0,-6.0,0.0,2.0,29.0,10.0,0.0,4.0,0.0
-2.0,0.0,5.0,-11.0,1.0,-11.0,31.0,9.0,-4.0,-12.0,0.0
-8.0,-12.0,-9.0,3.0,-2.0,-19.0,26.0,11.0,-10.0,-27.0,0.0
-15.0,-16.0,-5.0,5.0,-5.0,-11.0,18.0,14.0,-13.0,-33.0,0.0
-8.0,-11.0,-2.0,-10.0,-6.0,-9.0,19.0,7.0,-14.0,-35.0,0.0
-7.0,-4.0,7.0,-11.0,8.0,-14.0,19.0,5.0,-15.0,-30.0,0.0
-12.0,-4.0,9.0,-5.0,15.0,-8.0,39.0,5.0,-11.0,-30.0,0.0
-6.0,-1.0,4.0,3.0,8.0,-2.0,42.0,9.0,3.0,-39.0,0.0
-17.0,-6.0,5.0,25.0,10.0,5.0,49.0,18.0,6.0,-40.0,0.0
-40.0,-32.0,8.0,23.0,9.0,1.0,35.0,20.0,6.0,-53.0,0.0
-45.0,-35.0,4.0,16.0,7.0,-11.0,10.0,18.0,3.0,-58.0,0.0
-38.0,-24.0,3.0,14.0,4.0,-8.0,-5.0,11.0,3.0,-50.0,0.0
-27.0,-26.0,14.0,15.0,7.0,-12.0,-31.0,-3.0,-3.0,-20.0,0.0
-8.0,-17.0,14.0,20.0,0.0,-15.0,-29.0,-5.0,-1.0,16.0,0.0
20.0,3.0,21.0,21.0,0.0,-17.0,-27.0,-4.0,-9.0,34.0,0.0
49.0,54.0,51.0,22.0,-1.0,-24.0,-50.0,-5.0,-15.0,70.0,0.0
62.0,117.0,74.0,11.0,4.0,-31.0,-55.0,-8.0,-1.0,106.0,0.0
47.0,115.0,81.0,12.0,1.0,-25.0,-37.0,-8.0,11.0,88.0,0.0
40.0,73.0,79.0,18.0,0.0,-9.0,-29.0,-6.0,9.0,49.0,0.0
33.0,23.0,68.0,11.0,-5.0,-14.0,-28.0,0.0,-7.0,19.0,0.0
26.0,4.0,46.0,-9.0,-11.0,-11.0,-13.0,0.0,-17.0,0.0,0.0
39.0,-16.0,-24.0,-19.0,-15.0,-6.0,-3.0,0.0,-8.0,4.0,0.0
29.0,-71.0,-81.0,-11.0,-3.0,9.0,6.0,12.0,10.0,5.0,0.0
26.0,-57.0,-65.0,4.0,0.0,7.0,4.0,7.0,30.0,8.0,0.0
22.0,-33.0,-31.0,4.0,-7.0,-14.0,-21.0,-5.0,18.0,1.0,0.0
18.0,-23.0,0.0,-6.0,-9.0,-13.0,-16.0,-7.0,-1.0,-2.0,0.0
15.0,-21.0,10.0,-3.0,-13.0,-10.0,-27.0,-6.0,0.0,4.0,0.0
6.0,-21.0,9.0,10.0,-13.0,-10.0,-46.0,-4.0,-14.0,-6.0,0.0
8.0,-14.0,1.0,11.0,-12.0,-10.0,-29.0,-3.0,-16.0,-33.0,0.0
19.0,5.0,5.0,12.0,-16.0,-9.0,-6.0,-8.0,-9.0,-30.0,0.0
16.0,16.0,20.0,7.0,-7.0,-14.0,-11.0,-14.0,-15.0,-24.0,0.0
4.0,3.0,28.0,10.0,4.0,-20.0,-13.0,-2.0,-17.0,-35.0,0.0
3.0,-3.0,17.0,6.0,0.0,-14.0,-7.0,5.0,-11.0,-30.0,0.0
15.0,-2.0,6.0,9.0,0.0,-7.0,-6.0,-1.0,-10.0,-23.0,0.0
17.0,2.0,13.0,-6.0,-7.0,-2.0,-20.0,3.0,-21.0,-32.0,0.0
19.0,2.0,24.0,-34.0,3.0,0.0,0.0,15.0,-6.0,-25.0,0.0
19.0,1.0,19.0,-26.0,12.0,2.0,7.0,18.0,-1.0,-18.0,0.0
12.0,-1.0,13.0,-21.0,16.0,0.0,6.0,14.0,-20.0,-12.0,0.0
11.0,-2.0,9.0,-30.0,15.0,-4.0,7.0,0.0,-11.0,-10.0,0.0
17.0,-1.0,-1.0,-36.0,11.0,-14.0,-4.0,-4.0,-7.0,-21.0,0.0
10.0,0.0,3.0,-30.0,2.0,-9.0,-13.0,0.0,7.0,-22.0,0.0
0.0,-2.0,9.0,-27.0,0.0,-8.0,-5.0,3.0,7.0,-38.0,0.0
-5.0,-7.0,8.0,-21.0,0.0,-8.0,-16.0,0.0,4.0,-43.0,0.0
-13.0,-13.0,5.0,3.0,3.0,-4.0,-7.0,2.0,6.0,-52.0,0.0
0.0,-15.0,0.0,13.0,14.0,3.0,9.0,2.0,11.0,-49.0,0.0
14.0,-13.0,0.0,16.0,11.0,-7.0,2.0,-6.0,6.0,-24.0,0.0
21.0,-5.0,6.0,5.0,4.0,-11.0,-1.0,-16.0,1.0,16.0,0.0
31.0,5.0,-5.0,3.0,4.0,-11.0,-3.0,-17.0,6.0,48.0,0.0
24.0,22.0,-7.0,2.0,13.0,-13.0,-6.0,-9.0,3.0,37.0,0.0
25.0,24.0,5.0,-1.0,26.0,-12.0,-11.0,-5.0,9.0,8.0,0.0
23.0,18.0,12.0,-10.0,23.0,-2.0,-6.0,-8.0,20.0,-4.0,0.0
26.0,15.0,10.0,-18.0,17.0,0.0,3.0,-7.0,20.0,0.0,0.0
19.0,21.0,12.0,-27.0,25.0,-4.0,-9.0,-3.0,10.0,-5.0,0.0
5.0,11.0,0.0,-12.0,22.0,3.0,-15.0,2.0,7.0,-12.0,0.0
1.0,5.0,2.0,7.0,8.0,4.0,-5.0,3.0,11.0,-17.0,0.0
-6.0,9.0,-4.0,8.0,5.0,-3.0,-13.0,5.0,1.0,-14.0,0.0
-9.0,11.0,-5.0,16.0,8.0,-1.0,0.0,1.0,-5.0,-11.0,0.0
-13.0,8.0,9.0,27.0,5.0,-9.0,-5.0,2.0,-1.0,-19.0,0.0
-12.0,-7.0,20.0,28.0,2.0,-7.0,-4.0,-1.0,-9.0,-20.0,0.0
-15.0,-9.0,18.0,17.0,4.0,-7.0,7.0,-10.0,-13.0,-28.0,0.0
-17.0,-5.0,21.0,9.0,3.0,1.0,4.0,-14.0,-28.0,-34.0,0.0
-15.0,0.0,19.0,2.0,8.0,20.0,4.0,-4.0,-30.0,-42.0,0.0
-16.0,-12.0,26.0,6.0,16.0,18.0,21.0,4.0,-24.0,-40.0,0.0
-16.0,-11.0,24.0,9.0,20.0,8.0,22.0,-8.0,-31.0,-35.0,0.0
-4.0,-3.0,20.0,17.0,16.0,2.0,29.0,-4.0,-19.0,-35.0,0.0
-5.0,-3.0,23.0,14.0,5.0,12.0,10.0,-2.0,-8.0,-28.0,0.0
-1.0,-11.0,18.0,15.0,1.0,7.0,2.0,2.0,-6.0,-25.0,0.0
-4.0,-10.0,10.0,13.0,3.0,-10.0,-6.0,8.0,-6.0,-17.0,0.0
-8.0,-3.0,21.0,8.0,-2.0,-28.0,-22.0,2.0,-19.0,-3.0,0.0
-15.0,-12.0,25.0,-6.0,-3.0,-26.0,-16.0,7.0,-19.0,5.0,0.0
-18.0,-18.0,20.0,-10.0,-5.0,-9.0,-7.0,7.0,-4.0,6.0,0.0
-11.0,-17.0,13.0,-8.0,-10.0,-3.0,-13.0,10.0,0.0,4.0,0.0
-3.0,-5.0,7.0,-11.0,-16.0,-5.0,-4.0,6.0,-1.0,7.0,0.0
16.0,6.0,1.0,-15.0,-14.0,-7.0,1.0,-4.0,0.0,14.0,0.0
26.0,11.0,4.0,-10.0,-1.0,-8.0,-4.0,-7.0,6.0,27.0,0.0
17.0,5.0,-4.0,-14.0,0.0,-9.0,1.0,-11.0,14.0,23.0,0.0
2.0,4.0,-11.0,-16.0,2.0,-4.0,6.0,-4.0,6.0,5.0,0.0
-13.0,-7.0,-1.0,-16.0,6.0,-2.0,7.0,-2.0,7.0,0.0,0.0
-27.0,-9.0,8.0,-17.0,8.0,-1.0,14.0,-1.0,12.0,-7.0,0.0
-34.0,-5.0,9.0,-17.0,1.0,4.0,10.0,-3.0,5.0,-29.0,0.0
-32.0,0.0,18.0,-25.0,1.0,16.0,5.0,-14.0,1.0,-45.0,0.0
-24.0,-6.0,25.0,-35.0,4.0,13.0,21.0,-10.0,7.0,-47.0,0.0
-13.0,-8.0,8.0,-45.0,-7.0,6.0,24.0,-9.0,7.0,-50.0,0.0
-2.0,-7.0,7.0,-18.0,-10.0,13.0,26.0,-7.0,-1.0,-50.0,0.0
-5.0,-2.0,13.0,12.0,1.0,14.0,21.0,8.0,-8.0,-53.0,0.0
30.0,-15.0,2.0,0.0,3.0,11.0,22.0,14.0,-12.0,-23.0,0.0
72.0,0.0,4.0,-12.0,3.0,13.0,16.0,1.0,-2.0,51.0,0.0
62.0,31.0,23.0,-8.0,1.0,20.0,12.0,-4.0,1.0,65.0,0.0
54.0,76.0,52.0,12.0,8.0,10.0,8.0,-13.0,-9.0,47.0,0.0
47.0,124.0,79.0,22.0,-2.0,1.0,8.0,-15.0,-9.0,50.0,0.0
31.0,108.0,78.0,20.0,-7.0,-4.0,15.0,-15.0,-9.0,53.0,0.0
1.0,62.0,69.0,15.0,-5.0,5.0,13.0,-23.0,-13.0,29.0,0.0
-27.0,21.0,57.0,11.0,-10.0,13.0,15.0,-19.0,-17.0,1.0,0.0
-36.0,-27.0,25.0,9.0,-16.0,1.0,7.0,-9.0,-4.0,-1.0,0.0
-27.0,-73.0,-37.0,0.0,-6.0,0.0,10.0,-9.0,9.0,8.0,0.0
-34.0,-130.0,-97.0,-14.0,3.0,8.0,19.0,-6.0,6.0,3.0,0.0
-49.0,-125.0,-70.0,-11.0,3.0,13.0,32.0,7.0,-4.0,-18.0,0.0
-50.0,-73.0,-30.0,9.0,7.0,11.0,25.0,5.0,-5.0,-14.0,0.0
-18.0,-41.0,-4.0,18.0,5.0,3.0,21.0,-22.0,2.0,10.0,0.0
40.0,-18.0,0.0,0.0,1.0,11.0,12.0,-24.0,12.0,51.0,0.0
78.0,-8.0,-9.0,-12.0,-11.0,5.0,8.0,-22.0,20.0,97.0,0.0
72.0,-8.0,-6.0,-12.0,-22.0,-7.0,7.0,-19.0,27.0,109.0,0.0
36.0,-11.0,-16.0,-1.0,-16.0,-3.0,1.0,-15.0,27.0,73.0,0.0
17.0,-15.0,-23.0,-3.0,-7.0,-9.0,1.0,-3.0,32.0,41.0,0.0
21.0,-21.0,-25.0,-6.0,-13.0,-7.0,10.0,-3.0,35.0,42.0,0.0
26.0,-21.0,-23.0,0.0,-11.0,-2.0,7.0,-8.0,38.0,48.0,0.0
21.0,-17.0,-18.0,4.0,-6.0,6.0,-6.0,-9.0,32.0,41.0,0.0
16.0,-12.0,-3.0,-4.0,-10.0,4.0,-22.0,-29.0,10.0,22.0,0.0
19.0,2.0,8.0,-15.0,-13.0,0.0,-22.0,-42.0,-8.0,7.0,0.0
14.0,3.0,14.0,-11.0,-1.0,6.0,0.0,-41.0,-2.0,0.0,0.0
3.0,-10.0,12.0,1.0,-2.0,24.0,7.0,-29.0,-10.0,-8.0,0.0
-17.0,-22.0,17.0,2.0,-13.0,26.0,3.0,-20.0,-37.0,-29.0,0.0
-31.0,-24.0,17.0,0.0,-11.0,24.0,1.0,-16.0,-27.0,-44.0,0.0
-48.0,-38.0,-4.0,-19.0,-6.0,27.0,2.0,-8.0,-28.0,-45.0,0.0
-60.0,-54.0,-22.0,-30.0,-3.0,27.0,0.0,7.0,-26.0,-47.0,0.0
-52.0,-53.0,-28.0,-22.0,2.0,22.0,7.0,12.0,-17.0,-45.0,0.0
-41.0,-45.0,-17.0,-17.0,12.0,22.0,21.0,18.0,-8.0,-33.0,0.0
-29.0,-25.0,-13.0,-13.0,1.0,12.0,13.0,12.0,9.0,-8.0,0.0
-9.0,-13.0,-12.0,-25.0,-15.0,0.0,0.0,3.0,22.0,28.0,0.0
0.0,-3.0,-5.0,-28.0,-8.0,-5.0,4.0,1.0,15.0,36.0,0.0
8.0,2.0,-2.0,-24.0,6.0,-1.0,1.0,8.0,12.0,21.0,0.0
11.0,-2.0,2.0,-27.0,12.0,-2.0,-15.0,16.0,-2.0,20.0,0.0
-1.0,1.0,9.0,-17.0,9.0,-6.0,-20.0,17.0,-12.0,18.0,0.0
-5.0,13.0,7.0,15.0,5.0,-11.0,-20.0,12.0,-12.0,6.0,0.0
-17.0,9.0,9.0,26.0,6.0,0.0,-20.0,11.0,-20.0,0.0,0.0
-25.0,2.0,3.0,22.0,3.0,2.0,-18.0,3.0,-23.0,-3.0,0.0
-24.0,-2.0,15.0,28.0,0.0,-7.0,-27.0,0.0,-20.0,-7.0,0.0
-24.0,-8.0,22.0,34.0,0.0,-2.0,-23.0,1.0,-12.0,-22.0,0.0
-17.0,-4.0,23.0,30.0,-1.0,1.0,-4.0,0.0,-7.0,-36.0,0.0
-13.0,22.0,32.0,30.0,2.0,-10.0,-14.0,1.0,-12.0,-37.0,0.0
-21.0,26.0,35.0,31.0,-2.0,-22.0,-22.0,-4.0,-18.0,-30.0,0.0
-26.0,23.0,20.0,26.0,7.0,-22.0,-27.0,-7.0,-12.0,-24.0,0.0
-27.0,14.0,23.0,36.0,23.0,-8.0,-21.0,-5.0,-9.0,-24.0,0.0
-24.0,7.0,22.0,26.0,25.0,-7.0,-19.0,-2.0,-16.0,-18.0,0.0
-21.0,24.0,17.0,12.0,25.0,-14.0,-18.0,-5.0,-16.0,-15.0,0.0
-5.0,57.0,20.0,0.0,8.0,-14.0,-6.0,-1.0,-11.0,4.0,0.0
6.0,53.0,26.0,-5.0,8.0,0.0,5.0,1.0,-16.0,21.0,0.0
8.0,25.0,14.0,-4.0,12.0,8.0,7.0,2.0,-18.0,1.0,0.0
0.0,19.0,-9.0,-5.0,8.0,2.0,13.0,1.0,-10.0,-21.0,0.0
-15.0,18.0,0.0,-11.0,10.0,4.0,9.0,9.0,-8.0,-12.0,0.0
-15.0,20.0,-3.0,-8.0,0.0,7.0,0.0,1.0,-2.0,-21.0,0.0
-14.0,19.0,-13.0,0.0,-2.0,11.0,-5.0,3.0,-3.0,-22.0,0.0
-11.0,19.0,1.0,1.0,5.0,8.0,-9.0,-5.0,-14.0,-19.0,0.0
-12.0,27.0,3.0,-2.0,1.0,4.0,-11.0,12.0,-24.0,-15.0,0.0
1.0,29.0,-2.0,-3.0,-7.0,-4.0,0.0,31.0,-15.0,-1.0,0.0
8.0,26.0,-9.0,-1.0,-12.0,-7.0,-8.0,26.0,-7.0,3.0,0.0
-2.0,12.0,-10.0,2.0,-11.0,-1.0,-31.0,19.0,0.0,-7.0,0.0
-20.0,0.0,-10.0,-2.0,-7.0,6.0,-23.0,22.0,6.0,-6.0,0.0
-30.0,-9.0,-13.0,0.0,-7.0,7.0,-3.0,31.0,10.0,-9.0,0.0
-34.0,0.0,-10.0,8.0,-2.0,3.0,-7.0,20.0,2.0,-19.0,0.0
-23.0,17.0,-10.0,10.0,0.0,-7.0,-21.0,15.0,0.0,-5.0,0.0
-10.0,24.0,-7.0,13.0,3.0,-13.0,-16.0,15.0,4.0,1.0,0.0
5.0,25.0,3.0,10.0,7.0,-13.0,-20.0,15.0,8.0,2.0,0.0
11.0,27.0,2.0,6.0,11.0,-10.0,-26.0,14.0,5.0,15.0,0.0
17.0,16.0,5.0,10.0,16.0,-6.0,-12.0,7.0,-5.0,35.0,0.0
18.0,4.0,-6.0,11.0,20.0,-1.0,-2.0,9.0,-8.0,42.0,0.0
1.0,-4.0,-4.0,7.0,18.0,0.0,-8.0,5.0,-2.0,10.0,0.0
-17.0,-16.0,5.0,15.0,9.0,0.0,-9.0,12.0,-11.0,-16.0,0.0
-25.0,-15.0,12.0,17.0,4.0,-4.0,4.0,17.0,-8.0,-43.0,0.0
-40.0,6.0,10.0,11.0,0.0,-2.0,1.0,9.0,-9.0,-60.0,0.0
-36.0,65.0,41.0,12.0,6.0,0.0,-13.0,1.0,-23.0,-52.0,0.0
-6.0,103.0,60.0,21.0,7.0,-5.0,-20.0,-14.0,-24.0,-25.0,0.0
16.0,83.0,50.0,17.0,1.0,-20.0,-30.0,-23.0,-21.0,-8.0,0.0
35.0,53.0,23.0,2.0,-6.0,-25.0,-30.0,-9.0,0.0,14.0,0.0
47.0,18.0,-8.0,0.0,1.0,-11.0,-26.0,6.0,26.0,26.0,0.0
43.0,-19.0,-13.0,-5.0,0.0,5.0,-6.0,13.0,34.0,25.0,0.0
27.0,-45.0,-18.0,-14.0,-5.0,19.0,21.0,30.0,37.0,23.0,0.0
26.0,-21.0,-13.0,-10.0,-3.0,26.0,41.0,23.0,43.0,12.0,0.0
31.0,-6.0,-26.0,-16.0,-3.0,27.0,45.0,18.0,53.0,13.0,0.0
17.0,-18.0,-43.0,-35.0,1.0,17.0,59.0,36.0,59.0,27.0,0.0
16.0,-25.0,-50.0,-28.0,2.0,15.0,60.0,34.0,64.0,34.0,0.0
27.0,-13.0,-54.0,-26.0,-8.0,33.0,62.0,34.0,60.0,34.0,0.0
15.0,-22.0,-53.0,-24.0,-12.0,35.0,47.0,22.0,49.0,20.0,0.0
12.0,-26.0,-33.0,-18.0,-18.0,21.0,33.0,9.0,43.0,40.0,0.0
9.0,-28.0,-16.0,-7.0,-8.0,17.0,22.0,2.0,29.0,47.0,0.0
-8.0,-39.0,-21.0,4.0,-5.0,12.0,22.0,0.0,23.0,37.0,0.0
-29.0,-58.0,-40.0,7.0,-14.0,4.0,15.0,14.0,11.0,26.0,0.0
-51.0,-65.0,-46.0,15.0,-21.0,4.0,32.0,23.0,15.0,11.0,0.0
-51.0,-50.0,-37.0,21.0,-19.0,8.0,25.0,25.0,22.0,4.0,0.0
-27.0,-27.0,-19.0,11.0,-14.0,1.0,19.0,11.0,22.0,8.0,0.0
-17.0,-8.0,-1.0,12.0,-22.0,1.0,14.0,14.0,28.0,7.0,0.0
-8.0,41.0,40.0,24.0,-22.0,-4.0,3.0,8.0,16.0,1.0,0.0
-12.0,79.0,62.0,31.0,-13.0,-5.0,3.0,4.0,10.0,-15.0,0.0
-24.0,52.0,50.0,33.0,-11.0,-6.0,3.0,0.0,7.0,-18.0,0.0
-16.0,28.0,28.0,29.0,0.0,-5.0,-11.0,-5.0,3.0,-18.0,0.0
19.0,5.0,14.0,31.0,3.0,-13.0,-20.0,-3.0,-8.0,4.0,0.0
46.0,-30.0,-39.0,15.0,12.0,-18.0,-14.0,11.0,-3.0,23.0,0.0
31.0,-93.0,-99.0,-6.0,9.0,-4.0,-21.0,13.0,0.0,12.0,0.0
41.0,-94.0,-90.0,-21.0,0.0,-12.0,-30.0,-2.0,-4.0,12.0,0.0
54.0,-45.0,-54.0,-16.0,0.0,-10.0,-19.0,-12.0,-6.0,36.0,0.0
18.0,-14.0,-36.0,-12.0,4.0,0.0,-19.0,-6.0,-6.0,27.0,0.0
-6.0,-9.0,-36.0,-4.0,8.0,-2.0,-34.0,-8.0,-23.0,-4.0,0.0
8.0,-6.0,-31.0,1.0,0.0,-18.0,-27.0,-14.0,-22.0,-13.0,0.0
19.0,-1.0,-30.0,1.0,-11.0,-24.0,-26.0,-15.0,-17.0,15.0,0.0
19.0,0.0,-20.0,-10.0,-8.0,-18.0,-28.0,-1.0,-19.0,26.0,0.0
6.0,1.0,-13.0,-10.0,-4.0,-11.0,-14.0,4.0,-16.0,14.0,0.0
-6.0,-10.0,-21.0,-2.0,0.0,-9.0,-1.0,4.0,-14.0,4.0,0.0
-22.0,-29.0,-17.0,2.0,-3.0,-14.0,-6.0,0.0,-4.0,-3.0,0.0
-23.0,-31.0,-14.0,7.0,-6.0,-18.0,-3.0,-8.0,-3.0,-6.0,0.0
-24.0,-17.0,-7.0,9.0,13.0,-23.0,5.0,-5.0,-8.0,-16.0,0.0
-24.0,-8.0,9.0,9.0,23.0,-18.0,2.0,5.0,-11.0,-19.0,0.0
-17.0,-16.0,15.0,3.0,6.0,-17.0,-2.0,9.0,-14.0,-21.0,0.0
14.0,-16.0,8.0,-8.0,-6.0,-31.0,-24.0,3.0,0.0,5.0,0.0
47.0,-13.0,5.0,-16.0,-7.0,-22.0,-17.0,0.0,15.0,18.0,0.0
42.0,-6.0,11.0,-18.0,-3.0,-17.0,1.0,-4.0,19.0,2.0,0.0
29.0,6.0,22.0,-20.0,4.0,-17.0,5.0,0.0,22.0,8.0,0.0
33.0,1.0,25.0,-9.0,6.0,-4.0,-2.0,-4.0,11.0,0.0,0.0
23.0,-6.0,26.0,0.0,-3.0,-1.0,-4.0,-10.0,-17.0,-18.0,0.0
16.0,-4.0,15.0,8.0,-7.0,-7.0,-7.0,-4.0,-15.0,-11.0,0.0
12.0,-7.0,5.0,15.0,-3.0,-14.0,-19.0,-7.0,-8.0,4.0,0.0
-2.0,-15.0,8.0,19.0,3.0,0.0,-12.0,-5.0,3.0,3.0,0.0
-21.0,-28.0,7.0,38.0,-2.0,14.0,-11.0,0.0,5.0,-9.0,0.0
-24.0,-23.0,-2.0,36.0,-5.0,9.0,-21.0,0.0,0.0,-26.0,0.0
-28.0,4.0,0.0,42.0,0.0,0.0,-23.0,3.0,-2.0,-32.0,0.0
-28.0,22.0,4.0,48.0,7.0,0.0,-4.0,13.0,-5.0,-28.0,0.0
-18.0,29.0,5.0,44.0,16.0,0.0,-9.0,17.0,-2.0,-23.0,0.0
-5.0,26.0,9.0,41.0,20.0,-1.0,-32.0,-3.0,-22.0,-15.0,0.0
5.0,23.0,13.0,36.0,20.0,-1.0,-5.0,-5.0,-3.0,15.0,0.0
6.0,22.0,14.0,31.0,21.0,1.0,3.0,9.0,12.0,26.0,0.0
5.0,20.0,17.0,40.0,20.0,-3.0,-21.0,19.0,6.0,12.0,0.0
-4.0,29.0,22.0,37.0,18.0,2.0,-3.0,14.0,19.0,17.0,0.0
-5.0,24.0,25.0,25.0,10.0,-4.0,4.0,15.0,24.0,10.0,0.0
-6.0,9.0,11.0,10.0,-2.0,-11.0,-11.0,4.0,12.0,13.0,0.0
-10.0,3.0,-3.0,19.0,-11.0,-11.0,-18.0,-9.0,14.0,10.0,0.0
-17.0,-7.0,-7.0,25.0,-9.0,-13.0,-13.0,-11.0,17.0,3.0,0.0
-19.0,-11.0,0.0,22.0,0.0,-9.0,-10.0,-1.0,19.0,1.0,0.0
-23.0,-14.0,14.0,-2.0,2.0,-7.0,-21.0,0.0,6.0,-3.0,0.0
-26.0,-17.0,19.0,-8.0,-2.0,-8.0,-18.0,-10.0,-5.0,-22.0,0.0
-34.0,-19.0,20.0,-8.0,6.0,-7.0,-10.0,-11.0,2.0,-24.0,0.0
-38.0,-28.0,23.0,-9.0,1.0,0.0,-9.0,-11.0,-2.0,-14.0,0.0
-30.0,-14.0,20.0,-11.0,0.0,-5.0,-5.0,-12.0,2.0,-2.0,0.0
-21.0,-11.0,19.0,-15.0,9.0,-12.0,-13.0,-8.0,9.0,-3.0,0.0
-9.0,-20.0,15.0,-15.0,17.0,-7.0,-14.0,-14.0,3.0,-15.0,0.0
-11.0,-36.0,10.0,-16.0,20.0,0.0,-4.0,-20.0,-4.0,-21.0,0.0
-9.0,-37.0,-1.0,-18.0,14.0,10.0,-8.0,-12.0,0.0,-25.0,0.0
-6.0,-23.0,-7.0,-15.0,-2.0,9.0,-11.0,-6.0,3.0,-13.0,0.0
-11.0,-9.0,-11.0,-2.0,-1.0,-7.0,0.0,1.0,5.0,-11.0,0.0
-16.0,-19.0,-13.0,9.0,12.0,0.0,21.0,9.0,10.0,-19.0,0.0
-24.0,-30.0,-22.0,27.0,16.0,15.0,16.0,24.0,3.0,-42.0,0.0
-46.0,-41.0,-31.0,28.0,10.0,24.0,8.0,32.0,-6.0,-50.0,0.0
-58.0,-42.0,-31.0,21.0,2.0,14.0,9.0,30.0,-14.0,-52.0,0.0
-48.0,1.0,11.0,20.0,8.0,-4.0,-2.0,2.0,-39.0,-63.0,0.0
-46.0,39.0,37.0,27.0,11.0,-8.0,-6.0,-9.0,-52.0,-82.0,0.0
-47.0,31.0,33.0,39.0,7.0,-16.0,-4.0,-3.0,-42.0,-83.0,0.0
-41.0,31.0,16.0,30.0,-2.0,-27.0,-6.0,7.0,-25.0,-40.0,0.0
-7.0,42.0,10.0,13.0,-6.0,-22.0,-15.0,5.0,-16.0,13.0,0.0
31.0,81.0,25.0,4.0,-13.0,-27.0,-11.0,-12.0,-10.0,41.0,0.0
62.0,118.0,57.0,12.0,-17.0,-42.0,-11.0,-18.0,-7.0,42.0,0.0
54.0,101.0,61.0,18.0,-21.0,-55.0,-17.0,-18.0,5.0,39.0,0.0
53.0,56.0,52.0,11.0,-32.0,-52.0,-22.0,-10.0,-1.0,35.0,0.0
60.0,27.0,38.0,-11.0,-33.0,-46.0,-33.0,-5.0,-5.0,34.0,0.0
47.0,-7.0,2.0,-16.0,-29.0,-27.0,-22.0,-7.0,-2.0,36.0,0.0
25.0,-75.0,-80.0,-9.0,-14.0,-5.0,7.0,-5.0,5.0,36.0,0.0
22.0,-96.0,-95.0,-13.0,-2.0,0.0,18.0,1.0,-1.0,32.0,0.0
25.0,-24.0,-28.0,3.0,-4.0,8.0,3.0,6.0,-7.0,42.0,0.0
21.0,30.0,11.0,18.0,-11.0,20.0,-11.0,1.0,-7.0,40.0,0.0
5.0,42.0,16.0,12.0,-7.0,31.0,-11.0,-3.0,-15.0,23.0,0.0
-14.0,33.0,23.0,7.0,0.0,29.0,-5.0,2.0,-10.0,10.0,0.0
-30.0,22.0,14.0,0.0,2.0,23.0,-6.0,10.0,-14.0,5.0,0.0
-33.0,16.0,-3.0,-13.0,16.0,9.0,-5.0,7.0,-10.0,-9.0,0.0
-42.0,-7.0,-9.0,-9.0,26.0,7.0,10.0,9.0,-4.0,-20.0,0.0
-57.0,-38.0,-13.0,-15.0,20.0,23.0,20.0,14.0,-7.0,-39.0,0.0
-51.0,-51.0,-10.0,-10.0,16.0,21.0,16.0,-4.0,-18.0,-39.0,0.0
-16.0,-59.0,-13.0,-17.0,15.0,18.0,14.0,-23.0,-21.0,-5.0,0.0
16.0,-42.0,-2.0,-24.0,9.0,15.0,16.0,-13.0,-16.0,19.0,0.0
12.0,-22.0,3.0,-26.0,11.0,25.0,8.0,-3.0,-8.0,19.0,0.0
-2.0,-20.0,0.0,-18.0,17.0,26.0,15.0,-1.0,5.0,6.0,0.0
3.0,-7.0,3.0,-22.0,17.0,25.0,15.0,0.0,9.0,10.0,0.0
9.0,-11.0,-2.0,-26.0,15.0,20.0,11.0,-3.0,16.0,12.0,0.0
-3.0,-19.0,-12.0,-37.0,16.0,8.0,25.0,-1.0,20.0,0.0,0.0
-16.0,-19.0,-7.0,-30.0,11.0,0.0,29.0,-7.0,14.0,-11.0,0.0
-17.0,-17.0,-1.0,-14.0,5.0,-1.0,16.0,-10.0,0.0,-20.0,0.0
-23.0,-10.0,8.0,-17.0,-1.0,0.0,9.0,-14.0,-10.0,-35.0,0.0
-20.0,0.0,12.0,-24.0,-3.0,5.0,1.0,-25.0,-23.0,-44.0,0.0
0.0,21.0,11.0,-41.0,-9.0,15.0,0.0,-29.0,-23.0,-29.0,0.0
40.0,39.0,22.0,-48.0,-10.0,6.0,-7.0,-37.0,-2.0,21.0,0.0
51.0,58.0,20.0,-41.0,-14.0,0.0,-21.0,-27.0,12.0,43.0,0.0
20.0,48.0,11.0,-45.0,-3.0,2.0,-29.0,-18.0,13.0,23.0,0.0
-14.0,7.0,-12.0,-52.0,0.0,11.0,-17.0,-19.0,18.0,-2.0,0.0
-36.0,-24.0,-25.0,-53.0,-8.0,10.0,4.0,-5.0,16.0,-21.0,0.0
-37.0,-33.0,-16.0,-46.0,-18.0,13.0,9.0,4.0,20.0,-27.0,0.0
-35.0,-20.0,12.0,-27.0,-16.0,11.0,-2.0,0.0,6.0,-31.0,0.0
-30.0,-11.0,24.0,-29.0,-8.0,6.0,1.0,-10.0,-6.0,-36.0,0.0
-16.0,-18.0,19.0,-23.0,4.0,-2.0,4.0,-9.0,2.0,-22.0,0.0
4.0,-16.0,16.0,-17.0,11.0,-16.0,-11.0,-3.0,12.0,25.0,0.0
16.0,-18.0,9.0,-21.0,-3.0,-16.0,-15.0,-10.0,21.0,51.0,0.0
32.0,-17.0,6.0,-23.0,-16.0,-23.0,-15.0,-10.0,12.0,63.0,0.0
23.0,-12.0,17.0,-9.0,-19.0,-20.0,-18.0,-6.0,-3.0,44.0,0.0
17.0,3.0,23.0,10.0,-17.0,-7.0,-15.0,-10.0,-13.0,13.0,0.0
16.0,7.0,31.0,23.0,-12.0,0.0,-17.0,-10.0,-12.0,-7.0,0.0
22.0,29.0,46.0,9.0,-13.0,2.0,-13.0,-18.0,-22.0,-25.0,0.0
15.0,35.0,45.0,-6.0,-10.0,1.0,-7.0,-21.0,-27.0,-29.0,0.0
1.0,11.0,32.0,-18.0,-5.0,-7.0,-11.0,-15.0,-18.0,-16.0,0.0
-10.0,-6.0,21.0,-11.0,-4.0,8.0,-14.0,-14.0,-9.0,7.0,0.0
-20.0,-20.0,11.0,2.0,-4.0,18.0,-2.0,-7.0,-12.0,18.0,0.0
-34.0,-19.0,3.0,16.0,5.0,18.0,15.0,-3.0,-21.0,0.0,0.0
-33.0,-16.0,0.0,16.0,7.0,19.0,13.0,-15.0,-25.0,-9.0,0.0
-27.0,-10.0,2.0,21.0,15.0,16.0,-4.0,-17.0,-27.0,-12.0,0.0
-10.0,-2.0,17.0,24.0,21.0,17.0,-1.0,-16.0,-22.0,-4.0,0.0
-14.0,-7.0,25.0,17.0,16.0,16.0,11.0,-11.0,-10.0,8.0,0.0
-19.0,-6.0,6.0,5.0,13.0,23.0,6.0,5.0,1.0,22.0,0.0
-28.0,4.0,-6.0,4.0,13.0,17.0,-2.0,7.0,0.0,15.0,0.0
-39.0,21.0,-15.0,-17.0,15.0,5.0,-1.0,-1.0,0.0,-6.0,0.0
-31.0,19.0,-33.0,-25.0,14.0,9.0,4.0,0.0,10.0,2.0,0.0
-3.0,10.0,-38.0,-41.0,12.0,15.0,9.0,-1.0,27.0,22.0,0.0
10.0,10.0,-26.0,-52.0,9.0,13.0,23.0,-3.0,43.0,28.0,0.0
11.0,5.0,-17.0,-50.0,19.0,6.0,13.0,-17.0,27.0,17.0,0.0
-2.0,-11.0,-22.0,-44.0,18.0,13.0,2.0,-14.0,10.0,0.0,0.0
-15.0,-3.0,-23.0,-40.0,12.0,10.0,-6.0,2.0,11.0,-11.0,0.0
-23.0,-7.0,-25.0,-35.0,13.0,0.0,-13.0,1.0,11.0,-8.0,0.0
-23.0,-16.0,-26.0,-21.0,22.0,-12.0,-25.0,-6.0,21.0,-3.0,0.0
-19.0,-30.0,-25.0,-14.0,15.0,-12.0,-28.0,-14.0,27.0,4.0,0.0
1.0,-32.0,-12.0,0.0,-1.0,-11.0,-33.0,-9.0,28.0,0.0,0.0
17.0,-24.0,-4.0,-1.0,-7.0,-9.0,-41.0,-8.0,15.0,-7.0,0.0
11.0,-20.0,-13.0,-2.0,-1.0,-2.0,-35.0,-5.0,20.0,-5.0,0.0
-2.0,-20.0,-12.0,3.0,2.0,5.0,-29.0,-9.0,27.0,-3.0,0.0
5.0,-17.0,-10.0,7.0,-5.0,16.0,-27.0,-9.0,21.0,0.0,0.0
25.0,-5.0,-4.0,2.0,-8.0,9.0,-8.0,-2.0,20.0,38.0,0.0
36.0,2.0,-5.0,-7.0,-2.0,11.0,4.0,0.0,22.0,65.0,0.0
25.0,7.0,-6.0,-17.0,6.0,10.0,13.0,15.0,19.0,69.0,0.0
3.0,13.0,11.0,-26.0,7.0,10.0,23.0,21.0,17.0,58.0,0.0
-7.0,5.0,15.0,-8.0,4.0,12.0,32.0,23.0,17.0,37.0,0.0
-9.0,35.0,40.0,18.0,12.0,2.0,19.0,16.0,6.0,21.0,0.0
8.0,100.0,96.0,31.0,15.0,0.0,1.0,7.0,-1.0,17.0,0.0
10.0,97.0,99.0,32.0,24.0,7.0,7.0,7.0,5.0,21.0,0.0
4.0,64.0,83.0,21.0,20.0,2.0,1.0,10.0,0.0,11.0,0.0
-2.0,38.0,69.0,12.0,10.0,4.0,-10.0,0.0,-9.0,7.0,0.0
-3.0,8.0,40.0,9.0,11.0,5.0,-12.0,-16.0,-15.0,-3.0,0.0
-12.0,-47.0,-24.0,8.0,16.0,6.0,3.0,-7.0,-2.0,4.0,0.0
-25.0,-103.0,-92.0,7.0,13.0,18.0,25.0,4.0,6.0,9.0,0.0
-22.0,-80.0,-74.0,8.0,10.0,19.0,20.0,1.0,-2.0,6.0,0.0
-4.0,-37.0,-30.0,9.0,8.0,3.0,15.0,-10.0,-17.0,5.0,0.0
17.0,-11.0,-4.0,-1.0,-2.0,-6.0,14.0,-13.0,-7.0,21.0,0.0
20.0,-2.0,3.0,4.0,-13.0,-3.0,12.0,2.0,5.0,38.0,0.0
27.0,3.0,4.0,11.0,-15.0,12.0,3.0,6.0,2.0,40.0,0.0
26.0,2.0,9.0,4.0,-12.0,19.0,-3.0,-9.0,-1.0,40.0,0.0
15.0,0.0,14.0,3.0,-5.0,10.0,0.0,-1.0,-10.0,31.0,0.0
8.0,3.0,12.0,-3.0,-5.0,-2.0,-12.0,5.0,-21.0,10.0,0.0
4.0,22.0,32.0,-11.0,-10.0,0.0,-17.0,1.0,-41.0,-8.0,0.0
0.0,34.0,41.0,-16.0,-5.0,3.0,-13.0,0.0,-48.0,-3.0,0.0
2.0,47.0,44.0,-10.0,-3.0,3.0,-21.0,2.0,-46.0,-1.0,0.0
-2.0,45.0,37.0,-9.0,5.0,0.0,-20.0,10.0,-39.0,-1.0,0.0
-7.0,20.0,20.0,-13.0,3.0,7.0,-13.0,14.0,-39.0,3.0,0.0
-19.0,-11.0,4.0,-23.0,6.0,16.0,-11.0,10.0,-42.0,-5.0,0.0
-15.0,-44.0,-28.0,-4.0,16.0,27.0,2.0,8.0,-22.0,-12.0,0.0
-5.0,-69.0,-54.0,-3.0,24.0,44.0,18.0,13.0,-8.0,-12.0,0.0
-18.0,-96.0,-55.0,0.0,20.0,37.0,7.0,16.0,-9.0,-5.0,0.0
-20.0,-84.0,-40.0,8.0,22.0,29.0,-13.0,21.0,-12.0,-12.0,0.0
-1.0,-47.0,-26.0,11.0,16.0,21.0,-22.0,9.0,4.0,-14.0,0.0
4.0,-30.0,-4.0,13.0,8.0,19.0,-26.0,13.0,18.0,-7.0,0.0
5.0,-19.0,-6.0,6.0,3.0,18.0,-26.0,15.0,18.0,-8.0,0.0
4.0,-8.0,-5.0,6.0,0.0,12.0,-32.0,8.0,14.0,-19.0,0.0
6.0,-11.0,2.0,4.0,-1.0,16.0,-24.0,15.0,17.0,-9.0,0.0
-6.0,-7.0,0.0,-6.0,-7.0,13.0,-12.0,26.0,12.0,-16.0,0.0
-14.0,-11.0,-2.0,-6.0,-7.0,23.0,-6.0,28.0,18.0,-22.0,0.0
17.0,-1.0,-1.0,-24.0,-10.0,16.0,-12.0,12.0,21.0,12.0,0.0
40.0,-10.0,-16.0,-34.0,-20.0,7.0,-5.0,0.0,25.0,41.0,0.0
41.0,-14.0,-32.0,-22.0,-20.0,3.0,7.0,14.0,21.0,30.0,0.0
43.0,-1.0,-36.0,-30.0,-16.0,9.0,24.0,26.0,7.0,19.0,0.0
43.0,6.0,-21.0,-45.0,-3.0,10.0,14.0,12.0,-8.0,20.0,0.0
54.0,3.0,-14.0,-48.0,2.0,12.0,-1.0,2.0,-14.0,39.0,0.0
57.0,-9.0,-16.0,-46.0,2.0,16.0,2.0,7.0,-1.0,42.0,0.0
45.0,-5.0,-6.0,-27.0,1.0,17.0,13.0,12.0,8.0,10.0,0.0
26.0,14.0,6.0,-18.0,2.0,19.0,3.0,13.0,-7.0,-22.0,0.0
15.0,34.0,47.0,-6.0,-1.0,15.0,-8.0,0.0,-23.0,-32.0,0.0
9.0,33.0,45.0,-4.0,0.0,6.0,-19.0,-2.0,-26.0,-19.0,0.0
13.0,30.0,31.0,-6.0,0.0,6.0,-20.0,8.0,-19.0,-2.0,0.0
22.0,25.0,19.0,-13.0,-2.0,5.0,-18.0,6.0,-16.0,-4.0,0.0
48.0,23.0,25.0,-15.0,-12.0,-5.0,-18.0,-8.0,-18.0,8.0,0.0
46.0,29.0,17.0,-13.0,-1.0,-1.0,-7.0,-8.0,-27.0,-6.0,0.0
39.0,41.0,22.0,-12.0,0.0,2.0,-7.0,-12.0,-26.0,-9.0,0.0
61.0,43.0,22.0,-19.0,-6.0,-9.0,-31.0,-14.0,-33.0,26.0,0.0
71.0,29.0,13.0,-29.0,-12.0,-8.0,-30.0,-11.0,-23.0,54.0,0.0
32.0,8.0,11.0,-33.0,-9.0,7.0,-25.0,-8.0,-12.0,35.0,0.0
6.0,-8.0,0.0,-41.0,-8.0,10.0,-18.0,3.0,-14.0,10.0,0.0
-17.0,-20.0,-12.0,-31.0,-5.0,1.0,0.0,11.0,-6.0,4.0,0.0
-26.0,-46.0,-16.0,-28.0,-9.0,3.0,16.0,8.0,6.0,6.0,0.0
-21.0,-55.0,-10.0,-31.0,-19.0,3.0,15.0,20.0,7.0,30.0,0.0
-15.0,-44.0,-13.0,-24.0,-17.0,5.0,12.0,22.0,12.0,59.0,0.0
-6.0,-22.0,-5.0,-18.0,-15.0,-3.0,-4.0,12.0,1.0,47.0,0.0
-7.0,0.0,3.0,-18.0,-19.0,-9.0,-19.0,1.0,5.0,21.0,0.0
-7.0,4.0,4.0,-9.0,-24.0,-13.0,-18.0,-1.0,9.0,15.0,0.0
0.0,5.0,15.0,-10.0,-26.0,-13.0,-23.0,6.0,4.0,6.0,0.0
2.0,1.0,1.0,-7.0,-17.0,-5.0,-12.0,6.0,7.0,3.0,0.0
2.0,4.0,0.0,-4.0,-11.0,-6.0,4.0,2.0,5.0,10.0,0.0
7.0,8.0,-12.0,-6.0,-21.0,-4.0,-1.0,18.0,12.0,16.0,0.0
8.0,5.0,-16.0,-7.0,-27.0,-3.0,-3.0,22.0,22.0,13.0,0.0
6.0,1.0,-13.0,-3.0,-12.0,-1.0,4.0,12.0,22.0,-2.0,0.0
3.0,-2.0,-21.0,14.0,-1.0,0.0,6.0,2.0,18.0,-9.0,0.0
-9.0,1.0,-9.0,32.0,2.0,0.0,1.0,2.0,9.0,-6.0,0.0
-14.0,8.0,-6.0,41.0,8.0,2.0,-5.0,-7.0,22.0,0.0,0.0
-14.0,20.0,-10.0,42.0,10.0,9.0,5.0,-14.0,11.0,-7.0,0.0
-11.0,15.0,-15.0,49.0,15.0,11.0,7.0,-17.0,-6.0,-2.0,0.0
7.0,14.0,-24.0,56.0,18.0,6.0,0.0,-21.0,-12.0,1.0,0.0
19.0,28.0,-19.0,43.0,8.0,0.0,-14.0,-17.0,0.0,17.0,0.0
37.0,36.0,-19.0,18.0,-3.0,-3.0,-11.0,-19.0,19.0,41.0,0.0
42.0,37.0,-24.0,-5.0,-6.0,-7.0,0.0,-33.0,30.0,42.0,0.0
34.0,28.0,-24.0,2.0,-12.0,-13.0,-2.0,-26.0,17.0,23.0,0.0
32.0,14.0,-23.0,12.0,-11.0,-1.0,-14.0,-14.0,3.0,17.0,0.0
43.0,8.0,-26.0,11.0,-7.0,-4.0,-7.0,-2.0,0.0,24.0,0.0
27.0,6.0,-13.0,8.0,0.0,-5.0,5.0,7.0,2.0,24.0,0.0
-6.0,-4.0,-16.0,9.0,7.0,-2.0,11.0,1.0,4.0,18.0,0.0
-8.0,-5.0,-17.0,6.0,8.0,0.0,9.0,-6.0,0.0,3.0,0.0
-5.0,-1.0,-27.0,-10.0,-5.0,-3.0,17.0,0.0,-7.0,-1.0,0.0
-2.0,12.0,-37.0,-14.0,-4.0,-8.0,32.0,0.0,0.0,0.0,0.0
0.0,23.0,-28.0,0.0,-2.0,-8.0,15.0,1.0,-9.0,-13.0,0.0
-5.0,25.0,-15.0,26.0,0.0,-6.0,0.0,-3.0,-18.0,-33.0,0.0
-10.0,17.0,-20.0,29.0,-1.0,-10.0,6.0,-7.0,-20.0,-40.0,0.0
-21.0,-2.0,-29.0,24.0,-4.0,-2.0,0.0,-3.0,-18.0,-38.0,0.0
-21.0,-11.0,-28.0,23.0,7.0,-7.0,3.0,-8.0,-13.0,-42.0,0.0
-11.0,-8.0,-9.0,24.0,8.0,-12.0,9.0,-16.0,-7.0,-41.0,0.0
-21.0,1.0,-18.0,29.0,2.0,-3.0,8.0,-15.0,-12.0,-30.0,0.0
-24.0,0.0,-32.0,17.0,5.0,-8.0,9.0,-15.0,-18.0,-36.0,0.0
-17.0,-1.0,-27.0,11.0,8.0,-13.0,14.0,-18.0,-10.0,-43.0,0.0
-4.0,12.0,-12.0,5.0,8.0,-9.0,15.0,-17.0,1.0,-40.0,0.0
-4.0,29.0,-16.0,13.0,6.0,-11.0,25.0,0.0,7.0,-19.0,0.0
-1.0,29.0,-4.0,15.0,6.0,-8.0,16.0,9.0,6.0,-3.0,0.0
7.0,28.0,-1.0,-2.0,3.0,-8.0,16.0,9.0,3.0,-4.0,0.0
17.0,85.0,45.0,-5.0,5.0,-13.0,22.0,11.0,12.0,0.0,0.0
19.0,112.0,84.0,-1.0,7.0,-13.0,19.0,10.0,19.0,-6.0,0.0
16.0,81.0,89.0,13.0,-4.0,-11.0,3.0,0.0,4.0,-27.0,0.0
5.0,34.0,76.0,11.0,-11.0,-21.0,3.0,-11.0,-13.0,-36.0,0.0
0.0,14.0,50.0,5.0,-4.0,-19.0,0.0,-8.0,-25.0,-32.0,0.0
8.0,-10.0,-15.0,0.0,6.0,-15.0,0.0,-4.0,-12.0,-15.0,0.0
21.0,-59.0,-80.0,-10.0,11.0,-3.0,-3.0,9.0,1.0,-6.0,0.0
16.0,-55.0,-81.0,-14.0,0.0,4.0,4.0,9.0,-2.0,-2.0,0.0
4.0,-22.0,-56.0,-7.0,-4.0,0.0,13.0,6.0,0.0,-19.0,0.0
1.0,-15.0,-42.0,4.0,-5.0,0.0,16.0,9.0,0.0,-36.0,0.0
-14.0,-40.0,-37.0,-5.0,4.0,13.0,3.0,10.0,-5.0,-40.0,0.0
-25.0,-45.0,-27.0,-28.0,-7.0,4.0,-1.0,7.0,0.0,-28.0,0.0
-15.0,-39.0,-26.0,-30.0,-14.0,4.0,3.0,5.0,3.0,-29.0,0.0
-15.0,-19.0,-27.0,-24.0,-7.0,2.0,4.0,12.0,7.0,-22.0,0.0
0.0,-10.0,-13.0,-24.0,-9.0,8.0,6.0,14.0,11.0,-18.0,0.0
9.0,-9.0,-9.0,-16.0,-2.0,13.0,1.0,4.0,21.0,-9.0,0.0
12.0,12.0,-9.0,-6.0,-3.0,10.0,5.0,1.0,31.0,9.0,0.0
16.0,31.0,4.0,-9.0,0.0,6.0,12.0,3.0,22.0,3.0,0.0
22.0,33.0,14.0,-23.0,0.0,10.0,5.0,12.0,12.0,-7.0,0.0
11.0,34.0,15.0,-28.0,-9.0,14.0,-9.0,5.0,8.0,-20.0,0.0
-6.0,26.0,12.0,-26.0,-7.0,2.0,0.0,-2.0,15.0,-26.0,0.0
-8.0,20.0,19.0,-14.0,-11.0,-12.0,16.0,-8.0,14.0,-21.0,0.0
6.0,25.0,18.0,-9.0,-20.0,-7.0,11.0,-6.0,5.0,-16.0,0.0
29.0,26.0,16.0,-12.0,-25.0,-4.0,3.0,-6.0,-4.0,-2.0,0.0
59.0,17.0,24.0,-13.0,-36.0,-6.0,8.0,-10.0,-7.0,34.0,0.0
77.0,14.0,18.0,-4.0,-31.0,2.0,16.0,-17.0,-5.0,50.0,0.0
64.0,19.0,9.0,-1.0,-15.0,0.0,4.0,-16.0,-8.0,34.0,0.0
45.0,15.0,-4.0,-14.0,-6.0,2.0,-6.0,-24.0,-23.0,6.0,0.0
33.0,7.0,-2.0,-28.0,3.0,0.0,1.0,-24.0,-23.0,-9.0,0.0
10.0,0.0,-8.0,-23.0,6.0,-11.0,6.0,-21.0,-36.0,-17.0,0.0
4.0,-9.0,-18.0,-18.0,13.0,3.0,-5.0,-16.0,-37.0,3.0,0.0
1.0,-21.0,-12.0,-16.0,16.0,13.0,-17.0,-13.0,-29.0,18.0,0.0
-3.0,-29.0,-7.0,-23.0,21.0,2.0,-13.0,-13.0,-17.0,28.0,0.0
-15.0,-29.0,-10.0,-24.0,18.0,-6.0,4.0,-18.0,-2.0,26.0,0.0
-20.0,-5.0,-7.0,-14.0,19.0,-10.0,7.0,-26.0,-20.0,9.0,0.0
-39.0,-2.0,-11.0,-11.0,6.0,-9.0,0.0,-16.0,-19.0,-1.0,0.0
-46.0,-8.0,-19.0,-6.0,2.0,1.0,13.0,-10.0,-10.0,2.0,0.0
-42.0,-8.0,-6.0,9.0,9.0,12.0,21.0,5.0,-3.0,1.0,0.0
-39.0,-1.0,-19.0,27.0,13.0,19.0,10.0,7.0,3.0,-8.0,0.0
-48.0,14.0,-10.0,36.0,15.0,23.0,10.0,8.0,4.0,-16.0,0.0
-52.0,53.0,3.0,49.0,20.0,14.0,24.0,12.0,-2.0,-19.0,0.0
-39.0,90.0,3.0,54.0,21.0,1.0,15.0,8.0,1.0,-2.0,0.0
-17.0,88.0,6.0,40.0,4.0,-9.0,0.0,-2.0,6.0,22.0,0.0
-5.0,52.0,-7.0,14.0,-12.0,-24.0,-21.0,-8.0,-2.0,30.0,0.0
-11.0,33.0,-22.0,28.0,-9.0,-23.0,-19.0,-11.0,-12.0,16.0,0.0
-12.0,29.0,-24.0,28.0,-3.0,-14.0,2.0,-13.0,-13.0,2.0,0.0
5.0,21.0,-18.0,22.0,2.0,-11.0,-3.0,-6.0,-5.0,21.0,0.0
29.0,21.0,-26.0,23.0,13.0,-13.0,-4.0,7.0,3.0,22.0,0.0
21.0,12.0,-18.0,13.0,17.0,-1.0,-1.0,19.0,11.0,8.0,0.0
12.0,-6.0,-7.0,-12.0,12.0,3.0,4.0,20.0,17.0,6.0,0.0
40.0,-4.0,-6.0,-18.0,4.0,4.0,-8.0,17.0,24.0,31.0,0.0
44.0,13.0,13.0,-5.0,1.0,3.0,-16.0,13.0,19.0,50.0,0.0
0.0,34.0,11.0,21.0,0.0,-9.0,-11.0,21.0,16.0,17.0,0.0
-25.0,42.0,9.0,19.0,5.0,-8.0,0.0,23.0,22.0,-9.0,0.0
-18.0,40.0,-4.0,5.0,0.0,0.0,-2.0,12.0,36.0,14.0,0.0
-10.0,33.0,-15.0,12.0,-2.0,-1.0,-2.0,6.0,35.0,48.0,0.0
-13.0,9.0,-27.0,13.0,2.0,5.0,5.0,9.0,40.0,50.0,0.0
-7.0,-29.0,-51.0,7.0,3.0,12.0,8.0,12.0,36.0,47.0,0.0
-8.0,-51.0,-46.0,19.0,14.0,15.0,21.0,11.0,27.0,20.0,0.0
-30.0,-63.0,-32.0,37.0,26.0,15.0,12.0,17.0,19.0,-13.0,0.0
-42.0,-44.0,-19.0,53.0,15.0,12.0,8.0,15.0,13.0,-16.0,0.0
-39.0,-29.0,-15.0,49.0,10.0,16.0,27.0,2.0,-1.0,-12.0,0.0
-37.0,-24.0,-11.0,35.0,10.0,7.0,18.0,3.0,-10.0,-16.0,0.0
-29.0,25.0,20.0,35.0,11.0,-6.0,-3.0,-5.0,-11.0,-20.0,0.0
-18.0,77.0,60.0,35.0,12.0,-5.0,8.0,-5.0,-14.0,-18.0,0.0
-11.0,77.0,66.0,29.0,4.0,1.0,17.0,9.0,-17.0,-19.0,0.0
-8.0,48.0,67.0,14.0,1.0,-4.0,10.0,10.0,-12.0,-5.0,0.0
-12.0,32.0,50.0,9.0,0.0,-11.0,2.0,2.0,-8.0,0.0,0.0
-1.0,14.0,10.0,3.0,4.0,-9.0,7.0,2.0,-4.0,4.0,0.0
3.0,-35.0,-60.0,-6.0,4.0,13.0,5.0,14.0,-4.0,16.0,0.0
1.0,-44.0,-76.0,8.0,0.0,21.0,7.0,10.0,-11.0,28.0,0.0
17.0,-4.0,-32.0,24.0,-6.0,16.0,9.0,-1.0,-22.0,22.0,0.0
28.0,19.0,-1.0,33.0,-12.0,-7.0,-3.0,-10.0,-34.0,20.0,0.0
22.0,15.0,-4.0,33.0,-13.0,-13.0,-8.0,-15.0,-32.0,19.0,0.0
4.0,23.0,0.0,31.0,-9.0,-11.0,-2.0,-8.0,-25.0,-3.0,0.0
-9.0,23.0,10.0,29.0,0.0,-12.0,-2.0,-9.0,-13.0,-5.0,0.0
-41.0,-19.0,-5.0,23.0,-1.0,-6.0,9.0,-7.0,0.0,-14.0,0.0
-64.0,-67.0,-22.0,22.0,-8.0,0.0,27.0,9.0,-2.0,-19.0,0.0
-66.0,-75.0,-11.0,25.0,0.0,5.0,32.0,11.0,3.0,-28.0,0.0
-62.0,-65.0,-18.0,18.0,6.0,0.0,32.0,13.0,4.0,-38.0,0.0
-44.0,-41.0,-17.0,23.0,9.0,7.0,44.0,9.0,1.0,-42.0,0.0
-39.0,-29.0,-5.0,18.0,12.0,12.0,35.0,4.0,1.0,-47.0,0.0
-45.0,-43.0,-5.0,-1.0,15.0,14.0,29.0,0.0,-3.0,-47.0,0.0
-44.0,-49.0,-16.0,-3.0,13.0,17.0,24.0,0.0,-5.0,-37.0,0.0
-46.0,-53.0,-12.0,-7.0,16.0,16.0,15.0,6.0,2.0,-45.0,0.0
-39.0,-39.0,6.0,-7.0,16.0,10.0,13.0,8.0,13.0,-38.0,0.0
-30.0,-33.0,5.0,-9.0,4.0,6.0,10.0,9.0,7.0,-31.0,0.0
-31.0,-25.0,-4.0,-11.0,-1.0,13.0,15.0,11.0,5.0,-30.0,0.0
-40.0,-23.0,0.0,-8.0,-1.0,20.0,4.0,8.0,7.0,-20.0,0.0
-34.0,-10.0,11.0,-12.0,0.0,1.0,-2.0,1.0,7.0,-15.0,0.0
-35.0,3.0,22.0,-13.0,0.0,-11.0,7.0,-2.0,10.0,-17.0,0.0
-44.0,-5.0,23.0,-20.0,3.0,-15.0,1.0,0.0,5.0,-33.0,0.0
-46.0,-19.0,24.0,-25.0,4.0,-16.0,1.0,0.0,10.0,-46.0,0.0
-40.0,-16.0,27.0,-39.0,-10.0,-3.0,5.0,2.0,10.0,-50.0,0.0
-35.0,-4.0,30.0,-38.0,-13.0,-3.0,-6.0,5.0,-1.0,-47.0,0.0
-33.0,0.0,23.0,-41.0,-9.0,-15.0,-10.0,9.0,0.0,-43.0,0.0
-26.0,0.0,32.0,-32.0,-7.0,-18.0,-7.0,0.0,12.0,-37.0,0.0
-7.0,-14.0,35.0,-28.0,-12.0,-19.0,-2.0,0.0,9.0,-15.0,0.0
17.0,-8.0,43.0,-27.0,-4.0,-19.0,0.0,4.0,11.0,24.0,0.0
56.0,-7.0,41.0,-8.0,0.0,-11.0,5.0,3.0,20.0,53.0,0.0
61.0,-8.0,39.0,2.0,-7.0,-15.0,5.0,0.0,27.0,62.0,0.0
37.0,-14.0,25.0,6.0,-13.0,-12.0,8.0,0.0,16.0,44.0,0.0
10.0,-17.0,5.0,6.0,-10.0,-10.0,7.0,2.0,0.0,15.0,0.0
3.0,-18.0,-16.0,0.0,0.0,-8.0,4.0,9.0,-2.0,-1.0,0.0
7.0,-29.0,-31.0,-14.0,-8.0,-2.0,8.0,12.0,8.0,-6.0,0.0
17.0,-19.0,-28.0,-18.0,-15.0,-4.0,5.0,4.0,5.0,0.0,0.0
19.0,-3.0,-17.0,-11.0,-12.0,-17.0,-5.0,-12.0,-3.0,-1.0,0.0
13.0,-6.0,-13.0,-21.0,-21.0,-23.0,-1.0,-22.0,-6.0,5.0,0.0
17.0,-15.0,-14.0,-24.0,-29.0,-22.0,-13.0,-30.0,-7.0,21.0,0.0
18.0,-20.0,0.0,-7.0,-18.0,-12.0,-7.0,-29.0,0.0,28.0,0.0
8.0,-17.0,-5.0,-13.0,-13.0,-21.0,-4.0,-32.0,8.0,17.0,0.0
1.0,-23.0,-3.0,-28.0,-12.0,-21.0,-14.0,-18.0,12.0,12.0,0.0
-4.0,-23.0,1.0,-35.0,-4.0,-23.0,-14.0,-7.0,14.0,9.0,0.0
-6.0,-35.0,4.0,-34.0,-3.0,-10.0,5.0,-1.0,12.0,2.0,0.0
-22.0,-5.0,12.0,-17.0,-7.0,-3.0,9.0,10.0,16.0,-20.0,0.0
-36.0,38.0,28.0,-9.0,-1.0,0.0,13.0,16.0,2.0,-27.0,0.0
-38.0,51.0,34.0,0.0,7.0,4.0,32.0,29.0,2.0,-33.0,0.0
-20.0,37.0,19.0,-9.0,1.0,-3.0,34.0,19.0,16.0,-22.0,0.0
10.0,40.0,19.0,-19.0,-9.0,-11.0,25.0,9.0,25.0,-16.0,0.0
19.0,31.0,17.0,-25.0,-3.0,-10.0,15.0,15.0,31.0,-4.0,0.0
31.0,3.0,13.0,-16.0,-9.0,-22.0,9.0,7.0,39.0,36.0,0.0
37.0,-11.0,7.0,-4.0,-19.0,-26.0,-11.0,-1.0,34.0,57.0,0.0
19.0,-14.0,3.0,-8.0,-16.0,-12.0,-22.0,-8.0,10.0,40.0,0.0
8.0,-28.0,10.0,2.0,-19.0,-13.0,0.0,-6.0,8.0,9.0,0.0
1.0,-20.0,19.0,3.0,-26.0,-7.0,4.0,3.0,6.0,-6.0,0.0
5.0,-2.0,30.0,3.0,-10.0,-15.0,5.0,6.0,7.0,-4.0,0.0
16.0,6.0,29.0,8.0,-8.0,-12.0,8.0,-2.0,8.0,-7.0,0.0
13.0,-1.0,26.0,4.0,-7.0,-10.0,-1.0,-10.0,11.0,-18.0,0.0
15.0,8.0,20.0,3.0,-4.0,-8.0,0.0,-21.0,15.0,-25.0,0.0
12.0,3.0,8.0,-2.0,-1.0,-5.0,7.0,-13.0,24.0,-20.0,0.0
14.0,2.0,8.0,-7.0,-9.0,-6.0,6.0,-14.0,23.0,-6.0,0.0
24.0,2.0,0.0,3.0,-8.0,-13.0,3.0,-10.0,6.0,-23.0,0.0
25.0,-15.0,0.0,0.0,-7.0,-14.0,-6.0,0.0,-12.0,-43.0,0.0
18.0,-22.0,-6.0,1.0,-6.0,-14.0,0.0,-14.0,-24.0,-43.0,0.0
15.0,-14.0,-9.0,-7.0,-2.0,-10.0,14.0,-1.0,-28.0,-50.0,0.0
28.0,3.0,-12.0,-9.0,-3.0,7.0,6.0,0.0,-28.0,-35.0,0.0
56.0,31.0,8.0,-1.0,-8.0,9.0,3.0,-8.0,-22.0,19.0,0.0
44.0,82.0,50.0,11.0,0.0,6.0,3.0,-5.0,-15.0,36.0,0.0
24.0,109.0,66.0,26.0,9.0,2.0,6.0,4.0,-20.0,18.0,0.0
13.0,74.0,66.0,24.0,7.0,-1.0,14.0,8.0,-17.0,4.0,0.0
10.0,42.0,58.0,21.0,8.0,5.0,1.0,-2.0,-22.0,-3.0,0.0
12.0,9.0,26.0,15.0,0.0,-3.0,1.0,-13.0,-21.0,-9.0,0.0
17.0,-34.0,-33.0,7.0,-10.0,-14.0,1.0,-13.0,-2.0,5.0,0.0
-4.0,-79.0,-80.0,1.0,8.0,-15.0,-5.0,-7.0,-2.0,0.0,0.0
-26.0,-60.0,-68.0,10.0,22.0,-7.0,-5.0,-15.0,-4.0,-12.0,0.0
-21.0,-14.0,-28.0,16.0,23.0,0.0,-8.0,-13.0,-5.0,-19.0,0.0
-11.0,-10.0,-13.0,8.0,15.0,2.0,-6.0,-10.0,-10.0,-21.0,0.0
-27.0,-8.0,6.0,0.0,17.0,5.0,-6.0,-1.0,-2.0,-29.0,0.0
-28.0,0.0,0.0,-1.0,18.0,2.0,-2.0,-4.0,3.0,-26.0,0.0
-4.0,8.0,-12.0,2.0,13.0,1.0,2.0,-9.0,-2.0,-13.0,0.0
21.0,8.0,-16.0,16.0,12.0,5.0,-3.0,3.0,2.0,-7.0,0.0
24.0,-3.0,-9.0,19.0,15.0,5.0,-3.0,7.0,6.0,2.0,0.0
7.0,-14.0,-10.0,8.0,6.0,7.0,0.0,13.0,3.0,3.0,0.0
-9.0,-18.0,-13.0,0.0,3.0,10.0,11.0,19.0,-3.0,7.0,0.0
-11.0,-20.0,-17.0,-9.0,10.0,2.0,15.0,17.0,-7.0,12.0,0.0
-13.0,-9.0,-8.0,5.0,11.0,2.0,13.0,18.0,4.0,21.0,0.0
-18.0,-21.0,-6.0,14.0,4.0,1.0,12.0,10.0,5.0,13.0,0.0
-15.0,-41.0,-18.0,15.0,0.0,-1.0,8.0,9.0,7.0,12.0,0.0
-28.0,-43.0,-31.0,-2.0,-6.0,-11.0,5.0,8.0,3.0,11.0,0.0
-31.0,-32.0,-28.0,-35.0,-9.0,-15.0,10.0,7.0,3.0,1.0,0.0
-25.0,-22.0,-12.0,-40.0,-14.0,-17.0,11.0,2.0,6.0,3.0,0.0
-26.0,-19.0,-5.0,-19.0,-10.0,-22.0,10.0,7.0,3.0,4.0,0.0
-27.0,-20.0,-18.0,-11.0,-15.0,-18.0,-7.0,10.0,1.0,2.0,0.0
-31.0,-27.0,-25.0,-17.0,-8.0,-10.0,-11.0,11.0,8.0,2.0,0.0
-28.0,-30.0,-19.0,-4.0,3.0,-6.0,0.0,11.0,10.0,15.0,0.0
-11.0,-13.0,-11.0,12.0,-3.0,-4.0,-3.0,7.0,15.0,29.0,0.0
-2.0,-14.0,-8.0,22.0,2.0,-12.0,2.0,6.0,14.0,23.0,0.0
-10.0,-4.0,7.0,30.0,0.0,-17.0,-3.0,-1.0,13.0,12.0,0.0
-15.0,4.0,13.0,31.0,-7.0,-18.0,0.0,-4.0,12.0,15.0,0.0
-9.0,11.0,8.0,31.0,0.0,-14.0,5.0,-9.0,4.0,14.0,0.0
-17.0,7.0,7.0,20.0,6.0,-10.0,8.0,-6.0,-3.0,-2.0,0.0
-27.0,0.0,10.0,16.0,3.0,-10.0,13.0,-15.0,-3.0,-13.0,0.0
-16.0,17.0,27.0,19.0,-2.0,-19.0,8.0,-27.0,-12.0,-15.0,0.0
-17.0,24.0,30.0,29.0,5.0,-10.0,5.0,-26.0,-31.0,-34.0,0.0
-19.0,15.0,22.0,37.0,0.0,-1.0,4.0,-37.0,-25.0,-36.0,0.0
-15.0,7.0,20.0,28.0,-5.0,-2.0,0.0,-34.0,-2.0,-20.0,0.0
-21.0,7.0,19.0,16.0,-13.0,-17.0,-5.0,-23.0,3.0,-11.0,0.0
-21.0,6.0,27.0,8.0,-11.0,-18.0,-16.0,-30.0,3.0,-5.0,0.0
-1.0,11.0,16.0,5.0,-3.0,-29.0,-36.0,-29.0,1.0,12.0,0.0
16.0,12.0,5.0,5.0,1.0,-18.0,-33.0,-33.0,-7.0,17.0,0.0
42.0,22.0,3.0,-4.0,-2.0,-5.0,-16.0,-40.0,-15.0,26.0,0.0
83.0,31.0,6.0,-6.0,-16.0,-16.0,-31.0,-41.0,-13.0,63.0,0.0
105.0,30.0,7.0,-6.0,-19.0,-19.0,-35.0,-40.0,-6.0,85.0,0.0
72.0,37.0,-12.0,-3.0,-16.0,-22.0,-29.0,-34.0,-5.0,55.0,0.0
33.0,20.0,0.0,-11.0,-3.0,-10.0,-20.0,-14.0,7.0,34.0,0.0
-5.0,4.0,7.0,-14.0,10.0,7.0,-13.0,-3.0,16.0,25.0,0.0
-18.0,-11.0,-8.0,-7.0,9.0,7.0,-12.0,5.0,10.0,15.0,0.0
-30.0,-20.0,-14.0,-13.0,9.0,3.0,-8.0,-2.0,11.0,2.0,0.0
-32.0,-18.0,1.0,-15.0,0.0,3.0,-14.0,-8.0,3.0,0.0,0.0
-22.0,0.0,-2.0,0.0,0.0,-1.0,-11.0,-13.0,-14.0,-12.0,0.0
-11.0,11.0,-7.0,4.0,1.0,-5.0,-11.0,-11.0,-15.0,1.0,0.0
18.0,54.0,-11.0,4.0,-6.0,-9.0,-22.0,-22.0,-25.0,29.0,0.0
30.0,78.0,-3.0,14.0,-15.0,-19.0,-28.0,-22.0,-30.0,35.0,0.0
13.0,72.0,0.0,20.0,-13.0,-18.0,-25.0,-9.0,-31.0,16.0,0.0
10.0,69.0,-11.0,14.0,-7.0,-16.0,-11.0,-1.0,-37.0,-1.0,0.0
10.0,51.0,-20.0,9.0,-8.0,-27.0,3.0,-3.0,-32.0,-5.0,0.0
-5.0,12.0,-31.0,9.0,-15.0,-20.0,8.0,2.0,-13.0,0.0,0.0
-41.0,-41.0,-44.0,6.0,-9.0,1.0,26.0,17.0,11.0,2.0,0.0
-63.0,-66.0,-59.0,-4.0,-3.0,16.0,28.0,33.0,12.0,-1.0,0.0
-64.0,-61.0,-55.0,-7.0,1.0,19.0,19.0,38.0,0.0,-19.0,0.0
-57.0,-54.0,-38.0,6.0,4.0,9.0,31.0,31.0,-5.0,-32.0,0.0
-47.0,-32.0,-28.0,16.0,12.0,-4.0,28.0,25.0,-11.0,-38.0,0.0
-31.0,-11.0,-21.0,22.0,9.0,-8.0,33.0,23.0,-12.0,-51.0,0.0
-19.0,0.0,-29.0,15.0,-1.0,-5.0,29.0,12.0,-4.0,-49.0,0.0
-20.0,15.0,-19.0,7.0,-9.0,-15.0,12.0,2.0,3.0,-38.0,0.0
1.0,24.0,-32.0,0.0,-17.0,-6.0,1.0,-4.0,9.0,-24.0,0.0
5.0,33.0,-38.0,0.0,-13.0,-5.0,3.0,-6.0,8.0,-5.0,0.0
26.0,24.0,-33.0,-2.0,-16.0,-11.0,-9.0,-6.0,1.0,22.0,0.0
30.0,13.0,-22.0,4.0,-11.0,-20.0,-5.0,-8.0,-9.0,26.0,0.0
12.0,9.0,-3.0,12.0,-3.0,-6.0,-1.0,-16.0,-6.0,2.0,0.0
8.0,0.0,-8.0,15.0,5.0,3.0,2.0,-18.0,-8.0,-15.0,0.0
6.0,2.0,-19.0,16.0,0.0,0.0,-5.0,-3.0,-17.0,-31.0,0.0
0.0,-1.0,-23.0,16.0,-5.0,-11.0,-1.0,5.0,-18.0,-23.0,0.0
8.0,-1.0,-15.0,10.0,-1.0,-7.0,4.0,-1.0,-13.0,-5.0,0.0
14.0,-2.0,-13.0,-1.0,7.0,-1.0,10.0,2.0,-6.0,7.0,0.0
7.0,-9.0,0.0,0.0,15.0,-6.0,23.0,1.0,2.0,16.0,0.0
1.0,-14.0,18.0,13.0,9.0,-7.0,18.0,14.0,0.0,6.0,0.0
-4.0,-8.0,21.0,13.0,1.0,0.0,23.0,16.0,-6.0,-4.0,0.0
2.0,7.0,5.0,4.0,9.0,5.0,14.0,9.0,-6.0,-11.0,0.0
12.0,21.0,-5.0,5.0,16.0,5.0,14.0,13.0,-5.0,-19.0,0.0
18.0,16.0,-3.0,-1.0,7.0,-3.0,16.0,7.0,-10.0,-28.0,0.0
27.0,10.0,0.0,-17.0,3.0,-10.0,7.0,6.0,-1.0,-17.0,0.0
30.0,17.0,0.0,-16.0,-1.0,-12.0,2.0,0.0,-4.0,-5.0,0.0
42.0,30.0,14.0,-22.0,2.0,-17.0,-13.0,-8.0,-1.0,1.0,0.0
36.0,21.0,18.0,-20.0,18.0,-16.0,-9.0,-7.0,11.0,-2.0,0.0
28.0,16.0,15.0,-6.0,19.0,-4.0,-2.0,-14.0,10.0,0.0,0.0
16.0,8.0,14.0,1.0,9.0,5.0,-12.0,-19.0,-7.0,-3.0,0.0
5.0,9.0,21.0,-1.0,4.0,18.0,-5.0,-9.0,-16.0,-30.0,0.0
-3.0,3.0,25.0,-9.0,5.0,27.0,-1.0,1.0,0.0,-41.0,0.0
8.0,-3.0,17.0,-17.0,16.0,17.0,5.0,9.0,35.0,-33.0,0.0
14.0,4.0,9.0,-16.0,14.0,14.0,6.0,15.0,46.0,-13.0,0.0
17.0,0.0,8.0,-7.0,7.0,20.0,0.0,18.0,32.0,-23.0,0.0
9.0,-2.0,15.0,-6.0,1.0,27.0,10.0,23.0,35.0,-32.0,0.0
-4.0,-5.0,19.0,-9.0,-1.0,19.0,11.0,28.0,25.0,-45.0,0.0
-16.0,-1.0,28.0,4.0,1.0,17.0,7.0,23.0,0.0,-57.0,0.0
-7.0,23.0,41.0,17.0,10.0,18.0,-9.0,18.0,-8.0,-53.0,0.0
7.0,85.0,58.0,12.0,11.0,10.0,-32.0,11.0,-6.0,-28.0,0.0
6.0,104.0,64.0,11.0,11.0,-2.0,-30.0,-1.0,-8.0,-25.0,0.0
2.0,33.0,51.0,0.0,5.0,-3.0,-26.0,8.0,-8.0,-24.0,0.0
18.0,-10.0,47.0,-1.0,-10.0,-13.0,-31.0,-1.0,-11.0,9.0,0.0
21.0,-28.0,35.0,8.0,-13.0,-3.0,-28.0,-12.0,-7.0,17.0,0.0
-7.0,-68.0,-22.0,3.0,0.0,10.0,-6.0,-4.0,-3.0,-9.0,0.0
-19.0,-134.0,-88.0,-4.0,-3.0,14.0,0.0,1.0,10.0,-15.0,0.0
-14.0,-118.0,-69.0,0.0,-10.0,12.0,-10.0,3.0,2.0,-12.0,0.0
7.0,-63.0,-38.0,-3.0,-16.0,-8.0,-23.0,-2.0,-1.0,11.0,0.0
13.0,-37.0,-22.0,-5.0,-14.0,7.0,-14.0,-6.0,0.0,31.0,0.0
0.0,-34.0,-15.0,-8.0,-3.0,16.0,-7.0,-11.0,10.0,29.0,0.0
-7.0,-35.0,-11.0,-1.0,-2.0,23.0,-8.0,-1.0,8.0,29.0,0.0
0.0,-26.0,3.0,6.0,-9.0,23.0,0.0,14.0,2.0,26.0,0.0
6.0,-26.0,8.0,4.0,-17.0,17.0,-3.0,17.0,3.0,19.0,0.0
10.0,-32.0,-10.0,2.0,-29.0,6.0,0.0,17.0,18.0,19.0,0.0
27.0,-27.0,-4.0,-6.0,-34.0,6.0,-1.0,12.0,21.0,17.0,0.0
38.0,-26.0,11.0,-3.0,-27.0,9.0,-3.0,6.0,8.0,9.0,0.0
28.0,-32.0,7.0,-7.0,-23.0,12.0,-9.0,4.0,5.0,10.0,0.0
7.0,-40.0,3.0,-8.0,-15.0,13.0,-10.0,7.0,-2.0,6.0,0.0
-3.0,-54.0,3.0,-4.0,-22.0,11.0,-6.0,10.0,6.0,7.0,0.0
0.0,-40.0,15.0,-4.0,-26.0,13.0,-18.0,6.0,20.0,15.0,0.0
-20.0,-5.0,32.0,-6.0,-25.0,17.0,-16.0,2.0,22.0,12.0,0.0
-48.0,1.0,39.0,-10.0,-23.0,6.0,-7.0,12.0,14.0,-3.0,0.0
-56.0,-9.0,25.0,-16.0,-22.0,-2.0,-13.0,12.0,0.0,-9.0,0.0
-31.0,-10.0,12.0,-15.0,-19.0,-3.0,-17.0,6.0,5.0,1.0,0.0
-17.0,3.0,18.0,1.0,-16.0,0.0,-10.0,1.0,0.0,-20.0,0.0
-17.0,9.0,31.0,4.0,-16.0,13.0,-17.0,-9.0,-6.0,-49.0,0.0
-3.0,10.0,30.0,-9.0,-14.0,19.0,-24.0,-9.0,-4.0,-33.0,0.0
36.0,5.0,25.0,-31.0,0.0,-2.0,-30.0,-3.0,-12.0,0.0,0.0
68.0,17.0,34.0,-14.0,5.0,-9.0,-22.0,-5.0,-23.0,10.0,0.0
57.0,15.0,35.0,13.0,12.0,6.0,-17.0,3.0,-26.0,1.0,0.0
35.0,6.0,31.0,13.0,11.0,11.0,-10.0,11.0,-20.0,1.0,0.0
20.0,-13.0,32.0,9.0,11.0,11.0,-4.0,12.0,-7.0,20.0,0.0
4.0,-24.0,27.0,4.0,14.0,10.0,11.0,21.0,10.0,25.0,0.0
-15.0,-22.0,20.0,1.0,18.0,13.0,24.0,19.0,23.0,14.0,0.0
-21.0,-35.0,20.0,-1.0,13.0,7.0,17.0,14.0,23.0,-2.0,0.0
-21.0,-36.0,-1.0,-5.0,13.0,8.0,15.0,20.0,23.0,-12.0,0.0
-16.0,-30.0,-30.0,-14.0,10.0,11.0,25.0,19.0,31.0,-14.0,0.0
-15.0,-14.0,-24.0,-29.0,13.0,16.0,19.0,20.0,15.0,-13.0,0.0
-8.0,6.0,-3.0,-29.0,11.0,14.0,27.0,13.0,0.0,-20.0,0.0
-13.0,6.0,9.0,-20.0,8.0,21.0,18.0,4.0,3.0,-22.0,0.0
-13.0,7.0,10.0,-26.0,-2.0,14.0,1.0,-11.0,-2.0,-3.0,0.0
0.0,8.0,-10.0,-29.0,-11.0,-2.0,3.0,-13.0,2.0,30.0,0.0
4.0,5.0,-13.0,-16.0,-18.0,0.0,-8.0,-3.0,5.0,51.0,0.0
3.0,19.0,-10.0,-3.0,-14.0,8.0,-7.0,7.0,10.0,45.0,0.0
8.0,45.0,-5.0,12.0,-5.0,0.0,-3.0,2.0,14.0,34.0,0.0
12.0,57.0,7.0,11.0,4.0,-8.0,-2.0,5.0,18.0,41.0,0.0
16.0,53.0,14.0,15.0,15.0,-11.0,0.0,12.0,22.0,39.0,0.0
30.0,39.0,11.0,12.0,6.0,-2.0,10.0,13.0,24.0,46.0,0.0
44.0,37.0,7.0,7.0,4.0,3.0,9.0,10.0,24.0,73.0,0.0
42.0,34.0,18.0,7.0,-9.0,1.0,4.0,4.0,9.0,61.0,0.0
26.0,34.0,30.0,15.0,-1.0,-1.0,7.0,5.0,9.0,32.0,0.0
9.0,30.0,31.0,9.0,3.0,-2.0,3.0,9.0,11.0,13.0,0.0
4.0,30.0,17.0,-2.0,8.0,7.0,6.0,20.0,13.0,16.0,0.0
-20.0,26.0,12.0,-18.0,11.0,8.0,7.0,19.0,4.0,10.0,0.0
-19.0,30.0,22.0,-34.0,0.0,3.0,5.0,0.0,-10.0,-2.0,0.0
-10.0,25.0,20.0,-41.0,-1.0,1.0,-13.0,-16.0,-12.0,-7.0,0.0
-28.0,5.0,24.0,-43.0,0.0,4.0,-17.0,-23.0,-12.0,-12.0,0.0
-27.0,3.0,37.0,-39.0,-12.0,-6.0,-13.0,-30.0,-14.0,12.0,0.0
-15.0,22.0,34.0,-38.0,-23.0,-11.0,-22.0,-33.0,-9.0,20.0,0.0
-10.0,44.0,36.0,-25.0,-14.0,-5.0,-38.0,-35.0,-7.0,0.0,0.0
-4.0,52.0,43.0,0.0,-13.0,6.0,-31.0,-30.0,-22.0,-5.0,0.0
2.0,38.0,29.0,16.0,-2.0,9.0,-12.0,-21.0,-22.0,2.0,0.0
20.0,23.0,1.0,17.0,4.0,14.0,0.0,-13.0,0.0,13.0,0.0
23.0,-27.0,-21.0,14.0,21.0,29.0,2.0,7.0,19.0,34.0,0.0
10.0,-57.0,-22.0,5.0,16.0,24.0,-15.0,14.0,26.0,49.0,0.0
0.0,-54.0,-1.0,1.0,6.0,22.0,-17.0,9.0,18.0,33.0,0.0
-2.0,-30.0,5.0,-24.0,4.0,14.0,-22.0,9.0,17.0,13.0,0.0
-16.0,-26.0,1.0,-36.0,-5.0,15.0,-25.0,13.0,18.0,13.0,0.0
-14.0,-26.0,0.0,-24.0,0.0,16.0,-31.0,12.0,20.0,14.0,0.0
-5.0,-18.0,10.0,-21.0,11.0,4.0,-35.0,11.0,17.0,7.0,0.0
18.0,-19.0,9.0,-26.0,0.0,7.0,-48.0,0.0,11.0,6.0,0.0
15.0,-27.0,13.0,-21.0,0.0,0.0,-42.0,-17.0,5.0,1.0,0.0
-10.0,-37.0,24.0,-17.0,5.0,8.0,-28.0,-23.0,-3.0,-3.0,0.0
-31.0,-32.0,22.0,-19.0,12.0,18.0,-21.0,-20.0,2.0,-14.0,0.0
-25.0,-13.0,10.0,-15.0,10.0,14.0,-30.0,-3.0,-6.0,-20.0,0.0
-17.0,-7.0,-5.0,-5.0,16.0,10.0,-18.0,0.0,-5.0,-3.0,0.0
-7.0,-1.0,-3.0,1.0,18.0,11.0,-7.0,-12.0,7.0,0.0,0.0
2.0,5.0,0.0,10.0,7.0,16.0,4.0,-3.0,19.0,4.0,0.0
-3.0,1.0,10.0,13.0,11.0,16.0,10.0,5.0,7.0,7.0,0.0
-19.0,0.0,8.0,10.0,20.0,3.0,10.0,9.0,-13.0,-9.0,0.0
-24.0,4.0,-8.0,21.0,25.0,7.0,8.0,13.0,-20.0,-14.0,0.0
-38.0,1.0,-15.0,24.0,32.0,17.0,-2.0,18.0,-17.0,-18.0,0.0
-45.0,-10.0,-24.0,17.0,26.0,24.0,0.0,18.0,-13.0,-20.0,0.0
-33.0,-13.0,-32.0,10.0,21.0,11.0,2.0,19.0,-4.0,-7.0,0.0
-19.0,-15.0,-34.0,9.0,16.0,3.0,2.0,18.0,-8.0,-3.0,0.0
-24.0,-9.0,-24.0,9.0,11.0,-3.0,-1.0,11.0,-9.0,-6.0,0.0
-22.0,-24.0,-19.0,5.0,1.0,5.0,-8.0,12.0,-12.0,-5.0,0.0
-16.0,-14.0,-24.0,17.0,0.0,2.0,-3.0,10.0,-9.0,-6.0,0.0
-13.0,39.0,-3.0,13.0,-8.0,3.0,-4.0,9.0,-2.0,2.0,0.0
5.0,105.0,37.0,22.0,-8.0,-1.0,-13.0,10.0,-6.0,14.0,0.0
12.0,104.0,46.0,35.0,-4.0,-9.0,-18.0,8.0,-9.0,15.0,0.0
7.0,69.0,31.0,28.0,-3.0,-3.0,-9.0,3.0,-12.0,10.0,0.0
-4.0,29.0,25.0,18.0,-10.0,2.0,-4.0,0.0,-19.0,6.0,0.0
-15.0,-22.0,-8.0,6.0,-8.0,0.0,-8.0,6.0,-12.0,11.0,0.0
-20.0,-91.0,-94.0,-9.0,2.0,2.0,5.0,24.0,12.0,11.0,0.0
-25.0,-125.0,-134.0,-7.0,10.0,15.0,28.0,42.0,18.0,6.0,0.0
-26.0,-72.0,-88.0,7.0,2.0,21.0,28.0,38.0,10.0,-2.0,0.0
-20.0,-27.0,-48.0,16.0,3.0,26.0,27.0,34.0,12.0,-5.0,0.0
-2.0,7.0,-49.0,19.0,6.0,13.0,16.0,27.0,9.0,-20.0,0.0
18.0,33.0,-34.0,7.0,5.0,6.0,9.0,26.0,11.0,-18.0,0.0
18.0,23.0,-33.0,-16.0,1.0,0.0,-8.0,15.0,10.0,-14.0,0.0
13.0,6.0,-27.0,-18.0,0.0,1.0,1.0,6.0,-5.0,-24.0,0.0
9.0,20.0,-7.0,-16.0,0.0,-2.0,29.0,13.0,-5.0,-36.0,0.0
9.0,44.0,14.0,-11.0,-3.0,0.0,18.0,22.0,1.0,-35.0,0.0
9.0,36.0,13.0,-7.0,6.0,2.0,-9.0,7.0,4.0,-34.0,0.0
18.0,21.0,0.0,-9.0,12.0,-6.0,-13.0,-9.0,-1.0,-35.0,0.0
14.0,5.0,-7.0,-9.0,2.0,-11.0,-13.0,-1.0,-17.0,-31.0,0.0
6.0,-13.0,-12.0,-3.0,-3.0,-12.0,-19.0,-4.0,-31.0,-41.0,0.0
-16.0,-37.0,-19.0,-5.0,6.0,-19.0,-16.0,6.0,-28.0,-45.0,0.0
-23.0,-58.0,-23.0,5.0,11.0,-12.0,-11.0,14.0,-15.0,-37.0,0.0
4.0,-57.0,-27.0,1.0,2.0,-8.0,-10.0,18.0,-7.0,9.0,0.0
23.0,-42.0,-35.0,1.0,7.0,0.0,-4.0,17.0,-8.0,40.0,0.0
3.0,-20.0,-35.0,-8.0,10.0,13.0,3.0,24.0,-13.0,38.0,0.0
-11.0,0.0,-14.0,-24.0,10.0,9.0,-5.0,17.0,-24.0,16.0,0.0
0.0,9.0,13.0,-18.0,8.0,13.0,-10.0,13.0,-30.0,-6.0,0.0
0.0,1.0,8.0,-15.0,-1.0,6.0,-13.0,12.0,-28.0,-3.0,0.0
0.0,0.0,11.0,-9.0,-3.0,-1.0,-5.0,10.0,-17.0,-1.0,0.0
-4.0,8.0,0.0,-12.0,-5.0,-4.0,0.0,4.0,-14.0,-10.0,0.0
-17.0,12.0,-18.0,-8.0,-1.0,-2.0,0.0,-8.0,-1.0,-27.0,0.0
-27.0,-3.0,-8.0,15.0,9.0,0.0,-2.0,-20.0,-7.0,-55.0,0.0
-27.0,-2.0,-2.0,20.0,15.0,-4.0,-5.0,-20.0,-17.0,-63.0,0.0
-13.0,3.0,-5.0,0.0,11.0,-9.0,-5.0,-19.0,-22.0,-29.0,0.0
8.0,0.0,-6.0,-5.0,-5.0,-11.0,-18.0,-21.0,-13.0,10.0,0.0
38.0,-9.0,-5.0,-3.0,-2.0,-12.0,-13.0,-19.0,-9.0,19.0,0.0
35.0,-18.0,-30.0,5.0,0.0,-22.0,-15.0,-21.0,-18.0,15.0,0.0
9.0,-12.0,-39.0,12.0,-3.0,-18.0,-12.0,-4.0,-13.0,11.0,0.0
-5.0,-5.0,-28.0,12.0,9.0,-18.0,-8.0,4.0,0.0,10.0,0.0
11.0,4.0,-22.0,9.0,6.0,-14.0,-1.0,-7.0,4.0,6.0,0.0
31.0,15.0,-26.0,8.0,-13.0,-3.0,-8.0,-13.0,5.0,26.0,0.0
42.0,21.0,-23.0,-9.0,-25.0,-12.0,-8.0,-12.0,14.0,58.0,0.0
42.0,36.0,-18.0,-9.0,-13.0,-15.0,3.0,-6.0,18.0,55.0,0.0
36.0,44.0,-16.0,-4.0,-5.0,-13.0,11.0,-3.0,15.0,19.0,0.0
35.0,47.0,-5.0,-3.0,-8.0,-20.0,9.0,-12.0,3.0,-4.0,0.0
29.0,45.0,10.0,-6.0,-9.0,-17.0,1.0,-14.0,-2.0,-5.0,0.0
32.0,45.0,16.0,5.0,-8.0,-17.0,-8.0,-9.0,0.0,0.0,0.0
30.0,58.0,14.0,10.0,8.0,-16.0,-19.0,-8.0,-3.0,5.0,0.0
20.0,39.0,7.0,6.0,-2.0,-11.0,-12.0,-25.0,-11.0,10.0,0.0
23.0,10.0,6.0,0.0,-16.0,-20.0,-21.0,-32.0,-3.0,39.0,0.0
24.0,2.0,-12.0,19.0,-5.0,-23.0,-23.0,-21.0,6.0,60.0,0.0
5.0,-3.0,-22.0,27.0,-5.0,-16.0,-12.0,-13.0,10.0,47.0,0.0
-12.0,-12.0,-28.0,31.0,-12.0,-10.0,-5.0,4.0,3.0,17.0,0.0
-14.0,-17.0,-30.0,35.0,-5.0,2.0,3.0,17.0,2.0,-3.0,0.0
-15.0,-15.0,-15.0,39.0,-1.0,5.0,18.0,7.0,-1.0,-9.0,0.0
-22.0,-9.0,-16.0,36.0,1.0,13.0,29.0,1.0,-5.0,-26.0,0.0
-30.0,-2.0,-13.0,29.0,2.0,16.0,21.0,7.0,-19.0,-48.0,0.0
-34.0,-4.0,-3.0,28.0,8.0,9.0,24.0,13.0,-23.0,-47.0,0.0
-32.0,-7.0,11.0,21.0,4.0,6.0,42.0,10.0,-17.0,-39.0,0.0
-31.0,2.0,1.0,28.0,12.0,6.0,32.0,5.0,-5.0,-22.0,0.0
-16.0,0.0,0.0,16.0,23.0,-2.0,26.0,3.0,0.0,-5.0,0.0
-1.0,-8.0,1.0,10.0,22.0,-1.0,20.0,10.0,-4.0,5.0,0.0
17.0,5.0,5.0,9.0,11.0,-4.0,18.0,7.0,-7.0,14.0,0.0
18.0,15.0,2.0,12.0,11.0,-8.0,10.0,2.0,-5.0,32.0,0.0
4.0,16.0,11.0,18.0,25.0,-11.0,7.0,-2.0,-8.0,31.0,0.0
-6.0,11.0,6.0,17.0,22.0,0.0,12.0,-4.0,-4.0,23.0,0.0
-9.0,12.0,-17.0,21.0,14.0,0.0,12.0,-9.0,-3.0,17.0,0.0
-8.0,14.0,-14.0,10.0,-3.0,-4.0,7.0,-5.0,-11.0,8.0,0.0
-2.0,12.0,-1.0,3.0,-6.0,-12.0,11.0,0.0,-12.0,-1.0,0.0
-13.0,-3.0,2.0,4.0,-7.0,-8.0,6.0,9.0,-10.0,-5.0,0.0
-29.0,-8.0,2.0,1.0,5.0,2.0,-4.0,6.0,-21.0,-16.0,0.0
-22.0,-1.0,5.0,6.0,8.0,-5.0,-6.0,-12.0,-18.0,-17.0,0.0
3.0,1.0,2.0,16.0,3.0,-10.0,-2.0,-27.0,-10.0,-3.0,0.0
31.0,8.0,0.0,10.0,-9.0,-13.0,4.0,-27.0,-7.0,-8.0,0.0
17.0,-6.0,4.0,0.0,-4.0,-14.0,3.0,-28.0,9.0,-14.0,0.0
21.0,-4.0,3.0,0.0,2.0,-21.0,-7.0,-26.0,15.0,3.0,0.0
35.0,0.0,-3.0,-4.0,1.0,-28.0,-17.0,-6.0,6.0,13.0,0.0
36.0,10.0,7.0,-4.0,-7.0,-13.0,-21.0,0.0,3.0,17.0,0.0
38.0,13.0,-1.0,-10.0,-12.0,-7.0,-4.0,-1.0,-3.0,21.0,0.0
46.0,17.0,-15.0,-12.0,-14.0,-5.0,1.0,8.0,13.0,27.0,0.0
28.0,4.0,-13.0,-16.0,-5.0,-16.0,-5.0,4.0,18.0,25.0,0.0
8.0,-10.0,-15.0,-15.0,9.0,-18.0,-8.0,0.0,7.0,14.0,0.0
-2.0,-17.0,-26.0,-18.0,4.0,-10.0,-8.0,-5.0,8.0,9.0,0.0
-16.0,-28.0,-35.0,-12.0,1.0,-12.0,-10.0,-3.0,22.0,2.0,0.0
-15.0,-27.0,-28.0,0.0,10.0,-12.0,-9.0,-14.0,12.0,4.0,0.0
-2.0,-18.0,-6.0,1.0,6.0,-11.0,-18.0,-27.0,-8.0,11.0,0.0
-5.0,-9.0,7.0,-4.0,-4.0,-15.0,-35.0,-31.0,-10.0,7.0,0.0
-4.0,-12.0,4.0,-5.0,-5.0,-20.0,-40.0,-22.0,-6.0,7.0,0.0
6.0,-2.0,8.0,-5.0,-3.0,-19.0,-45.0,-21.0,-4.0,16.0,0.0
8.0,0.0,12.0,-2.0,-1.0,-7.0,-32.0,-4.0,-17.0,17.0,0.0
9.0,-6.0,18.0,3.0,-5.0,0.0,-25.0,-5.0,-20.0,13.0,0.0
12.0,-2.0,1.0,0.0,-3.0,-2.0,-20.0,-10.0,-20.0,2.0,0.0
14.0,4.0,-12.0,-7.0,3.0,1.0,-19.0,0.0,-14.0,-14.0,0.0
8.0,0.0,-18.0,-18.0,0.0,12.0,-11.0,3.0,0.0,-17.0,0.0
-1.0,-2.0,-12.0,-21.0,9.0,20.0,8.0,0.0,-4.0,-18.0,0.0
-22.0,2.0,-8.0,-12.0,14.0,22.0,23.0,-6.0,-10.0,-28.0,0.0
-27.0,12.0,-8.0,-10.0,17.0,25.0,12.0,-12.0,-12.0,-29.0,0.0
-35.0,15.0,7.0,-8.0,15.0,21.0,1.0,-11.0,-16.0,-25.0,0.0
-42.0,15.0,2.0,-2.0,4.0,21.0,-10.0,-13.0,-22.0,-29.0,0.0
-33.0,7.0,8.0,2.0,-5.0,17.0,-16.0,-14.0,-15.0,-33.0,0.0
-22.0,6.0,-1.0,10.0,-1.0,19.0,-6.0,-19.0,-10.0,-24.0,0.0
-21.0,-6.0,-19.0,2.0,-9.0,13.0,1.0,-23.0,-4.0,-18.0,0.0
-21.0,-23.0,-26.0,-4.0,-13.0,7.0,2.0,-22.0,-8.0,-8.0,0.0
-21.0,-2.0,-11.0,-6.0,-5.0,0.0,5.0,-2.0,-9.0,0.0,0.0
-30.0,47.0,18.0,8.0,-6.0,-5.0,-3.0,0.0,-5.0,-13.0,0.0
-33.0,48.0,39.0,11.0,-3.0,-8.0,-17.0,-8.0,-19.0,-27.0,0.0
-21.0,29.0,40.0,15.0,-3.0,-8.0,-15.0,-19.0,-11.0,-22.0,0.0
-3.0,16.0,33.0,11.0,-16.0,-5.0,-6.0,-17.0,0.0,-12.0,0.0
12.0,0.0,27.0,0.0,-17.0,-4.0,5.0,-11.0,2.0,-13.0,0.0
19.0,-35.0,-30.0,-10.0,-5.0,5.0,27.0,-5.0,13.0,-13.0,0.0
5.0,-77.0,-90.0,-16.0,5.0,21.0,29.0,1.0,13.0,-9.0,0.0
-14.0,-67.0,-70.0,-6.0,6.0,28.0,19.0,10.0,2.0,-20.0,0.0
-11.0,-33.0,-27.0,-5.0,13.0,28.0,24.0,-4.0,-3.0,-33.0,0.0
-1.0,-16.0,-5.0,-13.0,14.0,23.0,21.0,-6.0,-6.0,-38.0,0.0
-13.0,-17.0,3.0,-10.0,7.0,16.0,16.0,5.0,-10.0,-51.0,0.0
-26.0,-14.0,4.0,-1.0,0.0,9.0,9.0,-8.0,-9.0,-64.0,0.0
-29.0,-23.0,-2.0,-4.0,0.0,3.0,6.0,-11.0,-5.0,-70.0,0.0
-20.0,-23.0,-10.0,-5.0,-6.0,-5.0,13.0,-12.0,-16.0,-64.0,0.0
0.0,-15.0,-9.0,-23.0,-7.0,-14.0,10.0,-15.0,-14.0,-37.0,0.0
16.0,-8.0,-2.0,-35.0,-10.0,-18.0,-4.0,-24.0,0.0,14.0,0.0
43.0,-14.0,-8.0,-37.0,-7.0,-4.0,-12.0,-16.0,4.0,55.0,0.0
92.0,3.0,-7.0,-38.0,-10.0,0.0,-16.0,-17.0,10.0,89.0,0.0
84.0,25.0,0.0,-28.0,-5.0,-2.0,-6.0,-27.0,27.0,101.0,0.0
51.0,27.0,7.0,-18.0,-1.0,3.0,3.0,-17.0,23.0,70.0,0.0
37.0,33.0,23.0,-15.0,0.0,12.0,4.0,-11.0,8.0,25.0,0.0
19.0,28.0,27.0,-13.0,2.0,7.0,6.0,-25.0,-5.0,-2.0,0.0
-2.0,9.0,23.0,-16.0,-1.0,11.0,4.0,-26.0,-1.0,-15.0,0.0
-13.0,-9.0,15.0,-12.0,0.0,17.0,15.0,-20.0,-8.0,-15.0,0.0
-12.0,-8.0,0.0,-14.0,-6.0,6.0,24.0,-23.0,-5.0,8.0,0.0
2.0,-10.0,0.0,-9.0,-16.0,3.0,3.0,-25.0,-1.0,23.0,0.0
1.0,-5.0,20.0,-3.0,-15.0,0.0,-8.0,-20.0,-4.0,28.0,0.0
0.0,-15.0,28.0,8.0,-8.0,6.0,6.0,-7.0,-1.0,19.0,0.0
-6.0,-7.0,23.0,0.0,-10.0,12.0,26.0,-9.0,-3.0,7.0,0.0
-12.0,-5.0,23.0,-10.0,-3.0,-1.0,32.0,-8.0,0.0,9.0,0.0
-5.0,-11.0,27.0,-19.0,0.0,3.0,20.0,-6.0,2.0,13.0,0.0
-11.0,-6.0,30.0,-19.0,7.0,-3.0,33.0,-11.0,0.0,3.0,0.0
-22.0,16.0,31.0,-13.0,0.0,-11.0,18.0,-18.0,-3.0,-1.0,0.0
-13.0,44.0,45.0,2.0,-10.0,-12.0,-12.0,-15.0,-9.0,-6.0,0.0
-4.0,53.0,49.0,25.0,-11.0,-14.0,-8.0,0.0,-9.0,-15.0,0.0
-2.0,47.0,38.0,36.0,-14.0,-2.0,5.0,3.0,-17.0,-15.0,0.0
3.0,38.0,35.0,34.0,-8.0,6.0,7.0,5.0,-9.0,-8.0,0.0
1.0,32.0,26.0,29.0,0.0,9.0,0.0,12.0,-2.0,-3.0,0.0
0.0,17.0,18.0,22.0,2.0,18.0,-10.0,10.0,-9.0,-25.0,0.0
-4.0,12.0,16.0,-3.0,0.0,8.0,-1.0,15.0,-14.0,-27.0,0.0
5.0,11.0,19.0,-14.0,-11.0,4.0,7.0,8.0,-1.0,-19.0,0.0
15.0,19.0,9.0,-16.0,-22.0,0.0,0.0,4.0,12.0,9.0,0.0
19.0,20.0,6.0,-20.0,-27.0,-14.0,-4.0,3.0,12.0,25.0,0.0
11.0,12.0,5.0,-3.0,-31.0,-16.0,-4.0,0.0,5.0,24.0,0.0
0.0,12.0,2.0,11.0,-29.0,-8.0,-2.0,17.0,2.0,16.0,0.0
-5.0,9.0,1.0,8.0,-23.0,-6.0,0.0,16.0,0.0,5.0,0.0
2.0,10.0,6.0,14.0,-17.0,-7.0,-8.0,-2.0,-3.0,-5.0,0.0
7.0,-2.0,22.0,22.0,-13.0,-1.0,-11.0,1.0,6.0,-5.0,0.0
5.0,1.0,21.0,14.0,-18.0,0.0,-10.0,-3.0,11.0,-14.0,0.0
-6.0,13.0,4.0,5.0,-30.0,-9.0,-6.0,-3.0,19.0,-16.0,0.0
-17.0,2.0,-14.0,11.0,-24.0,-13.0,5.0,0.0,16.0,-19.0,0.0
-13.0,-7.0,-9.0,18.0,-18.0,-4.0,17.0,0.0,13.0,-18.0,0.0
-17.0,-18.0,-11.0,17.0,-14.0,-5.0,4.0,-6.0,4.0,-32.0,0.0
-8.0,-12.0,-21.0,8.0,-21.0,0.0,-1.0,-4.0,5.0,-17.0,0.0
9.0,-8.0,-22.0,12.0,-20.0,4.0,6.0,0.0,11.0,10.0,0.0
22.0,-22.0,-32.0,13.0,-18.0,1.0,12.0,-4.0,9.0,40.0,0.0
14.0,-25.0,-28.0,10.0,-12.0,-5.0,23.0,-4.0,11.0,54.0,0.0
6.0,-18.0,-13.0,13.0,0.0,-4.0,36.0,0.0,10.0,32.0,0.0
-12.0,-18.0,-1.0,18.0,0.0,-4.0,35.0,8.0,11.0,7.0,0.0
-40.0,-26.0,-8.0,16.0,-8.0,1.0,21.0,12.0,7.0,-19.0,0.0
-39.0,-23.0,-6.0,11.0,-11.0,5.0,11.0,23.0,-5.0,-26.0,0.0
-33.0,0.0,10.0,2.0,-21.0,4.0,-2.0,23.0,-20.0,-21.0,0.0
-28.0,7.0,22.0,-2.0,-20.0,0.0,-7.0,12.0,-12.0,-12.0,0.0
-24.0,4.0,0.0,-14.0,-24.0,-8.0,-5.0,4.0,-5.0,5.0,0.0
-10.0,1.0,-11.0,-6.0,-23.0,-11.0,-6.0,1.0,-6.0,12.0,0.0
5.0,-4.0,-21.0,0.0,-13.0,-22.0,-6.0,10.0,-2.0,21.0,0.0
2.0,1.0,-29.0,6.0,-8.0,-22.0,2.0,11.0,0.0,21.0,0.0
-1.0,11.0,-33.0,9.0,-9.0,-19.0,2.0,10.0,-2.0,16.0,0.0
0.0,14.0,-18.0,18.0,-7.0,-15.0,5.0,23.0,1.0,28.0,0.0
-1.0,30.0,-10.0,21.0,-4.0,0.0,15.0,27.0,15.0,44.0,0.0
5.0,43.0,-18.0,20.0,-1.0,3.0,11.0,25.0,27.0,37.0,0.0
25.0,36.0,-18.0,21.0,9.0,8.0,17.0,17.0,28.0,22.0,0.0
21.0,21.0,-18.0,25.0,17.0,0.0,28.0,6.0,12.0,8.0,0.0
4.0,28.0,-7.0,26.0,14.0,-4.0,24.0,7.0,-7.0,-6.0,0.0
15.0,18.0,-4.0,21.0,12.0,-6.0,18.0,3.0,-16.0,-9.0,0.0
41.0,17.0,-12.0,11.0,16.0,-13.0,7.0,-1.0,-15.0,9.0,0.0
48.0,9.0,-19.0,-7.0,9.0,-20.0,-1.0,9.0,-21.0,17.0,0.0
36.0,18.0,-10.0,-17.0,-3.0,-16.0,7.0,2.0,-16.0,3.0,0.0
37.0,60.0,18.0,-5.0,-1.0,-15.0,15.0,5.0,-5.0,2.0,0.0
21.0,46.0,40.0,0.0,-1.0,-17.0,3.0,8.0,-8.0,-2.0,0.0
-1.0,8.0,44.0,4.0,5.0,-21.0,6.0,-2.0,-17.0,-9.0,0.0
-7.0,4.0,34.0,16.0,8.0,-16.0,1.0,-6.0,-30.0,-9.0,0.0
-13.0,27.0,17.0,26.0,4.0,-2.0,-8.0,-1.0,-35.0,-15.0,0.0
-5.0,-3.0,-26.0,18.0,14.0,0.0,-4.0,8.0,-18.0,7.0,0.0
-7.0,-59.0,-75.0,14.0,22.0,11.0,15.0,7.0,-1.0,17.0,0.0
-24.0,-56.0,-58.0,20.0,23.0,18.0,17.0,3.0,-5.0,1.0,0.0
-18.0,-28.0,-30.0,14.0,22.0,20.0,8.0,17.0,-2.0,-8.0,0.0
-12.0,-14.0,-21.0,2.0,23.0,16.0,17.0,22.0,-5.0,-5.0,0.0
-13.0,-15.0,-13.0,-1.0,13.0,18.0,20.0,17.0,-3.0,-1.0,0.0
-11.0,-13.0,-10.0,-24.0,8.0,15.0,26.0,5.0,3.0,1.0,0.0
-21.0,-15.0,-22.0,-29.0,10.0,3.0,28.0,5.0,15.0,-3.0,0.0
-24.0,-21.0,-25.0,-32.0,6.0,0.0,15.0,3.0,20.0,-5.0,0.0
-9.0,-19.0,-22.0,-34.0,10.0,-3.0,10.0,-9.0,16.0,-7.0,0.0
9.0,-11.0,-14.0,-27.0,4.0,-11.0,10.0,-11.0,20.0,-1.0,0.0
25.0,-4.0,-15.0,-30.0,15.0,-7.0,17.0,4.0,30.0,4.0,0.0
18.0,2.0,-12.0,-41.0,9.0,5.0,15.0,1.0,30.0,18.0,0.0
12.0,0.0,-10.0,-38.0,0.0,1.0,9.0,-6.0,37.0,18.0,0.0
20.0,16.0,-7.0,-31.0,-6.0,-2.0,10.0,-16.0,35.0,7.0,0.0
27.0,12.0,-6.0,-16.0,-14.0,-2.0,1.0,-25.0,29.0,11.0,0.0
30.0,1.0,4.0,-1.0,-9.0,-9.0,-15.0,-15.0,33.0,7.0,0.0
29.0,0.0,3.0,0.0,-4.0,2.0,-11.0,-19.0,36.0,-3.0,0.0
22.0,-7.0,-2.0,0.0,-7.0,0.0,1.0,-13.0,39.0,0.0,0.0
9.0,-16.0,0.0,4.0,-2.0,-10.0,-6.0,-8.0,29.0,0.0,0.0
4.0,-23.0,9.0,9.0,8.0,-6.0,2.0,0.0,25.0,-10.0,0.0
-10.0,-14.0,26.0,11.0,9.0,-1.0,13.0,8.0,23.0,-24.0,0.0
-13.0,-7.0,30.0,10.0,4.0,8.0,14.0,2.0,30.0,-36.0,0.0
-17.0,1.0,23.0,11.0,2.0,13.0,21.0,13.0,25.0,-42.0,0.0
-20.0,9.0,26.0,9.0,7.0,3.0,18.0,20.0,15.0,-42.0,0.0
-17.0,4.0,23.0,12.0,14.0,3.0,14.0,18.0,15.0,-27.0,0.0
4.0,5.0,9.0,11.0,13.0,0.0,9.0,16.0,6.0,6.0,0.0
40.0,7.0,4.0,7.0,11.0,-8.0,0.0,14.0,0.0,49.0,0.0
57.0,13.0,23.0,5.0,7.0,-21.0,-10.0,7.0,-7.0,58.0,0.0
31.0,17.0,50.0,9.0,3.0,-12.0,-7.0,5.0,-28.0,29.0,0.0
18.0,11.0,41.0,18.0,0.0,-4.0,-7.0,12.0,-30.0,6.0,0.0
15.0,-4.0,29.0,19.0,-6.0,-10.0,4.0,18.0,-22.0,-6.0,0.0
-2.0,-5.0,41.0,8.0,-4.0,-3.0,6.0,18.0,-21.0,-7.0,0.0
-5.0,11.0,38.0,2.0,-7.0,-1.0,-11.0,7.0,-25.0,-19.0,0.0
0.0,6.0,13.0,0.0,-6.0,0.0,0.0,11.0,-25.0,-20.0,0.0
-2.0,1.0,17.0,1.0,-1.0,-3.0,16.0,22.0,-7.0,-13.0,0.0
-1.0,10.0,37.0,0.0,-8.0,-9.0,11.0,16.0,-7.0,-12.0,0.0
-9.0,14.0,27.0,4.0,-3.0,-2.0,17.0,12.0,-9.0,-18.0,0.0
-12.0,14.0,18.0,0.0,1.0,-1.0,1.0,8.0,-18.0,-35.0,0.0
-12.0,14.0,25.0,-7.0,-8.0,1.0,-7.0,2.0,-19.0,-37.0,0.0
3.0,36.0,32.0,-5.0,-5.0,5.0,-11.0,8.0,-9.0,-19.0,0.0
0.0,71.0,32.0,2.0,0.0,-6.0,-23.0,-7.0,-9.0,-12.0,0.0
6.0,62.0,31.0,7.0,-5.0,-5.0,-27.0,-6.0,-17.0,-14.0,0.0
10.0,34.0,15.0,-5.0,0.0,-4.0,-6.0,4.0,-27.0,-9.0,0.0
-7.0,-14.0,-6.0,-21.0,4.0,2.0,4.0,12.0,-23.0,-2.0,0.0
-10.0,-67.0,-26.0,-21.0,7.0,19.0,10.0,21.0,-3.0,-3.0,0.0
-16.0,-94.0,-49.0,-28.0,6.0,18.0,5.0,14.0,13.0,-3.0,0.0
-3.0,-92.0,-43.0,-22.0,-3.0,11.0,-4.0,2.0,9.0,-11.0,0.0
2.0,-57.0,-26.0,-25.0,-6.0,2.0,-7.0,4.0,9.0,-29.0,0.0
-2.0,-37.0,-29.0,-24.0,-10.0,-5.0,1.0,9.0,3.0,-37.0,0.0
-6.0,-25.0,-26.0,-36.0,-11.0,-8.0,-2.0,6.0,6.0,-18.0,0.0
37.0,-17.0,-28.0,-32.0,-18.0,-21.0,-9.0,-8.0,13.0,28.0,0.0
80.0,-16.0,-23.0,-16.0,-9.0,-32.0,-6.0,-16.0,20.0,83.0,0.0
53.0,-25.0,-14.0,-17.0,-14.0,-18.0,7.0,3.0,32.0,101.0,0.0
13.0,-31.0,-6.0,-18.0,-5.0,-5.0,18.0,14.0,32.0,67.0,0.0
-2.0,-24.0,-8.0,-16.0,2.0,2.0,5.0,13.0,26.0,38.0,0.0
-6.0,-11.0,-15.0,-10.0,-6.0,0.0,-2.0,5.0,19.0,8.0,0.0
5.0,0.0,-13.0,-17.0,-7.0,-4.0,5.0,3.0,18.0,0.0,0.0
11.0,23.0,-5.0,-17.0,-1.0,-9.0,7.0,3.0,15.0,8.0,0.0
30.0,51.0,-5.0,-15.0,1.0,-12.0,-3.0,-4.0,9.0,6.0,0.0
46.0,54.0,8.0,-15.0,9.0,-18.0,0.0,-1.0,15.0,6.0,0.0
53.0,36.0,15.0,-9.0,2.0,-15.0,-9.0,-2.0,29.0,25.0,0.0
47.0,21.0,8.0,-20.0,-8.0,-7.0,-28.0,-9.0,20.0,28.0,0.0
29.0,25.0,-2.0,-25.0,-1.0,0.0,-17.0,-20.0,28.0,28.0,0.0
5.0,3.0,0.0,-15.0,-10.0,4.0,-16.0,-14.0,39.0,27.0,0.0
-6.0,-26.0,-16.0,4.0,-13.0,3.0,-20.0,-14.0,25.0,11.0,0.0
-6.0,-21.0,-18.0,11.0,-12.0,7.0,-8.0,-21.0,13.0,5.0,0.0
8.0,-11.0,-10.0,6.0,-14.0,6.0,-2.0,-17.0,9.0,11.0,0.0
6.0,20.0,11.0,-3.0,-15.0,-1.0,3.0,-16.0,12.0,5.0,0.0
-5.0,53.0,33.0,-24.0,-2.0,10.0,2.0,-4.0,19.0,0.0,0.0
-13.0,31.0,50.0,-16.0,4.0,26.0,6.0,-4.0,14.0,0.0,0.0
-7.0,20.0,38.0,-25.0,1.0,27.0,18.0,-5.0,14.0,0.0,0.0
-3.0,19.0,34.0,-23.0,9.0,12.0,26.0,-7.0,4.0,-3.0,0.0
2.0,-6.0,1.0,-16.0,5.0,12.0,20.0,-19.0,-1.0,-17.0,0.0
4.0,-54.0,-61.0,-21.0,13.0,35.0,18.0,-8.0,6.0,-11.0,0.0
-10.0,-87.0,-89.0,-23.0,17.0,37.0,27.0,-6.0,13.0,-10.0,0.0
-11.0,-59.0,-50.0,-18.0,11.0,26.0,22.0,1.0,1.0,-12.0,0.0
-18.0,-32.0,-26.0,-15.0,8.0,5.0,14.0,4.0,-1.0,-16.0,0.0
-32.0,-31.0,-16.0,-11.0,3.0,9.0,15.0,-1.0,5.0,-30.0,0.0
-36.0,-28.0,-16.0,-7.0,-3.0,-1.0,3.0,-5.0,-3.0,-24.0,0.0
-27.0,-19.0,-8.0,-7.0,0.0,-3.0,-7.0,-15.0,0.0,-14.0,0.0
-19.0,-11.0,10.0,0.0,5.0,-1.0,-14.0,-9.0,6.0,7.0,0.0
-6.0,-21.0,9.0,5.0,0.0,3.0,-7.0,-10.0,7.0,14.0,0.0
-8.0,-31.0,0.0,-3.0,-8.0,7.0,2.0,-7.0,2.0,8.0,0.0
-14.0,-17.0,-1.0,5.0,4.0,6.0,-9.0,-10.0,3.0,-1.0,0.0
-7.0,-15.0,17.0,11.0,9.0,-5.0,-10.0,-15.0,1.0,-20.0,0.0
-1.0,-6.0,29.0,12.0,0.0,2.0,-1.0,-7.0,-4.0,-14.0,0.0
11.0,-5.0,22.0,2.0,5.0,8.0,-8.0,6.0,-8.0,-7.0,0.0
30.0,5.0,43.0,-6.0,7.0,-4.0,-23.0,3.0,-7.0,1.0,0.0
22.0,2.0,46.0,-8.0,14.0,-7.0,-26.0,-4.0,-12.0,0.0,0.0
23.0,0.0,36.0,1.0,14.0,-11.0,-22.0,-9.0,-1.0,4.0,0.0
18.0,6.0,20.0,7.0,7.0,-18.0,-15.0,3.0,11.0,26.0,0.0
28.0,5.0,16.0,10.0,-5.0,-19.0,-11.0,11.0,14.0,45.0,0.0
35.0,4.0,12.0,14.0,0.0,-18.0,-9.0,8.0,9.0,41.0,0.0
14.0,-8.0,14.0,4.0,1.0,-13.0,-6.0,5.0,3.0,16.0,0.0
-4.0,-34.0,14.0,4.0,1.0,-6.0,10.0,9.0,0.0,-13.0,0.0
-22.0,-38.0,13.0,6.0,5.0,2.0,16.0,14.0,-2.0,-30.0,0.0
-25.0,-22.0,21.0,16.0,5.0,-3.0,1.0,0.0,-14.0,-25.0,0.0
-19.0,-10.0,24.0,12.0,7.0,2.0,-5.0,-9.0,-14.0,-23.0,0.0
-22.0,-5.0,15.0,-2.0,12.0,5.0,-3.0,2.0,-4.0,-31.0,0.0
-20.0,-13.0,9.0,3.0,15.0,5.0,-5.0,10.0,2.0,-29.0,0.0
-15.0,-22.0,1.0,8.0,11.0,1.0,-2.0,9.0,-7.0,-12.0,0.0
-16.0,-17.0,6.0,5.0,9.0,0.0,9.0,5.0,0.0,-13.0,0.0
0.0,-20.0,2.0,10.0,6.0,11.0,11.0,11.0,6.0,21.0,0.0
29.0,-8.0,6.0,13.0,5.0,18.0,15.0,12.0,8.0,46.0,0.0
31.0,1.0,14.0,27.0,11.0,21.0,15.0,14.0,14.0,53.0,0.0
19.0,-3.0,14.0,26.0,11.0,21.0,15.0,15.0,13.0,27.0,0.0
-4.0,-3.0,11.0,23.0,15.0,22.0,25.0,10.0,17.0,2.0,0.0
-19.0,13.0,28.0,32.0,15.0,20.0,4.0,0.0,7.0,-7.0,0.0
-19.0,33.0,44.0,39.0,15.0,13.0,2.0,-14.0,-3.0,-5.0,0.0
-10.0,31.0,28.0,28.0,16.0,19.0,5.0,-11.0,1.0,-7.0,0.0
0.0,30.0,35.0,29.0,8.0,16.0,-6.0,-17.0,1.0,-12.0,0.0
-1.0,36.0,42.0,27.0,11.0,7.0,-15.0,-13.0,0.0,-3.0,0.0
0.0,26.0,46.0,23.0,14.0,2.0,-25.0,-13.0,3.0,15.0,0.0
-4.0,19.0,49.0,15.0,14.0,8.0,-33.0,-19.0,0.0,-5.0,0.0
-11.0,16.0,33.0,17.0,6.0,19.0,-22.0,-11.0,-5.0,-28.0,0.0
-24.0,12.0,21.0,19.0,3.0,19.0,-11.0,-12.0,-9.0,-30.0,0.0
-27.0,3.0,21.0,12.0,17.0,24.0,13.0,-11.0,9.0,-21.0,0.0
-26.0,-2.0,12.0,9.0,21.0,26.0,12.0,-8.0,13.0,-21.0,0.0
-29.0,3.0,12.0,7.0,16.0,26.0,13.0,2.0,9.0,-25.0,0.0
-13.0,10.0,9.0,2.0,5.0,11.0,10.0,11.0,13.0,-6.0,0.0
6.0,12.0,7.0,3.0,-8.0,7.0,8.0,7.0,12.0,11.0,0.0
-2.0,0.0,12.0,9.0,-6.0,12.0,6.0,-4.0,0.0,2.0,0.0
1.0,-2.0,9.0,12.0,-11.0,21.0,-7.0,-10.0,-20.0,8.0,0.0
10.0,6.0,5.0,20.0,-16.0,10.0,-16.0,-7.0,-16.0,9.0,0.0
5.0,-3.0,11.0,1.0,-9.0,3.0,4.0,-8.0,-4.0,-3.0,0.0
0.0,-21.0,20.0,-23.0,-10.0,2.0,0.0,-11.0,-5.0,-5.0,0.0
0.0,-27.0,23.0,-31.0,-6.0,2.0,-10.0,-8.0,-6.0,-15.0,0.0
-13.0,-34.0,17.0,-24.0,-2.0,13.0,-9.0,-6.0,-3.0,-15.0,0.0
-22.0,-28.0,15.0,-20.0,6.0,7.0,-4.0,-6.0,3.0,-6.0,0.0
-31.0,-26.0,14.0,-28.0,18.0,4.0,-7.0,-4.0,0.0,-11.0,0.0
-43.0,-35.0,17.0,-18.0,19.0,-1.0,7.0,3.0,-1.0,-15.0,0.0
-45.0,-33.0,16.0,5.0,6.0,-9.0,0.0,3.0,1.0,-27.0,0.0
-43.0,-18.0,23.0,10.0,5.0,-4.0,-12.0,14.0,-12.0,-42.0,0.0
-38.0,-3.0,31.0,2.0,2.0,2.0,0.0,7.0,-15.0,-50.0,0.0
-22.0,1.0,27.0,3.0,-7.0,-9.0,-11.0,-8.0,1.0,-20.0,0.0
-16.0,-12.0,23.0,-2.0,-14.0,-16.0,-23.0,-13.0,3.0,-3.0,0.0
3.0,-14.0,8.0,-10.0,-20.0,-22.0,-24.0,-9.0,0.0,31.0,0.0
24.0,-10.0,-2.0,-35.0,-30.0,-22.0,-12.0,-4.0,-6.0,51.0,0.0
10.0,-4.0,4.0,-28.0,-28.0,-17.0,6.0,0.0,0.0,22.0,0.0
2.0,0.0,8.0,-20.0,-22.0,-13.0,9.0,-1.0,6.0,-5.0,0.0
4.0,3.0,7.0,-16.0,-22.0,-6.0,13.0,4.0,7.0,-1.0,0.0
20.0,7.0,12.0,-13.0,-24.0,-7.0,9.0,4.0,15.0,11.0,0.0
42.0,7.0,6.0,-4.0,-30.0,-11.0,1.0,5.0,26.0,24.0,0.0
48.0,4.0,4.0,-8.0,-40.0,-3.0,6.0,15.0,15.0,22.0,0.0
28.0,-3.0,7.0,-5.0,-35.0,4.0,2.0,24.0,13.0,7.0,0.0
2.0,-6.0,1.0,-4.0,-41.0,11.0,0.0,23.0,8.0,1.0,0.0
-8.0,-9.0,0.0,-9.0,-29.0,15.0,8.0,15.0,3.0,-9.0,0.0
-9.0,-9.0,-4.0,-15.0,-27.0,1.0,-6.0,15.0,0.0,-22.0,0.0
-8.0,-16.0,-9.0,-12.0,-24.0,-8.0,-21.0,12.0,-2.0,-15.0,0.0
-11.0,-14.0,-19.0,-14.0,-19.0,-5.0,-9.0,2.0,4.0,-17.0,0.0
-6.0,-5.0,-18.0,-11.0,-17.0,0.0,10.0,6.0,5.0,-7.0,0.0
-1.0,-14.0,-9.0,-12.0,-15.0,-4.0,4.0,5.0,-3.0,-10.0,0.0
0.0,-21.0,-7.0,-17.0,-10.0,-2.0,6.0,13.0,3.0,-13.0,0.0
-4.0,-3.0,-2.0,-9.0,-1.0,-6.0,13.0,22.0,5.0,-10.0,0.0
6.0,58.0,25.0,-2.0,-3.0,4.0,9.0,18.0,-4.0,-23.0,0.0
15.0,126.0,50.0,13.0,-7.0,10.0,22.0,21.0,-15.0,-20.0,0.0
22.0,117.0,50.0,20.0,1.0,12.0,29.0,16.0,-9.0,-17.0,0.0
15.0,82.0,26.0,33.0,5.0,3.0,21.0,5.0,-8.0,-29.0,0.0
9.0,57.0,11.0,29.0,-4.0,2.0,7.0,4.0,-25.0,-48.0,0.0
5.0,15.0,-33.0,3.0,-8.0,3.0,1.0,15.0,-20.0,-41.0,0.0
-9.0,-74.0,-118.0,0.0,0.0,6.0,20.0,31.0,-8.0,-19.0,0.0
-27.0,-113.0,-122.0,27.0,11.0,14.0,8.0,28.0,-23.0,-22.0,0.0
-28.0,-59.0,-68.0,33.0,13.0,0.0,-8.0,17.0,-44.0,-29.0,0.0
-31.0,-28.0,-23.0,24.0,-2.0,-14.0,-7.0,11.0,-37.0,-29.0,0.0
-31.0,17.0,-12.0,23.0,-11.0,-24.0,-18.0,3.0,-25.0,-16.0,0.0
-24.0,58.0,5.0,15.0,-9.0,-18.0,-31.0,-2.0,-17.0,2.0,0.0
-17.0,58.0,11.0,19.0,-12.0,-11.0,-27.0,3.0,-14.0,9.0,0.0
-9.0,45.0,-5.0,23.0,-19.0,-16.0,-17.0,0.0,1.0,9.0,0.0
14.0,29.0,-31.0,20.0,-20.0,-13.0,-14.0,4.0,22.0,41.0,0.0
21.0,-9.0,-67.0,10.0,-12.0,-1.0,5.0,11.0,32.0,68.0,0.0
0.0,-48.0,-82.0,10.0,4.0,17.0,31.0,14.0,34.0,66.0,0.0
-20.0,-82.0,-76.0,11.0,3.0,26.0,32.0,17.0,30.0,54.0,0.0
-29.0,-62.0,-67.0,19.0,6.0,21.0,25.0,22.0,24.0,48.0,0.0
-23.0,-28.0,-57.0,11.0,7.0,11.0,18.0,13.0,23.0,34.0,0.0
-29.0,-21.0,-40.0,9.0,-2.0,-4.0,19.0,1.0,14.0,29.0,0.0
-31.0,-13.0,-32.0,8.0,-6.0,-2.0,9.0,-6.0,6.0,24.0,0.0
-24.0,-7.0,-26.0,-14.0,0.0,4.0,2.0,-2.0,1.0,23.0,0.0
-27.0,5.0,-8.0,-30.0,-1.0,-2.0,8.0,3.0,-7.0,16.0,0.0
-42.0,12.0,-1.0,-28.0,-5.0,-13.0,0.0,-5.0,-14.0,8.0,0.0
-63.0,12.0,-15.0,-27.0,-2.0,-4.0,0.0,-4.0,4.0,-11.0,0.0
-60.0,17.0,-17.0,-13.0,0.0,0.0,12.0,4.0,12.0,-24.0,0.0
-58.0,27.0,-19.0,1.0,-7.0,0.0,1.0,-1.0,-5.0,-39.0,0.0
-60.0,23.0,-12.0,12.0,-11.0,11.0,5.0,-4.0,-4.0,-48.0,0.0
-58.0,19.0,0.0,14.0,-2.0,14.0,4.0,-7.0,3.0,-49.0,0.0
-60.0,5.0,-1.0,6.0,18.0,12.0,15.0,-1.0,-5.0,-48.0,0.0
-44.0,-2.0,-18.0,-7.0,6.0,8.0,13.0,0.0,-6.0,-10.0,0.0
8.0,-1.0,-40.0,-10.0,-5.0,5.0,-14.0,0.0,2.0,64.0,0.0
4.0,-9.0,-36.0,-11.0,-2.0,5.0,-7.0,0.0,7.0,67.0,0.0
-35.0,-18.0,-32.0,-4.0,6.0,16.0,5.0,5.0,5.0,37.0,0.0
-35.0,-24.0,-45.0,-2.0,12.0,21.0,-1.0,15.0,-3.0,19.0,0.0
-13.0,0.0,-25.0,0.0,11.0,15.0,2.0,17.0,-7.0,-3.0,0.0
-3.0,53.0,17.0,11.0,11.0,5.0,2.0,5.0,-6.0,-9.0,0.0
-2.0,76.0,19.0,13.0,1.0,0.0,-12.0,-13.0,-10.0,-11.0,0.0
2.0,51.0,0.0,13.0,14.0,-8.0,-16.0,-16.0,-9.0,-10.0,0.0
0.0,35.0,-17.0,16.0,15.0,-13.0,-16.0,-13.0,-2.0,4.0,0.0
-6.0,8.0,-29.0,15.0,6.0,-12.0,-30.0,0.0,2.0,7.0,0.0
-5.0,-14.0,-28.0,29.0,16.0,-5.0,-26.0,10.0,1.0,0.0,0.0
-4.0,-11.0,-14.0,26.0,28.0,1.0,-21.0,11.0,-1.0,-12.0,0.0
-10.0,-12.0,-9.0,19.0,30.0,11.0,-23.0,26.0,-6.0,-12.0,0.0
-12.0,-23.0,-13.0,18.0,25.0,8.0,-27.0,20.0,-7.0,-13.0,0.0
-8.0,-37.0,-13.0,0.0,25.0,-6.0,-27.0,14.0,-10.0,-11.0,0.0
21.0,-43.0,-17.0,-16.0,28.0,-12.0,-15.0,2.0,-9.0,10.0,0.0
52.0,-24.0,-19.0,-10.0,34.0,-16.0,-11.0,9.0,-3.0,41.0,0.0
39.0,-19.0,-11.0,-3.0,27.0,-10.0,-21.0,10.0,5.0,44.0,0.0
17.0,-36.0,-2.0,-7.0,24.0,0.0,-22.0,11.0,0.0,6.0,0.0
7.0,-39.0,-8.0,4.0,17.0,0.0,-15.0,16.0,-8.0,-8.0,0.0
4.0,-32.0,-5.0,27.0,22.0,-2.0,-3.0,9.0,-6.0,-15.0,0.0
10.0,-22.0,3.0,27.0,18.0,-3.0,-8.0,-1.0,-7.0,-15.0,0.0
15.0,-12.0,-8.0,20.0,15.0,-11.0,-11.0,-7.0,-11.0,9.0,0.0
24.0,-2.0,-11.0,10.0,19.0,-13.0,-8.0,-4.0,-10.0,26.0,0.0
25.0,20.0,-6.0,9.0,21.0,-6.0,-14.0,-5.0,-5.0,27.0,0.0
19.0,25.0,-8.0,16.0,20.0,-6.0,-23.0,-12.0,-19.0,16.0,0.0
11.0,14.0,-9.0,8.0,11.0,-5.0,-26.0,-14.0,-16.0,-2.0,0.0
11.0,20.0,-5.0,2.0,3.0,-9.0,-31.0,-14.0,-19.0,-14.0,0.0
10.0,35.0,5.0,-10.0,-7.0,-22.0,-27.0,-16.0,-27.0,-19.0,0.0
21.0,35.0,8.0,-8.0,-11.0,-20.0,-17.0,-14.0,-16.0,-7.0,0.0
32.0,42.0,17.0,-4.0,-12.0,-24.0,-17.0,-15.0,-7.0,8.0,0.0
29.0,45.0,25.0,-2.0,-4.0,-25.0,-24.0,-10.0,-6.0,34.0,0.0
35.0,34.0,17.0,0.0,-1.0,-26.0,-21.0,-4.0,-1.0,35.0,0.0
21.0,19.0,14.0,1.0,-3.0,-28.0,-14.0,4.0,-4.0,16.0,0.0
7.0,25.0,27.0,2.0,0.0,-14.0,-10.0,5.0,-2.0,10.0,0.0
-6.0,74.0,52.0,0.0,15.0,-3.0,1.0,3.0,11.0,7.0,0.0
-18.0,59.0,56.0,13.0,23.0,0.0,11.0,4.0,18.0,-2.0,0.0
-21.0,14.0,40.0,5.0,10.0,6.0,5.0,7.0,12.0,-4.0,0.0
-33.0,-41.0,14.0,-6.0,3.0,-3.0,6.0,0.0,5.0,-10.0,0.0
-42.0,-67.0,-1.0,-4.0,11.0,-6.0,3.0,6.0,0.0,-23.0,0.0
-26.0,-95.0,-68.0,-10.0,13.0,0.0,4.0,11.0,7.0,-21.0,0.0
-10.0,-128.0,-113.0,-8.0,8.0,7.0,11.0,15.0,2.0,-16.0,0.0
-8.0,-87.0,-67.0,-2.0,2.0,5.0,12.0,14.0,-7.0,-18.0,0.0
-7.0,-43.0,-32.0,-4.0,1.0,6.0,6.0,11.0,-10.0,-25.0,0.0
-12.0,-25.0,-30.0,-6.0,5.0,7.0,0.0,-6.0,-12.0,-28.0,0.0
-14.0,-12.0,-11.0,-11.0,14.0,13.0,14.0,-17.0,-12.0,-42.0,0.0
-11.0,-8.0,-11.0,-15.0,9.0,10.0,25.0,-1.0,0.0,-44.0,0.0
-16.0,-17.0,0.0,-15.0,7.0,11.0,14.0,7.0,1.0,-47.0,0.0
-17.0,-22.0,10.0,-14.0,10.0,8.0,27.0,1.0,1.0,-44.0,0.0
-5.0,-24.0,15.0,-15.0,-3.0,-4.0,22.0,-6.0,-5.0,-29.0,0.0
19.0,-18.0,9.0,-11.0,-14.0,-11.0,-3.0,-9.0,-8.0,24.0,0.0
40.0,-3.0,-7.0,-12.0,-17.0,-10.0,-9.0,-13.0,2.0,66.0,0.0
44.0,2.0,-6.0,-10.0,-19.0,-2.0,-7.0,-11.0,7.0,52.0,0.0
36.0,5.0,0.0,0.0,-20.0,0.0,-4.0,2.0,8.0,17.0,0.0
32.0,12.0,12.0,5.0,-1.0,-7.0,9.0,9.0,1.0,-5.0,0.0
31.0,30.0,19.0,2.0,-1.0,-8.0,15.0,-6.0,-8.0,-13.0,0.0
20.0,34.0,10.0,1.0,3.0,-3.0,11.0,-19.0,-4.0,-36.0,0.0
9.0,26.0,12.0,-6.0,12.0,0.0,18.0,-32.0,-7.0,-48.0,0.0
-5.0,16.0,15.0,-13.0,10.0,3.0,23.0,-32.0,-2.0,-35.0,0.0
-8.0,-1.0,22.0,-12.0,8.0,-7.0,1.0,-30.0,4.0,-14.0,0.0
12.0,1.0,10.0,-18.0,0.0,-24.0,-12.0,-38.0,15.0,14.0,0.0
7.0,2.0,-15.0,-21.0,-11.0,-29.0,-8.0,-46.0,8.0,-1.0,0.0
-1.0,3.0,-21.0,-22.0,0.0,-18.0,2.0,-38.0,-3.0,-8.0,0.0
0.0,12.0,-16.0,-11.0,3.0,-7.0,-2.0,-30.0,-7.0,-3.0,0.0
1.0,10.0,-17.0,-4.0,-3.0,-7.0,7.0,-23.0,-1.0,-5.0,0.0
4.0,11.0,-26.0,0.0,-3.0,-8.0,5.0,-17.0,-1.0,-3.0,0.0
11.0,9.0,-22.0,-10.0,1.0,-8.0,-8.0,-15.0,3.0,11.0,0.0
5.0,12.0,-18.0,-17.0,4.0,-3.0,-9.0,-15.0,4.0,16.0,0.0
-10.0,9.0,-20.0,-19.0,18.0,0.0,-2.0,-19.0,9.0,3.0,0.0
-7.0,15.0,-8.0,-16.0,24.0,0.0,7.0,-15.0,-1.0,-3.0,0.0
-12.0,23.0,0.0,-8.0,30.0,-15.0,6.0,-4.0,-7.0,-10.0,0.0
-18.0,22.0,-1.0,-12.0,23.0,-20.0,1.0,-4.0,-3.0,-16.0,0.0
-15.0,21.0,-14.0,-10.0,20.0,-10.0,7.0,5.0,1.0,-11.0,0.0
-14.0,31.0,-2.0,-11.0,14.0,-12.0,5.0,1.0,0.0,-14.0,0.0
-11.0,46.0,1.0,0.0,6.0,-16.0,-10.0,-10.0,-12.0,-10.0,0.0
-9.0,41.0,-2.0,-14.0,10.0,-17.0,-17.0,-13.0,-6.0,-5.0,0.0
-12.0,13.0,0.0,-30.0,9.0,-31.0,-13.0,-12.0,9.0,7.0,0.0
-13.0,-12.0,-1.0,-33.0,12.0,-30.0,-14.0,-6.0,12.0,10.0,0.0
-23.0,-27.0,-16.0,-35.0,15.0,-28.0,-21.0,0.0,12.0,6.0,0.0
-34.0,-39.0,-20.0,-31.0,13.0,-24.0,-24.0,17.0,10.0,4.0,0.0
-29.0,-36.0,-17.0,-37.0,1.0,-1.0,-12.0,22.0,5.0,4.0,0.0
-16.0,-28.0,-11.0,-38.0,0.0,-2.0,1.0,21.0,10.0,-2.0,0.0
-14.0,4.0,8.0,-37.0,-7.0,0.0,-5.0,19.0,10.0,-10.0,0.0
-17.0,28.0,34.0,-11.0,-12.0,10.0,-9.0,13.0,-3.0,-15.0,0.0
-12.0,29.0,37.0,7.0,-8.0,7.0,2.0,-5.0,-16.0,-8.0,0.0
-14.0,23.0,25.0,5.0,0.0,-2.0,16.0,0.0,-11.0,-29.0,0.0
-18.0,10.0,12.0,6.0,0.0,-4.0,-1.0,4.0,-9.0,-38.0,0.0
-17.0,-5.0,0.0,3.0,-3.0,0.0,-4.0,5.0,-6.0,-30.0,0.0
-23.0,-4.0,-1.0,-5.0,-7.0,2.0,16.0,7.0,-1.0,-37.0,0.0
-29.0,-5.0,10.0,-1.0,0.0,13.0,6.0,-3.0,-8.0,-37.0,0.0
-36.0,-10.0,18.0,1.0,-1.0,12.0,-3.0,-1.0,-24.0,-44.0,0.0
-36.0,-11.0,10.0,2.0,9.0,-1.0,-8.0,-6.0,-21.0,-52.0,0.0
21.0,1.0,10.0,-5.0,0.0,-3.0,-11.0,-15.0,-9.0,-13.0,0.0
79.0,16.0,15.0,-2.0,-19.0,-11.0,-8.0,-19.0,10.0,63.0,0.0
95.0,14.0,28.0,0.0,-20.0,-8.0,-9.0,-7.0,16.0,83.0,0.0
57.0,1.0,29.0,-5.0,-9.0,-5.0,-3.0,0.0,15.0,55.0,0.0
31.0,0.0,30.0,0.0,-13.0,3.0,0.0,-7.0,19.0,31.0,0.0
27.0,6.0,22.0,-2.0,-9.0,9.0,3.0,-15.0,25.0,12.0,0.0
28.0,2.0,16.0,-1.0,-20.0,10.0,-5.0,0.0,25.0,0.0,0.0
22.0,0.0,6.0,5.0,-18.0,17.0,-5.0,3.0,25.0,15.0,0.0
20.0,3.0,12.0,4.0,-23.0,20.0,2.0,7.0,30.0,24.0,0.0
12.0,1.0,14.0,0.0,-16.0,17.0,14.0,15.0,20.0,19.0,0.0
2.0,-7.0,18.0,9.0,-1.0,12.0,11.0,19.0,6.0,6.0,0.0
-1.0,-15.0,14.0,16.0,-3.0,13.0,5.0,21.0,-3.0,-7.0,0.0
6.0,-11.0,3.0,12.0,-11.0,25.0,5.0,20.0,0.0,-9.0,0.0
9.0,-2.0,20.0,11.0,-9.0,25.0,6.0,9.0,-1.0,-13.0,0.0
11.0,10.0,17.0,6.0,-6.0,21.0,4.0,-8.0,-3.0,-25.0,0.0
10.0,4.0,19.0,18.0,-9.0,32.0,11.0,-9.0,-20.0,-30.0,0.0
9.0,0.0,23.0,11.0,-14.0,38.0,10.0,6.0,-28.0,-24.0,0.0
18.0,20.0,27.0,-5.0,-17.0,37.0,0.0,-2.0,-21.0,-5.0,0.0
35.0,37.0,25.0,-6.0,-15.0,26.0,-12.0,-11.0,-16.0,7.0,0.0
20.0,37.0,16.0,12.0,-13.0,23.0,2.0,-11.0,-12.0,14.0,0.0
-6.0,22.0,27.0,19.0,-10.0,37.0,16.0,-3.0,0.0,9.0,0.0
-6.0,14.0,17.0,22.0,-18.0,43.0,17.0,8.0,0.0,-2.0,0.0
-13.0,10.0,13.0,19.0,-9.0,35.0,25.0,17.0,5.0,-6.0,0.0
-22.0,13.0,3.0,-2.0,-8.0,27.0,20.0,16.0,15.0,-6.0,0.0
-25.0,12.0,-1.0,-16.0,-11.0,21.0,12.0,11.0,13.0,-11.0,0.0
-5.0,11.0,5.0,-26.0,-11.0,18.0,16.0,-4.0,7.0,-12.0,0.0
18.0,12.0,0.0,-32.0,0.0,14.0,9.0,-12.0,10.0,-2.0,0.0
7.0,7.0,-11.0,-30.0,0.0,9.0,13.0,-2.0,22.0,-3.0,0.0
-8.0,5.0,-15.0,-12.0,-9.0,7.0,17.0,2.0,20.0,-21.0,0.0
9.0,53.0,39.0,0.0,-10.0,-8.0,0.0,5.0,-6.0,-19.0,0.0
45.0,113.0,77.0,13.0,-14.0,-16.0,-12.0,-3.0,-31.0,6.0,0.0
33.0,136.0,98.0,28.0,-9.0,-10.0,-8.0,-9.0,-31.0,9.0,0.0
-2.0,-169.0,-101.0,8.0,19.0,22.0,14.0,12.0,19.0,-3.0,0.0
-5.0,-132.0,-50.0,11.0,26.0,12.0,20.0,4.0,8.0,-10.0,0.0
-10.0,-96.0,-27.0,5.0,26.0,18.0,16.0,16.0,2.0,-18.0,0.0
-8.0,-66.0,-10.0,1.0,25.0,18.0,7.0,16.0,9.0,-4.0,0.0
-1.0,-44.0,-6.0,-5.0,26.0,23.0,9.0,14.0,16.0,3.0,0.0
6.0,-43.0,-2.0,-13.0,21.0,15.0,7.0,13.0,17.0,0.0,0.0
24.0,-22.0,1.0,-23.0,5.0,3.0,0.0,12.0,10.0,-3.0,0.0
18.0,-16.0,-9.0,-24.0,13.0,11.0,-3.0,12.0,-1.0,-6.0,0.0
6.0,-19.0,-10.0,-20.0,23.0,22.0,5.0,7.0,-4.0,0.0,0.0
12.0,-18.0,-19.0,-3.0,10.0,19.0,14.0,2.0,-7.0,8.0,0.0
10.0,-12.0,-23.0,2.0,2.0,11.0,12.0,9.0,3.0,19.0,0.0
3.0,-16.0,-19.0,6.0,7.0,3.0,-2.0,10.0,-1.0,17.0,0.0
-6.0,-28.0,-24.0,-4.0,20.0,3.0,-7.0,9.0,-10.0,4.0,0.0
-21.0,-29.0,-11.0,-11.0,22.0,14.0,0.0,-1.0,-17.0,-8.0,0.0
-18.0,-14.0,-6.0,-4.0,7.0,26.0,0.0,-14.0,-27.0,-14.0,0.0
-1.0,-13.0,-14.0,-2.0,2.0,24.0,-7.0,-12.0,-21.0,-8.0,0.0
17.0,-12.0,-4.0,-7.0,0.0,11.0,0.0,-10.0,-23.0,-9.0,0.0
16.0,-9.0,-4.0,-4.0,-2.0,11.0,-4.0,-12.0,-28.0,-3.0,0.0
4.0,-14.0,4.0,7.0,-7.0,13.0,-1.0,-19.0,-28.0,-3.0,0.0
-3.0,-24.0,-12.0,4.0,0.0,2.0,21.0,-19.0,-17.0,0.0,0.0
-4.0,-21.0,-18.0,0.0,-1.0,-3.0,23.0,-2.0,0.0,1.0,0.0
3.0,0.0,-5.0,1.0,-9.0,-1.0,22.0,-3.0,3.0,2.0,0.0
7.0,20.0,10.0,-4.0,-9.0,6.0,22.0,-15.0,2.0,2.0,0.0
21.0,28.0,18.0,-9.0,-12.0,2.0,9.0,-18.0,5.0,0.0,0.0
23.0,31.0,19.0,-13.0,-15.0,-8.0,12.0,-19.0,-3.0,1.0,0.0
18.0,29.0,15.0,-12.0,-8.0,-20.0,9.0,-21.0,-5.0,5.0,0.0
12.0,29.0,16.0,-17.0,-11.0,-16.0,-5.0,-10.0,-3.0,11.0,0.0
2.0,26.0,16.0,-13.0,-11.0,-21.0,-9.0,-7.0,-7.0,27.0,0.0
0.0,20.0,17.0,-2.0,-7.0,-25.0,-18.0,-11.0,-6.0,38.0,0.0
6.0,5.0,8.0,9.0,-10.0,-16.0,-27.0,-14.0,-4.0,29.0,0.0
10.0,8.0,-10.0,14.0,-10.0,-16.0,-19.0,-17.0,-3.0,32.0,0.0
2.0,12.0,0.0,7.0,-19.0,-27.0,-10.0,-9.0,2.0,26.0,0.0
-3.0,-3.0,13.0,5.0,-11.0,-23.0,-16.0,-12.0,-4.0,22.0,0.0
1.0,-1.0,14.0,4.0,-6.0,-16.0,-21.0,-17.0,-9.0,16.0,0.0
-10.0,-2.0,5.0,8.0,-13.0,-12.0,-25.0,-3.0,-13.0,2.0,0.0
-18.0,-6.0,11.0,10.0,-12.0,-5.0,-13.0,3.0,-12.0,-3.0,0.0
-21.0,-2.0,23.0,3.0,-8.0,0.0,-7.0,6.0,-18.0,-10.0,0.0
-12.0,17.0,22.0,5.0,-10.0,-3.0,-4.0,7.0,-13.0,-5.0,0.0
2.0,11.0,9.0,8.0,-19.0,-14.0,-10.0,3.0,-4.0,2.0,0.0
9.0,2.0,5.0,12.0,-13.0,-14.0,-8.0,-1.0,-17.0,0.0,0.0
0.0,13.0,2.0,19.0,-3.0,-2.0,-5.0,-4.0,-27.0,-21.0,0.0
3.0,10.0,0.0,13.0,-2.0,0.0,-15.0,11.0,-36.0,-9.0,0.0
13.0,1.0,-6.0,5.0,-20.0,-6.0,-15.0,3.0,-29.0,17.0,0.0
6.0,11.0,-10.0,8.0,-25.0,-4.0,-5.0,-3.0,-21.0,17.0,0.0
0.0,6.0,1.0,7.0,-25.0,4.0,-3.0,-5.0,-26.0,-8.0,0.0
-19.0,3.0,-4.0,9.0,-20.0,10.0,7.0,-1.0,-24.0,-21.0,0.0
-22.0,18.0,-22.0,7.0,-17.0,8.0,25.0,13.0,-18.0,-14.0,0.0
-14.0,20.0,-26.0,18.0,-14.0,-3.0,14.0,14.0,-14.0,-13.0,0.0
0.0,24.0,-6.0,32.0,0.0,0.0,7.0,10.0,-19.0,-11.0,0.0
24.0,34.0,6.0,32.0,-6.0,-1.0,7.0,1.0,-21.0,12.0,0.0
42.0,54.0,7.0,31.0,-13.0,-8.0,1.0,-7.0,-24.0,28.0,0.0
58.0,64.0,29.0,35.0,-11.0,-9.0,0.0,-9.0,-14.0,32.0,0.0
57.0,56.0,35.0,33.0,-11.0,-14.0,5.0,-5.0,-2.0,20.0,0.0
37.0,39.0,9.0,20.0,-6.0,-18.0,-4.0,1.0,6.0,12.0,0.0
14.0,33.0,4.0,10.0,-4.0,-5.0,-2.0,-4.0,11.0,6.0,0.0
-24.0,-5.0,-6.0,0.0,2.0,5.0,25.0,8.0,28.0,-5.0,0.0
-63.0,-46.0,-40.0,-6.0,7.0,15.0,36.0,21.0,41.0,-12.0,0.0
-66.0,-66.0,-40.0,-8.0,13.0,17.0,44.0,25.0,40.0,-16.0,0.0
-35.0,-63.0,-33.0,2.0,22.0,22.0,32.0,17.0,36.0,4.0,0.0
9.0,-57.0,-46.0,-2.0,9.0,11.0,27.0,14.0,36.0,38.0,0.0
24.0,-49.0,-50.0,-1.0,-4.0,-4.0,20.0,7.0,31.0,34.0,0.0
19.0,-33.0,-47.0,-17.0,3.0,-9.0,18.0,11.0,25.0,25.0,0.0
24.0,-8.0,-29.0,-29.0,0.0,-18.0,4.0,15.0,19.0,37.0,0.0
23.0,46.0,4.0,-11.0,2.0,-27.0,-3.0,11.0,14.0,47.0,0.0
0.0,66.0,36.0,0.0,21.0,-21.0,0.0,4.0,3.0,13.0,0.0
-16.0,31.0,48.0,0.0,28.0,-18.0,0.0,0.0,-5.0,-9.0,0.0
-30.0,-13.0,31.0,6.0,25.0,-10.0,1.0,6.0,-9.0,-4.0,0.0
-39.0,-53.0,11.0,-1.0,9.0,-20.0,2.0,4.0,-13.0,-3.0,0.0
-32.0,-74.0,-29.0,-3.0,7.0,-28.0,1.0,4.0,-14.0,-4.0,0.0
-32.0,-102.0,-75.0,7.0,18.0,-16.0,6.0,6.0,-16.0,0.0,0.0
-24.0,-84.0,-51.0,10.0,16.0,-16.0,6.0,11.0,-5.0,5.0,0.0
1.0,-40.0,-20.0,-2.0,14.0,-28.0,-6.0,3.0,7.0,24.0,0.0
5.0,-30.0,-15.0,-19.0,14.0,-28.0,-5.0,-10.0,-4.0,36.0,0.0
1.0,-15.0,-13.0,-26.0,4.0,-13.0,-2.0,-10.0,-21.0,9.0,0.0
3.0,-6.0,-13.0,-19.0,3.0,-12.0,7.0,-14.0,-16.0,-6.0,0.0
-1.0,-8.0,-11.0,0.0,4.0,-26.0,15.0,-2.0,1.0,-5.0,0.0
-7.0,-11.0,-12.0,6.0,4.0,-21.0,12.0,-4.0,0.0,-2.0,0.0
-13.0,-14.0,-9.0,-5.0,1.0,-15.0,11.0,-12.0,-6.0,-14.0,0.0
-23.0,-20.0,-10.0,-16.0,0.0,-12.0,11.0,-8.0,-12.0,-22.0,0.0
-27.0,-25.0,-9.0,-22.0,1.0,-17.0,3.0,-15.0,-14.0,-30.0,0.0
-20.0,-25.0,-8.0,-15.0,2.0,-19.0,7.0,-20.0,-2.0,-29.0,0.0
-15.0,-21.0,-10.0,-16.0,-7.0,-19.0,4.0,-12.0,-2.0,-26.0,0.0
-24.0,-34.0,-9.0,-10.0,-18.0,-7.0,7.0,-11.0,-3.0,-33.0,0.0
-27.0,-43.0,-21.0,1.0,-12.0,2.0,23.0,-14.0,3.0,-29.0,0.0
-21.0,-38.0,-5.0,-2.0,-11.0,-2.0,39.0,-17.0,-3.0,-32.0,0.0
-23.0,6.0,14.0,-1.0,-12.0,13.0,54.0,-14.0,-4.0,-33.0,0.0
-28.0,36.0,22.0,-2.0,-10.0,18.0,48.0,-8.0,0.0,-23.0,0.0
-21.0,40.0,38.0,17.0,-10.0,-1.0,20.0,-8.0,9.0,-6.0,0.0
-11.0,26.0,43.0,18.0,-16.0,-13.0,13.0,-13.0,12.0,3.0,0.0
-5.0,33.0,47.0,13.0,-28.0,-14.0,-2.0,-30.0,11.0,-3.0,0.0
-6.0,66.0,42.0,8.0,-24.0,-11.0,-15.0,-41.0,1.0,-6.0,0.0
3.0,75.0,42.0,6.0,-22.0,-3.0,-6.0,-43.0,11.0,-2.0,0.0
6.0,64.0,25.0,8.0,-16.0,-1.0,-7.0,-39.0,6.0,-1.0,0.0
-14.0,41.0,15.0,5.0,-13.0,0.0,-1.0,-32.0,6.0,-9.0,0.0
-18.0,3.0,0.0,8.0,-12.0,2.0,8.0,-21.0,18.0,-25.0,0.0
-24.0,-47.0,-32.0,6.0,-3.0,10.0,19.0,5.0,33.0,-38.0,0.0
-25.0,-79.0,-43.0,11.0,5.0,20.0,29.0,11.0,35.0,-45.0,0.0
-26.0,-75.0,-35.0,22.0,8.0,16.0,22.0,-1.0,32.0,-44.0,0.0
-13.0,-33.0,-17.0,24.0,2.0,16.0,8.0,-17.0,30.0,-34.0,0.0
-5.0,-1.0,1.0,29.0,8.0,10.0,8.0,-18.0,9.0,-41.0,0.0
4.0,4.0,15.0,33.0,1.0,19.0,-1.0,-16.0,-1.0,-38.0,0.0
54.0,13.0,13.0,19.0,-9.0,13.0,-9.0,-19.0,-7.0,33.0,0.0
67.0,3.0,10.0,13.0,-9.0,13.0,1.0,-20.0,12.0,87.0,0.0
16.0,0.0,11.0,19.0,-7.0,26.0,13.0,-11.0,42.0,94.0,0.0
-8.0,7.0,14.0,19.0,-2.0,26.0,19.0,-3.0,44.0,59.0,0.0
0.0,11.0,19.0,28.0,-3.0,16.0,17.0,-5.0,30.0,25.0,0.0
-2.0,0.0,20.0,18.0,0.0,31.0,18.0,-3.0,29.0,15.0,0.0
-9.0,-8.0,11.0,13.0,14.0,39.0,27.0,0.0,20.0,13.0,0.0
-13.0,-17.0,5.0,16.0,18.0,38.0,21.0,3.0,13.0,16.0,0.0
-11.0,-22.0,-6.0,19.0,20.0,32.0,7.0,2.0,19.0,15.0,0.0
-16.0,-31.0,-7.0,10.0,16.0,29.0,-1.0,-10.0,28.0,20.0,0.0
-14.0,-34.0,-5.0,7.0,9.0,38.0,-6.0,-15.0,31.0,31.0,0.0
