channel0,channel1,channel2,channel3,channel4,channel5,channel6,channel7,channel8,channel9,true_locs
219.0,208.0,60.0,43.0,46.0,27.0,21.0,25.0,11.0,20.0,0.0
361.0,144.0,54.0,48.0,61.0,43.0,16.0,30.0,4.0,19.0,0.0
432.0,7.0,3.0,22.0,36.0,28.0,-9.0,18.0,-17.0,23.0,0.0
304.0,-149.0,-34.0,-7.0,25.0,12.0,-13.0,12.0,-11.0,41.0,0.0
119.0,-216.0,-33.0,1.0,26.0,37.0,11.0,48.0,34.0,87.0,0.0
-6.0,-209.0,-30.0,-2.0,11.0,35.0,32.0,70.0,91.0,139.0,0.0
-149.0,-196.0,9.0,29.0,12.0,14.0,0.0,38.0,54.0,79.0,0.0
-297.0,-224.0,35.0,65.0,23.0,-6.0,-15.0,-3.0,-12.0,-47.0,0.0
-289.0,-200.0,28.0,38.0,13.0,-16.0,-15.0,-20.0,-38.0,-75.0,0.0
-194.0,-145.0,0.0,-9.0,-26.0,-37.0,-13.0,-25.0,-40.0,-55.0,0.0
-96.0,-98.0,-21.0,-52.0,-58.0,-59.0,-28.0,-38.0,-53.0,-44.0,0.0
-43.0,-74.0,-36.0,-66.0,-64.0,-60.0,-22.0,-55.0,-67.0,-64.0,0.0
-36.0,-68.0,-49.0,-64.0,-49.0,-62.0,-15.0,-57.0,-68.0,-78.0,0.0
-37.0,-82.0,-54.0,-58.0,-50.0,-53.0,-8.0,-38.0,-53.0,-50.0,0.0
-94.0,-103.0,-32.0,-36.0,-32.0,-33.0,0.0,-25.0,-53.0,-74.0,0.0
-133.0,-100.0,-7.0,-8.0,-5.0,-1.0,12.0,-6.0,-32.0,-67.0,0.0
-69.0,-47.0,-5.0,9.0,10.0,21.0,34.0,29.0,8.0,-6.0,0.0
6.0,35.0,21.0,35.0,36.0,38.0,37.0,35.0,34.0,23.0,0.0
74.0,78.0,32.0,44.0,54.0,64.0,19.0,51.0,51.0,64.0,0.0
121.0,83.0,34.0,50.0,54.0,76.0,16.0,54.0,53.0,97.0,0.0
129.0,77.0,47.0,64.0,54.0,73.0,17.0,46.0,50.0,89.0,0.0
145.0,76.0,50.0,56.0,46.0,67.0,10.0,33.0,36.0,69.0,0.0
136.0,56.0,44.0,40.0,35.0,62.0,13.0,26.0,27.0,48.0,0.0
76.0,30.0,13.0,7.0,17.0,47.0,3.0,15.0,6.0,22.0,0.0
20.0,12.0,-14.0,-33.0,0.0,27.0,7.0,-1.0,0.0,0.0,0.0
-60.0,4.0,-19.0,-48.0,-18.0,-8.0,-14.0,-33.0,-30.0,-50.0,0.0
-142.0,-23.0,-17.0,-44.0,-21.0,-30.0,-27.0,-51.0,-61.0,-119.0,0.0
-170.0,-69.0,-23.0,-42.0,-23.0,-45.0,-40.0,-52.0,-71.0,-148.0,0.0
-145.0,-88.0,-26.0,-61.0,-32.0,-55.0,-37.0,-60.0,-71.0,-131.0,0.0
-99.0,-72.0,-35.0,-52.0,-38.0,-60.0,-32.0,-47.0,-64.0,-102.0,0.0
-46.0,-35.0,-32.0,-31.0,-35.0,-49.0,-26.0,-44.0,-53.0,-95.0,0.0
24.0,24.0,-16.0,-14.0,-23.0,-38.0,-26.0,-32.0,-49.0,-75.0,0.0
64.0,51.0,-11.0,6.0,-7.0,-18.0,-23.0,-3.0,-31.0,-27.0,0.0
71.0,35.0,-22.0,8.0,6.0,10.0,9.0,30.0,17.0,18.0,0.0
47.0,5.0,-15.0,18.0,34.0,48.0,28.0,67.0,66.0,50.0,0.0
-7.0,-4.0,28.0,49.0,59.0,66.0,40.0,65.0,63.0,30.0,0.0
17.0,13.0,48.0,65.0,58.0,57.0,22.0,45.0,53.0,25.0,0.0
67.0,38.0,40.0,62.0,53.0,54.0,18.0,46.0,70.0,47.0,0.0
87.0,87.0,64.0,52.0,44.0,48.0,23.0,38.0,57.0,50.0,0.0
118.0,133.0,68.0,41.0,26.0,33.0,-11.0,27.0,31.0,55.0,0.0
136.0,139.0,51.0,24.0,10.0,8.0,-19.0,0.0,8.0,42.0,0.0
132.0,120.0,25.0,1.0,-14.0,-12.0,-20.0,-20.0,-17.0,20.0,0.0
85.0,106.0,7.0,-8.0,-23.0,-22.0,-9.0,-31.0,-44.0,-42.0,0.0
43.0,84.0,-5.0,-14.0,-21.0,-34.0,-11.0,-45.0,-85.0,-93.0,0.0
-11.0,46.0,-22.0,-29.0,-36.0,-60.0,-28.0,-68.0,-91.0,-102.0,0.0
-69.0,-11.0,-44.0,-50.0,-55.0,-82.0,-36.0,-70.0,-63.0,-79.0,0.0
-118.0,-139.0,-91.0,-58.0,-47.0,-58.0,-4.0,-25.0,3.0,-20.0,0.0
-161.0,-207.0,-76.0,-25.0,-24.0,-27.0,35.0,-2.0,32.0,5.0,0.0
-171.0,-145.0,-8.0,-2.0,-10.0,-14.0,17.0,-9.0,13.0,-19.0,0.0
-132.0,-84.0,22.0,3.0,7.0,11.0,22.0,10.0,14.0,-11.0,0.0
-58.0,-53.0,30.0,13.0,29.0,35.0,37.0,27.0,33.0,26.0,0.0
11.0,-3.0,50.0,29.0,52.0,49.0,28.0,27.0,36.0,55.0,0.0
56.0,26.0,47.0,39.0,59.0,66.0,35.0,28.0,40.0,65.0,0.0
80.0,24.0,37.0,43.0,62.0,69.0,28.0,28.0,34.0,64.0,0.0
77.0,23.0,27.0,28.0,52.0,55.0,14.0,22.0,45.0,70.0,0.0
76.0,38.0,23.0,14.0,45.0,34.0,10.0,9.0,35.0,69.0,0.0
21.0,23.0,39.0,13.0,33.0,23.0,3.0,-5.0,13.0,39.0,0.0
-42.0,-14.0,25.0,0.0,4.0,12.0,21.0,4.0,8.0,4.0,0.0
-45.0,-7.0,6.0,-15.0,-21.0,-4.0,13.0,-7.0,-4.0,-13.0,0.0
-43.0,16.0,-4.0,-27.0,-35.0,-27.0,-3.0,-41.0,-43.0,-43.0,0.0
-26.0,20.0,-13.0,-50.0,-61.0,-56.0,-15.0,-72.0,-73.0,-74.0,0.0
33.0,48.0,-37.0,-72.0,-82.0,-75.0,-32.0,-85.0,-91.0,-79.0,0.0
93.0,77.0,-41.0,-72.0,-91.0,-87.0,-37.0,-83.0,-80.0,-69.0,0.0
106.0,62.0,-35.0,-63.0,-74.0,-76.0,-38.0,-67.0,-47.0,-38.0,0.0
68.0,-2.0,-39.0,-46.0,-49.0,-33.0,-12.0,-41.0,-18.0,-3.0,0.0
18.0,-47.0,-31.0,-24.0,-14.0,-8.0,16.0,-17.0,10.0,24.0,0.0
-11.0,-45.0,-8.0,-1.0,13.0,6.0,6.0,2.0,18.0,17.0,0.0
0.0,-8.0,24.0,23.0,35.0,21.0,15.0,8.0,35.0,0.0,0.0
6.0,10.0,38.0,44.0,57.0,56.0,20.0,47.0,67.0,34.0,0.0
-1.0,15.0,43.0,50.0,88.0,86.0,26.0,73.0,78.0,47.0,0.0
-1.0,38.0,40.0,62.0,87.0,90.0,34.0,62.0,71.0,32.0,0.0
20.0,43.0,31.0,52.0,65.0,88.0,27.0,39.0,61.0,47.0,0.0
5.0,46.0,24.0,39.0,51.0,61.0,4.0,41.0,62.0,53.0,0.0
-5.0,62.0,26.0,35.0,42.0,37.0,5.0,27.0,48.0,25.0,0.0
21.0,52.0,8.0,20.0,27.0,14.0,0.0,-3.0,25.0,12.0,0.0
83.0,56.0,-6.0,3.0,-2.0,-4.0,-4.0,-26.0,4.0,-4.0,0.0
137.0,67.0,-17.0,-24.0,-44.0,-41.0,-26.0,-49.0,-4.0,-26.0,0.0
109.0,68.0,-22.0,-30.0,-65.0,-61.0,-37.0,-58.0,-19.0,-42.0,0.0
75.0,54.0,-22.0,-23.0,-77.0,-65.0,-60.0,-64.0,-43.0,-55.0,0.0
75.0,21.0,-19.0,-17.0,-75.0,-68.0,-65.0,-70.0,-63.0,-69.0,0.0
55.0,-7.0,-34.0,-29.0,-65.0,-59.0,-51.0,-65.0,-62.0,-64.0,0.0
20.0,-32.0,-36.0,-31.0,-52.0,-33.0,-39.0,-51.0,-55.0,-34.0,0.0
-47.0,-101.0,-51.0,-22.0,-41.0,-15.0,-27.0,-24.0,-23.0,-7.0,0.0
-98.0,-152.0,-54.0,-7.0,-21.0,12.0,-6.0,7.0,0.0,30.0,0.0
-89.0,-87.0,-10.0,37.0,24.0,38.0,8.0,25.0,-2.0,10.0,0.0
-51.0,-29.0,27.0,61.0,55.0,74.0,30.0,28.0,20.0,23.0,0.0
10.0,30.0,39.0,79.0,67.0,94.0,19.0,22.0,44.0,32.0,0.0
60.0,103.0,52.0,70.0,48.0,88.0,2.0,12.0,29.0,26.0,0.0
99.0,120.0,41.0,47.0,30.0,62.0,-13.0,9.0,21.0,44.0,0.0
85.0,106.0,15.0,24.0,14.0,29.0,-6.0,9.0,13.0,44.0,0.0
47.0,81.0,0.0,8.0,-1.0,3.0,-2.0,6.0,2.0,18.0,0.0
24.0,56.0,13.0,-14.0,-19.0,-8.0,-4.0,0.0,-6.0,-1.0,0.0
-5.0,17.0,33.0,-27.0,-38.0,-35.0,-17.0,-26.0,-46.0,-45.0,0.0
-10.0,-26.0,13.0,-37.0,-53.0,-59.0,-29.0,-41.0,-58.0,-74.0,0.0
-15.0,-121.0,-34.0,-64.0,-72.0,-68.0,-32.0,-32.0,-32.0,-43.0,0.0
-125.0,-227.0,-67.0,-49.0,-69.0,-63.0,-10.0,-1.0,-3.0,-34.0,0.0
-235.0,-271.0,-67.0,-31.0,-50.0,-55.0,-7.0,-8.0,-26.0,-78.0,0.0
-271.0,-268.0,-59.0,-34.0,-33.0,-51.0,-18.0,-18.0,-24.0,-73.0,0.0
-192.0,-170.0,-23.0,-12.0,-11.0,-30.0,-12.0,0.0,-11.0,-28.0,0.0
-92.0,-75.0,-10.0,19.0,14.0,0.0,12.0,30.0,6.0,17.0,0.0
-32.0,-18.0,14.0,42.0,28.0,24.0,27.0,41.0,27.0,45.0,1.0
13.0,27.0,38.0,66.0,49.0,47.0,13.0,46.0,32.0,58.0,1.0
63.0,57.0,42.0,75.0,69.0,63.0,19.0,51.0,44.0,61.0,1.0
116.0,86.0,43.0,73.0,64.0,72.0,11.0,49.0,43.0,65.0,1.0
186.0,123.0,48.0,63.0,64.0,50.0,0.0,22.0,21.0,51.0,1.0
235.0,148.0,22.0,45.0,57.0,19.0,-11.0,-1.0,0.0,42.0,1.0
210.0,156.0,29.0,20.0,45.0,13.0,-2.0,-11.0,16.0,51.0,1.0
110.0,161.0,63.0,15.0,20.0,7.0,-10.0,-16.0,19.0,39.0,1.0
-15.0,96.0,51.0,14.0,8.0,-17.0,-11.0,-10.0,5.0,11.0,1.0
-109.0,-5.0,48.0,16.0,-4.0,-39.0,-20.0,-7.0,-7.0,-28.0,1.0
-171.0,-75.0,13.0,-3.0,-26.0,-48.0,-26.0,-19.0,-17.0,-62.0,1.0
-189.0,-157.0,-41.0,-32.0,-39.0,-40.0,-17.0,-21.0,-10.0,-56.0,1.0
-144.0,-195.0,-69.0,-38.0,-36.0,-40.0,-5.0,-11.0,-12.0,-59.0,1.0
-79.0,-126.0,-43.0,-33.0,-33.0,-44.0,-7.0,-13.0,-23.0,-56.0,1.0
-58.0,-55.0,-18.0,-16.0,-13.0,-31.0,-17.0,-6.0,-24.0,-48.0,1.0
-69.0,-7.0,-4.0,13.0,5.0,-3.0,-8.0,16.0,17.0,-7.0,1.0
-68.0,32.0,11.0,18.0,30.0,33.0,22.0,46.0,53.0,48.0,1.0
-25.0,106.0,49.0,42.0,49.0,54.0,16.0,45.0,50.0,48.0,1.0
22.0,144.0,77.0,62.0,73.0,77.0,16.0,46.0,45.0,24.0,0.0
99.0,125.0,56.0,61.0,82.0,90.0,12.0,66.0,67.0,42.0,0.0
146.0,79.0,25.0,34.0,59.0,97.0,13.0,68.0,72.0,51.0,0.0
118.0,18.0,8.0,16.0,48.0,81.0,10.0,60.0,58.0,39.0,0.0
78.0,17.0,6.0,6.0,51.0,65.0,21.0,53.0,60.0,30.0,0.0
87.0,20.0,-6.0,-4.0,33.0,30.0,-7.0,26.0,17.0,19.0,0.0
71.0,-21.0,-29.0,-23.0,6.0,0.0,-11.0,13.0,10.0,29.0,0.0
18.0,-53.0,-21.0,-24.0,-12.0,-14.0,-16.0,2.0,8.0,17.0,0.0
-14.0,-34.0,-5.0,-22.0,-27.0,-37.0,-37.0,-35.0,-53.0,-53.0,0.0
-22.0,-3.0,-11.0,-41.0,-42.0,-59.0,-47.0,-56.0,-84.0,-89.0,0.0
-34.0,-8.0,-26.0,-48.0,-48.0,-57.0,-38.0,-57.0,-87.0,-87.0,0.0
-68.0,-37.0,-38.0,-41.0,-42.0,-36.0,-36.0,-40.0,-56.0,-58.0,0.0
-104.0,-54.0,-34.0,-33.0,-38.0,-25.0,-42.0,-33.0,-52.0,-60.0,0.0
-92.0,-47.0,0.0,-10.0,-26.0,-19.0,-39.0,-33.0,-61.0,-97.0,0.0
0.0,0.0,23.0,6.0,11.0,-7.0,-23.0,-30.0,-45.0,-79.0,0.0
72.0,38.0,28.0,17.0,24.0,8.0,-9.0,-20.0,-23.0,-37.0,0.0
69.0,30.0,30.0,24.0,36.0,29.0,5.0,2.0,23.0,13.0,0.0
42.0,29.0,30.0,28.0,65.0,47.0,14.0,41.0,61.0,60.0,0.0
22.0,48.0,48.0,41.0,87.0,62.0,23.0,50.0,38.0,33.0,0.0
1.0,43.0,55.0,46.0,84.0,77.0,20.0,41.0,25.0,14.0,0.0
21.0,48.0,50.0,33.0,63.0,65.0,25.0,41.0,29.0,21.0,0.0
25.0,33.0,22.0,35.0,54.0,52.0,30.0,32.0,45.0,26.0,0.0
0.0,-6.0,-13.0,27.0,27.0,26.0,30.0,15.0,21.0,19.0,0.0
-13.0,-19.0,-36.0,-6.0,9.0,-3.0,19.0,4.0,0.0,1.0,0.0
-8.0,-25.0,-45.0,-26.0,-8.0,-30.0,8.0,-7.0,-26.0,-10.0,0.0
-20.0,-32.0,-39.0,-36.0,-36.0,-66.0,-9.0,-25.0,-42.0,-34.0,0.0
-39.0,-48.0,-53.0,-43.0,-59.0,-90.0,-10.0,-49.0,-58.0,-42.0,0.0
-61.0,-58.0,-57.0,-57.0,-72.0,-93.0,-12.0,-48.0,-69.0,-61.0,0.0
-65.0,-57.0,-58.0,-46.0,-69.0,-80.0,-10.0,-39.0,-69.0,-66.0,0.0
-30.0,-38.0,-43.0,-27.0,-60.0,-69.0,-14.0,-44.0,-65.0,-55.0,0.0
28.0,6.0,-12.0,-12.0,-40.0,-45.0,-11.0,-34.0,-57.0,-44.0,0.0
111.0,55.0,5.0,-3.0,-13.0,-18.0,-4.0,-23.0,-38.0,-1.0,0.0
165.0,87.0,26.0,-3.0,-6.0,-12.0,-1.0,-14.0,-8.0,39.0,0.0
191.0,146.0,40.0,4.0,10.0,6.0,2.0,13.0,47.0,81.0,0.0
197.0,212.0,61.0,24.0,39.0,32.0,11.0,38.0,67.0,108.0,0.0
189.0,240.0,82.0,46.0,46.0,34.0,17.0,31.0,45.0,66.0,0.0
141.0,181.0,38.0,27.0,47.0,43.0,30.0,47.0,54.0,65.0,0.0
110.0,88.0,-14.0,-18.0,41.0,45.0,37.0,67.0,82.0,104.0,0.0
157.0,56.0,-2.0,-36.0,16.0,12.0,9.0,36.0,45.0,100.0,0.0
116.0,26.0,34.0,-9.0,-2.0,-12.0,-15.0,-11.0,-3.0,21.0,0.0
44.0,-47.0,13.0,-28.0,-24.0,-28.0,3.0,-4.0,24.0,11.0,0.0
-68.0,-103.0,-6.0,-28.0,-39.0,-31.0,10.0,-14.0,15.0,-41.0,0.0
-155.0,-137.0,-3.0,-13.0,-48.0,-48.0,-12.0,-36.0,-24.0,-105.0,0.0
-186.0,-158.0,-30.0,-39.0,-62.0,-64.0,-16.0,-46.0,-41.0,-88.0,0.0
-256.0,-151.0,-48.0,-46.0,-57.0,-55.0,2.0,-50.0,-49.0,-96.0,0.0
-272.0,-122.0,-54.0,-38.0,-50.0,-53.0,17.0,-25.0,-23.0,-64.0,0.0
-203.0,-71.0,-41.0,-30.0,-40.0,-38.0,46.0,-10.0,0.0,-42.0,0.0
-73.0,1.0,-13.0,-21.0,-13.0,-4.0,42.0,3.0,20.0,-20.0,0.0
20.0,62.0,16.0,0.0,7.0,16.0,49.0,15.0,32.0,12.0,0.0
76.0,90.0,41.0,25.0,24.0,37.0,52.0,10.0,32.0,11.0,0.0
63.0,68.0,41.0,27.0,35.0,53.0,36.0,24.0,42.0,16.0,0.0
-31.0,-43.0,25.0,27.0,47.0,61.0,35.0,41.0,49.0,28.0,0.0
-116.0,-112.0,40.0,50.0,60.0,65.0,35.0,35.0,42.0,21.0,0.0
-81.0,-48.0,74.0,43.0,60.0,48.0,21.0,21.0,33.0,13.0,0.0
-3.0,24.0,54.0,23.0,48.0,27.0,25.0,7.0,13.0,3.0,0.0
44.0,49.0,15.0,-1.0,30.0,30.0,18.0,3.0,8.0,18.0,0.0
62.0,71.0,-29.0,-32.0,3.0,10.0,11.0,-1.0,3.0,36.0,0.0
59.0,97.0,-28.0,-37.0,-17.0,-18.0,7.0,-18.0,-10.0,6.0,0.0
3.0,70.0,-26.0,-28.0,-35.0,-44.0,-7.0,-28.0,-51.0,-36.0,0.0
-71.0,9.0,-36.0,-27.0,-53.0,-68.0,-8.0,-45.0,-57.0,-60.0,0.0
-148.0,-58.0,-41.0,-20.0,-48.0,-72.0,-5.0,-32.0,-52.0,-62.0,0.0
-172.0,-103.0,-42.0,-17.0,-42.0,-63.0,5.0,-17.0,-27.0,-44.0,0.0
-158.0,-110.0,-41.0,-11.0,-38.0,-55.0,-9.0,-33.0,-31.0,-71.0,0.0
-120.0,-128.0,-53.0,-32.0,-21.0,-46.0,-4.0,-30.0,-42.0,-72.0,0.0
-83.0,-156.0,-54.0,-25.0,3.0,-27.0,-1.0,1.0,-26.0,-19.0,0.0
-35.0,-114.0,-35.0,0.0,31.0,7.0,20.0,21.0,5.0,15.0,0.0
30.0,-12.0,6.0,14.0,41.0,19.0,5.0,31.0,1.0,26.0,0.0
65.0,48.0,44.0,38.0,50.0,35.0,8.0,28.0,0.0,36.0,0.0
83.0,65.0,59.0,58.0,64.0,51.0,20.0,44.0,18.0,75.0,0.0
56.0,55.0,57.0,64.0,73.0,60.0,14.0,60.0,29.0,85.0,0.0
0.0,35.0,49.0,78.0,65.0,41.0,23.0,41.0,13.0,39.0,0.0
-23.0,17.0,39.0,55.0,47.0,14.0,15.0,30.0,0.0,2.0,0.0
-12.0,1.0,26.0,33.0,21.0,-6.0,7.0,21.0,-6.0,-2.0,0.0
1.0,-3.0,1.0,7.0,-6.0,-20.0,1.0,3.0,-15.0,-1.0,0.0
-10.0,-23.0,-19.0,-13.0,-25.0,-46.0,-5.0,-16.0,-41.0,-14.0,0.0
-34.0,-37.0,-34.0,-32.0,-51.0,-74.0,-11.0,-41.0,-56.0,-28.0,0.0
-45.0,-41.0,-35.0,-41.0,-59.0,-89.0,-29.0,-57.0,-59.0,-43.0,0.0
-60.0,-38.0,-40.0,-50.0,-57.0,-83.0,-19.0,-49.0,-70.0,-48.0,0.0
-39.0,-21.0,-35.0,-38.0,-46.0,-66.0,-16.0,-41.0,-68.0,-60.0,0.0
16.0,6.0,-27.0,-16.0,-30.0,-55.0,-10.0,-34.0,-62.0,-56.0,0.0
85.0,29.0,-10.0,-5.0,-28.0,-52.0,-11.0,-15.0,-49.0,-30.0,0.0
117.0,49.0,2.0,3.0,-10.0,-32.0,3.0,-5.0,-12.0,12.0,0.0
107.0,50.0,5.0,5.0,22.0,0.0,14.0,17.0,30.0,69.0,0.0
89.0,88.0,30.0,32.0,46.0,34.0,35.0,38.0,59.0,85.0,0.0
97.0,153.0,65.0,65.0,58.0,51.0,32.0,34.0,42.0,49.0,0.0
113.0,154.0,69.0,74.0,70.0,53.0,11.0,26.0,36.0,48.0,0.0
118.0,150.0,49.0,55.0,49.0,35.0,1.0,11.0,25.0,64.0,0.0
109.0,119.0,37.0,48.0,36.0,3.0,-22.0,-12.0,6.0,57.0,0.0
85.0,82.0,34.0,44.0,26.0,2.0,-11.0,-23.0,11.0,40.0,0.0
-46.0,34.0,40.0,43.0,24.0,-7.0,-17.0,-42.0,-17.0,-19.0,0.0
-152.0,-35.0,16.0,19.0,13.0,-18.0,-12.0,-36.0,-25.0,-29.0,0.0
-176.0,-42.0,-9.0,-26.0,-21.0,-36.0,-11.0,-36.0,-19.0,-22.0,0.0
-185.0,-17.0,-50.0,-62.0,-62.0,-47.0,6.0,-15.0,45.0,25.0,0.0
-188.0,-9.0,-67.0,-79.0,-76.0,-50.0,16.0,5.0,89.0,92.0,0.0
-159.0,36.0,-26.0,-50.0,-68.0,-71.0,2.0,-15.0,59.0,50.0,0.0
-46.0,86.0,6.0,-30.0,-54.0,-73.0,-15.0,-41.0,25.0,-12.0,0.0
108.0,106.0,-7.0,-43.0,-58.0,-61.0,-31.0,-50.0,0.0,-51.0,0.0
192.0,86.0,-14.0,-32.0,-35.0,-27.0,-31.0,-38.0,-22.0,-77.0,0.0
173.0,-14.0,-16.0,-4.0,3.0,16.0,0.0,-5.0,-12.0,-62.0,0.0
72.0,-106.0,-28.0,15.0,34.0,41.0,10.0,13.0,-1.0,-60.0,0.0
-36.0,-153.0,-43.0,6.0,40.0,43.0,14.0,19.0,17.0,-38.0,0.0
-91.0,-97.0,-6.0,32.0,60.0,66.0,16.0,33.0,36.0,-31.0,0.0
-37.0,15.0,61.0,61.0,68.0,72.0,-12.0,34.0,20.0,-11.0,0.0
16.0,14.0,44.0,31.0,51.0,58.0,-14.0,50.0,44.0,41.0,0.0
20.0,-46.0,30.0,38.0,56.0,57.0,-7.0,38.0,40.0,16.0,0.0
50.0,-32.0,22.0,22.0,53.0,48.0,3.0,26.0,25.0,5.0,0.0
34.0,19.0,-3.0,2.0,32.0,28.0,-14.0,1.0,7.0,-1.0,0.0
-10.0,28.0,5.0,-9.0,-6.0,-10.0,-30.0,-26.0,-3.0,0.0,0.0
-23.0,41.0,13.0,-28.0,-46.0,-48.0,-43.0,-54.0,-23.0,-8.0,0.0
-44.0,40.0,5.0,-44.0,-58.0,-67.0,-56.0,-73.0,-38.0,-39.0,0.0
-69.0,15.0,2.0,-51.0,-60.0,-78.0,-55.0,-87.0,-61.0,-85.0,0.0
-67.0,-56.0,-42.0,-57.0,-67.0,-84.0,-52.0,-72.0,-53.0,-58.0,0.0
-100.0,-214.0,-106.0,-84.0,-81.0,-82.0,-42.0,-61.0,-23.0,-16.0,0.0
-164.0,-292.0,-96.0,-67.0,-56.0,-59.0,-34.0,-61.0,-26.0,-45.0,0.0
-126.0,-212.0,-60.0,-25.0,-20.0,-19.0,-29.0,-48.0,-25.0,-35.0,0.0
-15.0,-108.0,-34.0,-2.0,-5.0,0.0,-2.0,-23.0,9.0,19.0,0.0
43.0,-26.0,1.0,12.0,6.0,19.0,16.0,-11.0,26.0,53.0,0.0
56.0,6.0,36.0,13.0,29.0,44.0,16.0,1.0,26.0,56.0,0.0
62.0,14.0,30.0,23.0,48.0,51.0,19.0,18.0,40.0,71.0,0.0
64.0,23.0,25.0,35.0,46.0,50.0,11.0,27.0,45.0,78.0,0.0
72.0,44.0,32.0,51.0,40.0,48.0,4.0,19.0,39.0,50.0,0.0
60.0,36.0,24.0,27.0,30.0,38.0,-11.0,16.0,24.0,33.0,0.0
21.0,4.0,5.0,0.0,9.0,11.0,-19.0,16.0,10.0,26.0,0.0
-3.0,-9.0,-4.0,-24.0,-5.0,-5.0,-26.0,-3.0,-7.0,0.0,0.0
-10.0,-17.0,-5.0,-39.0,-23.0,-26.0,-33.0,-17.0,-20.0,-34.0,0.0
-36.0,-23.0,-32.0,-55.0,-40.0,-53.0,-37.0,-32.0,-38.0,-56.0,0.0
-57.0,-41.0,-52.0,-70.0,-46.0,-73.0,-38.0,-36.0,-46.0,-54.0,0.0
-58.0,-55.0,-59.0,-64.0,-55.0,-76.0,-38.0,-34.0,-50.0,-42.0,0.0
-35.0,-41.0,-48.0,-61.0,-48.0,-67.0,-33.0,-36.0,-50.0,-42.0,0.0
-14.0,-16.0,-26.0,-43.0,-39.0,-57.0,-23.0,-33.0,-46.0,-37.0,0.0
19.0,1.0,0.0,-21.0,-24.0,-34.0,-14.0,-18.0,-46.0,-35.0,0.0
59.0,24.0,7.0,4.0,5.0,-14.0,1.0,-5.0,-30.0,2.0,0.0
87.0,46.0,20.0,13.0,34.0,10.0,22.0,2.0,4.0,25.0,0.0
109.0,89.0,45.0,34.0,51.0,26.0,19.0,18.0,13.0,33.0,0.0
122.0,124.0,64.0,42.0,77.0,42.0,21.0,33.0,22.0,54.0,0.0
138.0,136.0,56.0,35.0,78.0,54.0,8.0,40.0,19.0,68.0,0.0
145.0,118.0,45.0,24.0,55.0,30.0,-5.0,44.0,10.0,79.0,0.0
149.0,108.0,36.0,29.0,46.0,21.0,-5.0,31.0,8.0,83.0,0.0
147.0,103.0,39.0,33.0,40.0,18.0,-5.0,21.0,-6.0,50.0,0.0
139.0,98.0,11.0,12.0,11.0,8.0,-15.0,14.0,-36.0,19.0,0.0
89.0,19.0,-42.0,-28.0,-13.0,-11.0,-11.0,12.0,-25.0,17.0,0.0
-9.0,-123.0,-100.0,-61.0,-25.0,-13.0,7.0,14.0,20.0,39.0,0.0
-60.0,-137.0,-93.0,-58.0,-40.0,-41.0,5.0,-20.0,-3.0,-2.0,0.0
-133.0,-106.0,-52.0,-38.0,-43.0,-54.0,-3.0,-41.0,-51.0,-90.0,0.0
-163.0,-108.0,-42.0,-30.0,-32.0,-39.0,4.0,-23.0,-41.0,-78.0,0.0
-136.0,-103.0,-30.0,-24.0,-38.0,-45.0,-2.0,-15.0,-24.0,-29.0,0.0
-108.0,-68.0,-12.0,0.0,-36.0,-40.0,-10.0,-17.0,-35.0,-34.0,0.0
-24.0,-12.0,8.0,0.0,-24.0,-17.0,-15.0,-17.0,-33.0,-9.0,0.0
83.0,56.0,28.0,10.0,-12.0,-4.0,-22.0,-9.0,-8.0,17.0,0.0
131.0,100.0,31.0,13.0,6.0,19.0,-1.0,26.0,36.0,69.0,0.0
119.0,89.0,39.0,28.0,42.0,62.0,40.0,68.0,70.0,99.0,0.0
148.0,94.0,36.0,45.0,67.0,75.0,25.0,55.0,46.0,88.0,0.0
204.0,112.0,33.0,39.0,62.0,66.0,6.0,36.0,31.0,95.0,0.0
184.0,100.0,27.0,22.0,33.0,49.0,-1.0,13.0,4.0,70.0,0.0
117.0,56.0,12.0,10.0,16.0,32.0,1.0,6.0,1.0,39.0,0.0
-37.0,-51.0,-13.0,-9.0,2.0,12.0,3.0,29.0,45.0,64.0,0.0
-291.0,-151.0,-2.0,4.0,-12.0,2.0,0.0,25.0,38.0,-17.0,0.0
-333.0,-151.0,-2.0,0.0,-15.0,4.0,6.0,16.0,12.0,-85.0,0.0
-258.0,-160.0,-18.0,-24.0,-42.0,-11.0,3.0,4.0,0.0,-67.0,0.0
-221.0,-184.0,-65.0,-48.0,-65.0,-17.0,23.0,11.0,0.0,-59.0,0.0
-146.0,-108.0,-73.0,-45.0,-70.0,-22.0,15.0,-6.0,-14.0,-53.0,0.0
-49.0,-19.0,-42.0,-29.0,-76.0,-30.0,-4.0,-23.0,-41.0,-41.0,0.0
16.0,46.0,-26.0,-16.0,-65.0,-38.0,-21.0,-24.0,-58.0,-25.0,0.0
45.0,83.0,0.0,-8.0,-50.0,-29.0,-35.0,-27.0,-55.0,-13.0,0.0
55.0,74.0,27.0,18.0,-22.0,1.0,-19.0,-11.0,-30.0,-7.0,0.0
70.0,54.0,38.0,35.0,0.0,20.0,-3.0,3.0,-3.0,-2.0,0.0
83.0,47.0,30.0,38.0,13.0,21.0,-1.0,17.0,5.0,14.0,0.0
48.0,16.0,15.0,32.0,29.0,54.0,8.0,44.0,36.0,26.0,0.0
-25.0,-50.0,3.0,50.0,39.0,84.0,9.0,73.0,67.0,24.0,0.0
-51.0,-80.0,0.0,34.0,36.0,90.0,28.0,64.0,60.0,17.0,0.0
-4.0,-60.0,-9.0,2.0,26.0,81.0,13.0,50.0,44.0,2.0,0.0
47.0,-37.0,-13.0,-11.0,10.0,65.0,16.0,34.0,30.0,-8.0,0.0
70.0,-20.0,-22.0,-19.0,-11.0,44.0,1.0,5.0,10.0,-14.0,0.0
60.0,-21.0,-30.0,-19.0,-37.0,17.0,-18.0,-15.0,2.0,-18.0,0.0
11.0,-40.0,-50.0,-32.0,-51.0,-1.0,-18.0,-14.0,-3.0,-20.0,0.0
-39.0,-64.0,-61.0,-55.0,-71.0,-27.0,-19.0,-23.0,-29.0,-42.0,0.0
-47.0,-69.0,-58.0,-45.0,-93.0,-48.0,-30.0,-39.0,-60.0,-61.0,0.0
-17.0,-50.0,-63.0,-29.0,-92.0,-52.0,-37.0,-41.0,-54.0,-58.0,0.0
24.0,-30.0,-53.0,-31.0,-76.0,-43.0,-41.0,-44.0,-47.0,-56.0,0.0
52.0,-24.0,-37.0,-40.0,-69.0,-39.0,-37.0,-36.0,-39.0,-15.0,0.0
68.0,-31.0,-56.0,-36.0,-58.0,-25.0,-38.0,-3.0,-1.0,35.0,0.0
90.0,-20.0,-49.0,-22.0,-30.0,-12.0,-13.0,20.0,37.0,71.0,0.0
48.0,5.0,4.0,21.0,9.0,3.0,4.0,16.0,31.0,32.0,0.0
0.0,44.0,60.0,83.0,61.0,45.0,6.0,28.0,7.0,-21.0,0.0
20.0,62.0,66.0,90.0,80.0,74.0,37.0,65.0,31.0,13.0,0.0
47.0,56.0,46.0,72.0,70.0,87.0,43.0,68.0,74.0,45.0,0.0
76.0,43.0,32.0,64.0,59.0,76.0,42.0,59.0,62.0,48.0,0.0
78.0,34.0,29.0,63.0,41.0,64.0,23.0,38.0,33.0,36.0,0.0
108.0,35.0,5.0,33.0,14.0,31.0,-12.0,6.0,10.0,17.0,0.0
113.0,60.0,14.0,17.0,-7.0,-5.0,-27.0,-24.0,-11.0,3.0,0.0
95.0,75.0,24.0,4.0,-17.0,-23.0,-24.0,-30.0,-18.0,-4.0,0.0
61.0,58.0,24.0,-12.0,-35.0,-40.0,-23.0,-31.0,-9.0,-24.0,0.0
-13.0,-2.0,-4.0,-30.0,-59.0,-63.0,-43.0,-54.0,-19.0,-35.0,0.0
-121.0,-47.0,-19.0,-37.0,-72.0,-67.0,-54.0,-67.0,-37.0,-69.0,0.0
-194.0,-65.0,-3.0,-29.0,-55.0,-60.0,-48.0,-59.0,-39.0,-67.0,0.0
-189.0,-28.0,40.0,-2.0,-25.0,-43.0,-33.0,-56.0,-47.0,-81.0,0.0
-118.0,52.0,69.0,7.0,-3.0,-26.0,-24.0,-55.0,-64.0,-104.0,0.0
30.0,102.0,42.0,6.0,17.0,-4.0,-9.0,-39.0,-46.0,-54.0,0.0
114.0,95.0,4.0,14.0,23.0,25.0,10.0,-2.0,-1.0,15.0,0.0
123.0,83.0,14.0,19.0,38.0,43.0,29.0,35.0,43.0,68.0,0.0
101.0,58.0,26.0,34.0,56.0,42.0,36.0,60.0,68.0,106.0,0.0
94.0,46.0,50.0,56.0,74.0,46.0,23.0,41.0,55.0,75.0,0.0
99.0,8.0,44.0,57.0,71.0,41.0,10.0,34.0,24.0,31.0,0.0
77.0,-17.0,36.0,46.0,61.0,38.0,1.0,35.0,9.0,11.0,0.0
75.0,-4.0,23.0,34.0,60.0,38.0,10.0,47.0,21.0,3.0,0.0
38.0,3.0,-5.0,13.0,35.0,22.0,3.0,37.0,13.0,3.0,0.0
4.0,40.0,-21.0,-9.0,-3.0,2.0,-10.0,-4.0,-28.0,-37.0,0.0
-42.0,40.0,-38.0,-32.0,-38.0,-31.0,-18.0,-31.0,-26.0,-33.0,0.0
-99.0,-26.0,-79.0,-61.0,-54.0,-47.0,-5.0,-34.0,10.0,0.0,0.0
-166.0,-81.0,-93.0,-59.0,-63.0,-56.0,7.0,-37.0,1.0,-10.0,0.0
-267.0,-109.0,-77.0,-45.0,-81.0,-72.0,-8.0,-55.0,-24.0,-59.0,0.0
-323.0,-131.0,-70.0,-45.0,-67.0,-64.0,10.0,-28.0,-11.0,-67.0,0.0
-303.0,-114.0,-63.0,-25.0,-31.0,-14.0,61.0,16.0,20.0,-29.0,0.0
-216.0,12.0,-8.0,20.0,13.0,18.0,60.0,20.0,17.0,-39.0,0.0
-70.0,123.0,33.0,38.0,37.0,36.0,65.0,23.0,24.0,-15.0,0.0
88.0,165.0,27.0,50.0,33.0,48.0,50.0,31.0,35.0,20.0,0.0
197.0,181.0,21.0,60.0,44.0,50.0,40.0,36.0,22.0,22.0,0.0
228.0,121.0,8.0,49.0,53.0,55.0,42.0,34.0,20.0,23.0,0.0
140.0,-36.0,-35.0,23.0,32.0,54.0,32.0,31.0,10.0,27.0,0.0
9.0,-174.0,-60.0,4.0,22.0,52.0,32.0,25.0,10.0,29.0,0.0
-108.0,-274.0,-71.0,4.0,22.0,46.0,22.0,25.0,13.0,21.0,0.0
-133.0,-245.0,-46.0,18.0,27.0,46.0,15.0,19.0,7.0,-4.0,0.0
-70.0,-130.0,-28.0,14.0,12.0,31.0,-16.0,2.0,-3.0,-14.0,0.0
-25.0,-79.0,-33.0,-10.0,-20.0,-6.0,-32.0,-10.0,0.0,-7.0,0.0
-51.0,-70.0,-21.0,-15.0,-36.0,-33.0,-42.0,-31.0,-11.0,-20.0,0.0
-68.0,-78.0,-32.0,-32.0,-56.0,-44.0,-34.0,-41.0,-31.0,-27.0,0.0
-57.0,-72.0,-53.0,-48.0,-71.0,-45.0,-25.0,-51.0,-50.0,-59.0,0.0
-32.0,-65.0,-57.0,-47.0,-71.0,-50.0,-24.0,-45.0,-71.0,-74.0,0.0
-5.0,-44.0,-41.0,-53.0,-68.0,-41.0,-21.0,-39.0,-55.0,-60.0,0.0
-1.0,-41.0,-53.0,-66.0,-67.0,-33.0,-18.0,-24.0,-18.0,-22.0,0.0
-11.0,-34.0,-35.0,-48.0,-32.0,-22.0,-18.0,3.0,-11.0,4.0,0.0
-18.0,-6.0,-8.0,-2.0,9.0,-1.0,-11.0,15.0,-1.0,14.0,0.0
-11.0,12.0,12.0,10.0,32.0,41.0,1.0,23.0,16.0,21.0,0.0
11.0,57.0,38.0,26.0,57.0,72.0,19.0,33.0,28.0,36.0,0.0
26.0,85.0,55.0,46.0,72.0,93.0,17.0,45.0,35.0,48.0,0.0
54.0,91.0,68.0,52.0,65.0,83.0,6.0,40.0,39.0,64.0,0.0
67.0,88.0,58.0,42.0,50.0,79.0,-14.0,34.0,32.0,74.0,0.0
61.0,72.0,30.0,30.0,32.0,71.0,-19.0,17.0,32.0,60.0,0.0
54.0,59.0,37.0,21.0,12.0,49.0,-22.0,7.0,18.0,36.0,0.0
45.0,39.0,28.0,-1.0,-7.0,25.0,-25.0,-11.0,5.0,9.0,0.0
24.0,13.0,-3.0,-28.0,-33.0,9.0,-32.0,-24.0,-11.0,-16.0,0.0
4.0,-1.0,-24.0,-51.0,-51.0,-4.0,-39.0,-28.0,-25.0,-24.0,0.0
-33.0,-12.0,-44.0,-71.0,-65.0,-30.0,-38.0,-44.0,-46.0,-44.0,0.0
-84.0,-22.0,-43.0,-84.0,-74.0,-50.0,-32.0,-61.0,-58.0,-69.0,0.0
-87.0,-31.0,-35.0,-73.0,-67.0,-38.0,-25.0,-58.0,-53.0,-72.0,0.0
-56.0,-24.0,-37.0,-59.0,-51.0,-27.0,-20.0,-50.0,-44.0,-41.0,0.0
-18.0,-3.0,-42.0,-44.0,-35.0,-17.0,-9.0,-28.0,-19.0,-14.0,0.0
24.0,23.0,-29.0,-26.0,-25.0,-2.0,-1.0,-14.0,1.0,11.0,0.0
90.0,76.0,-12.0,-25.0,-13.0,10.0,1.0,2.0,11.0,51.0,0.0
168.0,133.0,12.0,-29.0,7.0,11.0,7.0,19.0,41.0,90.0,0.0
241.0,216.0,39.0,-6.0,27.0,10.0,-5.0,27.0,59.0,124.0,0.0
251.0,222.0,40.0,16.0,54.0,35.0,2.0,46.0,68.0,140.0,0.0
159.0,150.0,47.0,33.0,95.0,68.0,31.0,52.0,55.0,91.0,0.0
51.0,102.0,70.0,56.0,100.0,72.0,32.0,27.0,38.0,29.0,0.0
-12.0,68.0,80.0,67.0,80.0,62.0,21.0,10.0,14.0,0.0,0.0
-67.0,26.0,60.0,53.0,62.0,46.0,13.0,2.0,-3.0,-28.0,0.0
-80.0,-23.0,21.0,12.0,30.0,1.0,17.0,-2.0,-12.0,-35.0,0.0
-75.0,-10.0,15.0,-23.0,-4.0,-33.0,-12.0,-19.0,-29.0,-74.0,0.0
-65.0,35.0,6.0,-32.0,-33.0,-57.0,-27.0,-55.0,-58.0,-98.0,0.0
-29.0,39.0,-8.0,-37.0,-55.0,-85.0,-21.0,-76.0,-77.0,-93.0,0.0
-9.0,23.0,-6.0,-50.0,-58.0,-93.0,-32.0,-79.0,-100.0,-101.0,0.0
29.0,50.0,11.0,-42.0,-49.0,-92.0,-36.0,-77.0,-90.0,-80.0,0.0
51.0,76.0,22.0,-33.0,-56.0,-95.0,-34.0,-51.0,-45.0,-14.0,0.0
-15.0,9.0,13.0,-23.0,-33.0,-56.0,-16.0,-13.0,-11.0,11.0,0.0
-109.0,-104.0,-8.0,-8.0,4.0,-12.0,8.0,28.0,27.0,27.0,0.0
-143.0,-145.0,13.0,12.0,29.0,12.0,17.0,49.0,42.0,30.0,0.0
-112.0,-88.0,57.0,42.0,32.0,22.0,17.0,62.0,59.0,47.0,0.0
-18.0,-28.0,67.0,60.0,46.0,32.0,25.0,74.0,78.0,91.0,0.0
44.0,-26.0,68.0,66.0,56.0,38.0,9.0,63.0,55.0,83.0,0.0
8.0,-32.0,60.0,78.0,56.0,42.0,9.0,55.0,29.0,23.0,0.0
0.0,-36.0,54.0,78.0,65.0,55.0,11.0,36.0,26.0,-10.0,0.0
11.0,-38.0,48.0,72.0,51.0,46.0,9.0,23.0,3.0,-7.0,0.0
23.0,-34.0,30.0,41.0,28.0,8.0,-6.0,18.0,-32.0,-2.0,0.0
-54.0,-77.0,-6.0,8.0,4.0,-10.0,-2.0,19.0,-13.0,6.0,0.0
-146.0,-114.0,-27.0,-17.0,-16.0,-26.0,-4.0,21.0,-6.0,-7.0,0.0
-142.0,-85.0,-47.0,-32.0,-34.0,-48.0,2.0,2.0,-31.0,-26.0,0.0
-105.0,-32.0,-60.0,-33.0,-50.0,-59.0,-14.0,-23.0,-33.0,-29.0,0.0
-54.0,2.0,-57.0,-35.0,-63.0,-60.0,-13.0,-34.0,-17.0,-31.0,0.0
3.0,38.0,-46.0,-30.0,-67.0,-57.0,2.0,-29.0,-22.0,-24.0,0.0
66.0,52.0,-31.0,-23.0,-58.0,-53.0,5.0,-17.0,-12.0,-14.0,0.0
99.0,45.0,-18.0,-15.0,-31.0,-36.0,-13.0,-18.0,-10.0,8.0,0.0
65.0,27.0,-15.0,-2.0,-5.0,-17.0,-15.0,-1.0,-8.0,19.0,0.0
-29.0,-56.0,-23.0,13.0,11.0,0.0,-13.0,12.0,4.0,35.0,0.0
-69.0,-95.0,-10.0,27.0,37.0,33.0,1.0,35.0,28.0,63.0,0.0
-15.0,-43.0,19.0,36.0,63.0,45.0,13.0,43.0,37.0,80.0,0.0
27.0,-15.0,30.0,28.0,64.0,46.0,13.0,44.0,32.0,76.0,0.0
34.0,0.0,32.0,22.0,55.0,42.0,1.0,43.0,30.0,60.0,0.0
34.0,26.0,30.0,20.0,49.0,29.0,-1.0,36.0,34.0,56.0,0.0
13.0,22.0,13.0,9.0,30.0,10.0,4.0,20.0,28.0,37.0,0.0
-2.0,9.0,-12.0,-5.0,7.0,-6.0,1.0,5.0,15.0,17.0,0.0
-17.0,16.0,-20.0,-25.0,-10.0,-29.0,-1.0,-3.0,9.0,7.0,0.0
-43.0,10.0,-28.0,-39.0,-30.0,-50.0,-13.0,-22.0,-14.0,-13.0,0.0
-30.0,-4.0,-48.0,-65.0,-44.0,-66.0,-22.0,-38.0,-27.0,-33.0,0.0
38.0,-5.0,-56.0,-72.0,-45.0,-66.0,-19.0,-48.0,-42.0,-54.0,0.0
91.0,11.0,-53.0,-69.0,-45.0,-54.0,-8.0,-50.0,-46.0,-61.0,0.0
83.0,29.0,-35.0,-60.0,-39.0,-46.0,-2.0,-39.0,-34.0,-52.0,0.0
43.0,30.0,-25.0,-46.0,-31.0,-23.0,1.0,-27.0,-8.0,-35.0,0.0
22.0,39.0,4.0,-23.0,-26.0,-16.0,-12.0,-17.0,9.0,-9.0,0.0
-5.0,54.0,27.0,-1.0,-10.0,-14.0,-9.0,-22.0,7.0,-10.0,0.0
-46.0,25.0,26.0,16.0,33.0,18.0,16.0,8.0,28.0,0.0,0.0
-2.0,53.0,37.0,29.0,61.0,38.0,12.0,19.0,41.0,41.0,0.0
131.0,114.0,34.0,29.0,60.0,46.0,-4.0,14.0,31.0,58.0,0.0
215.0,138.0,2.0,5.0,43.0,29.0,-19.0,0.0,27.0,70.0,0.0
243.0,148.0,-21.0,-4.0,32.0,29.0,-20.0,11.0,25.0,79.0,0.0
233.0,189.0,-14.0,2.0,32.0,31.0,-13.0,17.0,15.0,81.0,0.0
139.0,186.0,10.0,-7.0,20.0,21.0,-6.0,11.0,2.0,58.0,0.0
2.0,110.0,3.0,-22.0,6.0,12.0,1.0,-21.0,-16.0,-9.0,0.0
-100.0,28.0,-11.0,-34.0,-8.0,-1.0,-1.0,-34.0,-17.0,-35.0,0.0
-169.0,-8.0,-17.0,-54.0,-34.0,-19.0,2.0,-16.0,5.0,-26.0,0.0
-237.0,0.0,-16.0,-48.0,-51.0,-30.0,2.0,-6.0,0.0,-54.0,0.0
-235.0,55.0,-1.0,-31.0,-56.0,-46.0,-16.0,-37.0,-28.0,-113.0,0.0
-89.0,120.0,12.0,-26.0,-68.0,-48.0,-26.0,-61.0,-40.0,-81.0,0.0
48.0,137.0,17.0,-23.0,-56.0,-35.0,-19.0,-47.0,-19.0,-41.0,0.0
136.0,85.0,14.0,-7.0,-28.0,2.0,2.0,-17.0,3.0,-12.0,0.0
118.0,-33.0,-1.0,-4.0,-5.0,0.0,-11.0,-7.0,0.0,3.0,0.0
-25.0,-182.0,-28.0,-15.0,-8.0,-11.0,-27.0,-5.0,-8.0,-16.0,0.0
-186.0,-282.0,-36.0,7.0,15.0,11.0,0.0,29.0,26.0,-12.0,0.0
-159.0,-215.0,-11.0,37.0,52.0,52.0,19.0,65.0,68.0,34.0,0.0
-36.0,-98.0,10.0,35.0,55.0,62.0,33.0,82.0,90.0,85.0,0.0
14.0,-23.0,14.0,28.0,36.0,52.0,28.0,59.0,66.0,68.0,0.0
36.0,3.0,11.0,28.0,21.0,26.0,31.0,38.0,53.0,31.0,0.0
43.0,2.0,15.0,19.0,14.0,3.0,27.0,16.0,39.0,39.0,0.0
-35.0,-45.0,6.0,10.0,0.0,-10.0,21.0,2.0,21.0,15.0,0.0
-117.0,-79.0,-9.0,17.0,0.0,-17.0,20.0,-7.0,-2.0,-47.0,0.0
-91.0,-30.0,-26.0,0.0,-21.0,-32.0,19.0,-18.0,-32.0,-58.0,0.0
-28.0,28.0,-31.0,-23.0,-61.0,-64.0,-1.0,-40.0,-40.0,-51.0,0.0
14.0,58.0,-42.0,-51.0,-82.0,-79.0,-17.0,-54.0,-21.0,-44.0,0.0
26.0,41.0,-62.0,-73.0,-82.0,-80.0,2.0,-39.0,7.0,-14.0,0.0
55.0,18.0,-62.0,-60.0,-71.0,-83.0,-2.0,-44.0,-9.0,-28.0,0.0
15.0,-34.0,-27.0,-24.0,-47.0,-66.0,-24.0,-56.0,-37.0,-49.0,0.0
-94.0,-101.0,12.0,10.0,-22.0,-41.0,-23.0,-40.0,-38.0,-45.0,0.0
-152.0,-101.0,26.0,27.0,-2.0,-16.0,-4.0,-15.0,-28.0,-54.0,0.0
-95.0,-67.0,26.0,40.0,31.0,28.0,9.0,15.0,9.0,-29.0,0.0
-17.0,-40.0,25.0,48.0,47.0,45.0,28.0,37.0,44.0,0.0,0.0
19.0,-18.0,33.0,58.0,61.0,58.0,45.0,60.0,62.0,48.0,0.0
15.0,-16.0,44.0,64.0,72.0,75.0,54.0,62.0,63.0,75.0,0.0
30.0,0.0,50.0,61.0,69.0,58.0,38.0,61.0,56.0,83.0,0.0
55.0,2.0,35.0,43.0,58.0,38.0,31.0,55.0,55.0,87.0,0.0
72.0,5.0,17.0,26.0,42.0,20.0,18.0,40.0,32.0,77.0,0.0
53.0,-5.0,-5.0,16.0,24.0,5.0,12.0,33.0,18.0,47.0,0.0
58.0,3.0,-16.0,16.0,-1.0,-18.0,13.0,5.0,-12.0,-2.0,0.0
67.0,9.0,-26.0,-6.0,-32.0,-64.0,-17.0,-30.0,-65.0,-68.0,0.0
13.0,-26.0,-52.0,-33.0,-55.0,-82.0,-27.0,-46.0,-88.0,-98.0,0.0
-63.0,-69.0,-56.0,-26.0,-40.0,-73.0,-1.0,-49.0,-87.0,-113.0,0.0
-96.0,-58.0,-52.0,-22.0,-22.0,-61.0,7.0,-42.0,-73.0,-116.0,0.0
-73.0,-31.0,-47.0,-50.0,-28.0,-55.0,15.0,-28.0,-43.0,-84.0,0.0
-11.0,25.0,-29.0,-47.0,-18.0,-59.0,7.0,-30.0,-33.0,-45.0,0.0
50.0,99.0,12.0,-22.0,10.0,-42.0,1.0,-6.0,-25.0,-13.0,0.0
93.0,151.0,50.0,-3.0,34.0,-20.0,16.0,3.0,-11.0,6.0,0.0
124.0,155.0,59.0,13.0,52.0,2.0,31.0,20.0,-1.0,26.0,0.0
160.0,158.0,45.0,40.0,80.0,42.0,41.0,34.0,12.0,16.0,0.0
225.0,171.0,23.0,36.0,91.0,58.0,35.0,45.0,31.0,47.0,0.0
227.0,162.0,31.0,26.0,71.0,51.0,38.0,58.0,41.0,86.0,0.0
180.0,126.0,36.0,19.0,33.0,29.0,23.0,39.0,50.0,104.0,0.0
84.0,46.0,24.0,4.0,19.0,2.0,7.0,23.0,45.0,96.0,0.0
-25.0,16.0,40.0,20.0,28.0,-16.0,0.0,-2.0,5.0,13.0,0.0
-90.0,-10.0,44.0,38.0,13.0,-23.0,-3.0,-17.0,-17.0,-50.0,0.0
-87.0,-21.0,41.0,27.0,-1.0,-37.0,0.0,-30.0,-54.0,-81.0,0.0
-51.0,-38.0,4.0,10.0,-5.0,-44.0,7.0,-42.0,-67.0,-94.0,0.0
0.0,-24.0,-20.0,-11.0,-19.0,-52.0,14.0,-40.0,-68.0,-84.0,0.0
-3.0,-32.0,-35.0,-24.0,-31.0,-61.0,14.0,-32.0,-68.0,-73.0,0.0
-30.0,-76.0,-70.0,-38.0,-52.0,-63.0,1.0,-29.0,-30.0,2.0,0.0
-163.0,-165.0,-78.0,-41.0,-67.0,-55.0,-6.0,-11.0,6.0,52.0,0.0
-253.0,-187.0,-32.0,-3.0,-29.0,-22.0,6.0,0.0,19.0,9.0,0.0
-142.0,-153.0,-4.0,27.0,13.0,11.0,11.0,8.0,18.0,-24.0,0.0
18.0,-123.0,-9.0,22.0,22.0,29.0,29.0,21.0,25.0,8.0,0.0
51.0,-89.0,-12.0,27.0,44.0,43.0,25.0,38.0,32.0,33.0,0.0
29.0,-46.0,1.0,48.0,56.0,47.0,23.0,51.0,44.0,40.0,0.0
15.0,-2.0,29.0,57.0,60.0,54.0,20.0,56.0,57.0,48.0,0.0
-47.0,23.0,63.0,63.0,58.0,50.0,29.0,52.0,42.0,48.0,0.0
-122.0,38.0,84.0,62.0,59.0,36.0,25.0,53.0,49.0,50.0,0.0
-104.0,71.0,86.0,50.0,54.0,29.0,10.0,41.0,34.0,48.0,0.0
-28.0,62.0,47.0,12.0,26.0,21.0,10.0,29.0,31.0,55.0,0.0
63.0,44.0,17.0,-7.0,-1.0,2.0,8.0,28.0,3.0,31.0,0.0
129.0,27.0,-3.0,-25.0,-21.0,-22.0,-6.0,11.0,-16.0,8.0,0.0
141.0,0.0,-37.0,-47.0,-53.0,-60.0,-22.0,-15.0,-33.0,-7.0,0.0
25.0,-63.0,-74.0,-68.0,-83.0,-74.0,-30.0,-47.0,-55.0,-62.0,0.0
-170.0,-156.0,-89.0,-84.0,-92.0,-64.0,-33.0,-55.0,-73.0,-106.0,0.0
-278.0,-185.0,-75.0,-67.0,-68.0,-41.0,-29.0,-48.0,-65.0,-93.0,0.0
-197.0,-154.0,-43.0,-56.0,-34.0,-12.0,-13.0,-34.0,-49.0,-48.0,0.0
-101.0,-89.0,-21.0,-49.0,-11.0,1.0,3.0,-9.0,-23.0,-5.0,0.0
-40.0,-35.0,-7.0,-29.0,18.0,30.0,18.0,12.0,6.0,27.0,0.0
0.0,-1.0,1.0,3.0,42.0,62.0,30.0,34.0,25.0,52.0,0.0
21.0,19.0,12.0,27.0,49.0,79.0,24.0,49.0,47.0,80.0,0.0
56.0,50.0,20.0,32.0,50.0,90.0,34.0,59.0,58.0,103.0,0.0
83.0,60.0,28.0,31.0,57.0,97.0,38.0,68.0,64.0,113.0,0.0
88.0,56.0,41.0,28.0,56.0,81.0,24.0,62.0,52.0,106.0,0.0
76.0,49.0,33.0,25.0,44.0,63.0,19.0,49.0,44.0,85.0,0.0
33.0,36.0,21.0,15.0,37.0,42.0,-2.0,37.0,26.0,63.0,0.0
-4.0,4.0,9.0,0.0,13.0,20.0,-9.0,13.0,0.0,30.0,0.0
-30.0,-15.0,-5.0,-15.0,-12.0,-1.0,-10.0,1.0,-21.0,-9.0,0.0
-39.0,-33.0,-20.0,-24.0,-37.0,-23.0,-18.0,-23.0,-52.0,-44.0,0.0
-21.0,-37.0,-43.0,-34.0,-74.0,-49.0,-24.0,-48.0,-78.0,-49.0,0.0
18.0,-22.0,-62.0,-33.0,-92.0,-54.0,-25.0,-51.0,-74.0,-42.0,0.0
63.0,7.0,-43.0,-29.0,-97.0,-62.0,-35.0,-46.0,-72.0,-51.0,0.0
88.0,23.0,-35.0,-30.0,-86.0,-59.0,-42.0,-48.0,-66.0,-49.0,0.0
70.0,3.0,-47.0,-30.0,-66.0,-32.0,-22.0,-20.0,-26.0,-2.0,0.0
66.0,0.0,-50.0,-18.0,-38.0,0.0,-6.0,5.0,14.0,29.0,0.0
61.0,40.0,-37.0,4.0,-16.0,25.0,0.0,7.0,24.0,31.0,0.0
60.0,65.0,-6.0,32.0,13.0,50.0,7.0,13.0,21.0,27.0,0.0
97.0,77.0,19.0,32.0,32.0,60.0,16.0,33.0,40.0,62.0,0.0
112.0,95.0,26.0,27.0,38.0,57.0,12.0,34.0,31.0,82.0,0.0
107.0,125.0,52.0,34.0,36.0,45.0,-18.0,12.0,2.0,45.0,0.0
65.0,118.0,70.0,44.0,40.0,31.0,-7.0,8.0,-4.0,45.0,0.0
-13.0,89.0,91.0,69.0,51.0,32.0,14.0,8.0,1.0,38.0,0.0
-65.0,56.0,79.0,62.0,40.0,23.0,0.0,2.0,-9.0,-1.0,0.0
-44.0,11.0,8.0,15.0,1.0,-3.0,0.0,-10.0,-12.0,-8.0,0.0
-42.0,-59.0,-37.0,0.0,-13.0,-25.0,3.0,-26.0,-7.0,-15.0,0.0
-106.0,-115.0,-50.0,-10.0,-10.0,-38.0,-5.0,-45.0,-36.0,-42.0,0.0
-170.0,-147.0,-39.0,-16.0,-31.0,-45.0,-12.0,-62.0,-61.0,-96.0,0.0
-173.0,-155.0,-40.0,-17.0,-46.0,-45.0,-2.0,-51.0,-40.0,-75.0,0.0
-122.0,-110.0,-32.0,-15.0,-42.0,-34.0,-9.0,-42.0,-27.0,-58.0,0.0
-81.0,-58.0,0.0,-4.0,-36.0,-28.0,-22.0,-43.0,-20.0,-51.0,0.0
-60.0,-21.0,11.0,8.0,-9.0,-5.0,-8.0,-30.0,-13.0,-27.0,0.0
-24.0,20.0,27.0,32.0,12.0,21.0,1.0,-10.0,-7.0,-27.0,0.0
15.0,79.0,56.0,65.0,34.0,43.0,15.0,-4.0,-5.0,-38.0,0.0
70.0,112.0,64.0,81.0,63.0,63.0,31.0,13.0,-18.0,-48.0,0.0
94.0,124.0,72.0,96.0,77.0,75.0,31.0,8.0,-21.0,-27.0,0.0
145.0,144.0,71.0,85.0,69.0,70.0,13.0,17.0,9.0,31.0,0.0
160.0,136.0,49.0,61.0,49.0,60.0,4.0,24.0,36.0,52.0,0.0
167.0,133.0,28.0,45.0,34.0,50.0,4.0,22.0,38.0,38.0,0.0
181.0,111.0,4.0,27.0,26.0,29.0,9.0,15.0,26.0,35.0,0.0
96.0,48.0,-1.0,19.0,18.0,2.0,5.0,-4.0,4.0,6.0,0.0
2.0,-54.0,-43.0,-18.0,-29.0,-21.0,-1.0,-4.0,23.0,20.0,0.0
-81.0,-167.0,-94.0,-63.0,-69.0,-50.0,-12.0,2.0,43.0,43.0,0.0
-184.0,-186.0,-52.0,-48.0,-54.0,-68.0,-29.0,-29.0,-15.0,-39.0,0.0
-210.0,-67.0,5.0,-20.0,-43.0,-68.0,-37.0,-57.0,-55.0,-97.0,0.0
-161.0,40.0,23.0,-22.0,-34.0,-55.0,-18.0,-53.0,-52.0,-94.0,0.0
-90.0,81.0,9.0,-32.0,-41.0,-48.0,-8.0,-28.0,-17.0,-57.0,0.0
7.0,106.0,1.0,-30.0,-40.0,-47.0,-8.0,-15.0,10.0,-27.0,0.0
101.0,106.0,16.0,-9.0,-16.0,-34.0,-17.0,0.0,-2.0,-23.0,0.0
192.0,82.0,19.0,0.0,2.0,-26.0,-18.0,8.0,-6.0,0.0,0.0
169.0,-15.0,5.0,-8.0,6.0,-18.0,-21.0,12.0,9.0,29.0,0.0
-20.0,-190.0,-11.0,-14.0,24.0,-4.0,-22.0,22.0,26.0,23.0,0.0
-179.0,-259.0,4.0,18.0,56.0,32.0,-6.0,51.0,50.0,14.0,0.0
-139.0,-195.0,18.0,34.0,81.0,64.0,23.0,78.0,70.0,30.0,0.0
-43.0,-96.0,11.0,26.0,76.0,55.0,20.0,63.0,57.0,33.0,0.0
-3.0,-47.0,7.0,16.0,52.0,34.0,15.0,47.0,36.0,33.0,0.0
-19.0,-50.0,-19.0,-11.0,30.0,14.0,7.0,29.0,21.0,17.0,0.0
-35.0,-56.0,-37.0,-28.0,8.0,0.0,4.0,12.0,5.0,-6.0,0.0
-50.0,-51.0,-28.0,-42.0,-1.0,-16.0,-3.0,-13.0,0.0,-29.0,0.0
-71.0,-56.0,-38.0,-54.0,-15.0,-30.0,-7.0,-25.0,-25.0,-51.0,0.0
-84.0,-94.0,-64.0,-72.0,-41.0,-43.0,-13.0,-43.0,-41.0,-73.0,0.0
-99.0,-121.0,-75.0,-78.0,-53.0,-49.0,-9.0,-45.0,-34.0,-68.0,0.0
-100.0,-118.0,-73.0,-63.0,-45.0,-40.0,3.0,-33.0,-24.0,-68.0,0.0
-70.0,-98.0,-47.0,-50.0,-48.0,-40.0,-7.0,-28.0,-26.0,-56.0,0.0
-27.0,-61.0,-34.0,-52.0,-43.0,-32.0,-14.0,-30.0,-18.0,-49.0,0.0
18.0,-11.0,-2.0,-14.0,-17.0,-14.0,-15.0,-18.0,4.0,-29.0,0.0
49.0,47.0,50.0,23.0,16.0,7.0,-4.0,-2.0,11.0,17.0,0.0
75.0,66.0,64.0,40.0,35.0,34.0,3.0,4.0,24.0,52.0,0.0
106.0,69.0,53.0,49.0,59.0,43.0,4.0,19.0,34.0,50.0,0.0
108.0,65.0,37.0,44.0,73.0,58.0,-7.0,32.0,40.0,54.0,0.0
78.0,46.0,36.0,47.0,74.0,63.0,-4.0,36.0,41.0,55.0,0.0
45.0,42.0,38.0,54.0,61.0,55.0,-4.0,31.0,42.0,57.0,0.0
41.0,70.0,28.0,49.0,49.0,42.0,-6.0,23.0,28.0,46.0,0.0
59.0,111.0,45.0,30.0,28.0,12.0,-16.0,-3.0,-10.0,4.0,0.0
78.0,98.0,52.0,3.0,-8.0,-25.0,-36.0,-34.0,-52.0,-23.0,0.0
92.0,61.0,14.0,-25.0,-40.0,-40.0,-41.0,-49.0,-59.0,-50.0,0.0
91.0,38.0,-35.0,-49.0,-64.0,-58.0,-43.0,-57.0,-66.0,-61.0,0.0
91.0,62.0,-48.0,-65.0,-76.0,-77.0,-31.0,-72.0,-75.0,-79.0,0.0
101.0,87.0,-38.0,-54.0,-70.0,-69.0,-36.0,-73.0,-96.0,-93.0,0.0
137.0,91.0,-38.0,-48.0,-69.0,-46.0,-22.0,-39.0,-75.0,-40.0,0.0
152.0,68.0,-37.0,-60.0,-58.0,-28.0,-8.0,-10.0,-6.0,46.0,0.0
81.0,51.0,-4.0,-34.0,-35.0,-25.0,-21.0,-13.0,0.0,28.0,0.0
-4.0,-7.0,-11.0,-18.0,-24.0,-3.0,-17.0,10.0,16.0,35.0,0.0
-30.0,-59.0,-34.0,-14.0,0.0,30.0,6.0,44.0,47.0,46.0,0.0
-65.0,-29.0,18.0,25.0,37.0,58.0,19.0,55.0,44.0,4.0,0.0
-145.0,-32.0,65.0,62.0,60.0,81.0,35.0,67.0,50.0,2.0,0.0
-219.0,-75.0,58.0,74.0,75.0,99.0,48.0,83.0,60.0,6.0,0.0
-238.0,-99.0,43.0,63.0,80.0,101.0,52.0,79.0,59.0,-3.0,0.0
-170.0,-98.0,28.0,66.0,65.0,93.0,46.0,77.0,57.0,12.0,0.0
-90.0,-40.0,24.0,35.0,38.0,58.0,31.0,46.0,45.0,17.0,0.0
-17.0,0.0,26.0,0.0,1.0,21.0,3.0,16.0,9.0,10.0,0.0
44.0,30.0,16.0,-25.0,-29.0,-9.0,7.0,-2.0,-5.0,19.0,0.0
79.0,40.0,-13.0,-44.0,-43.0,-28.0,2.0,-11.0,-13.0,18.0,0.0
19.0,32.0,-12.0,-45.0,-43.0,-35.0,1.0,-23.0,-21.0,-5.0,0.0
-113.0,-12.0,11.0,-22.0,-31.0,-51.0,-18.0,-49.0,-59.0,-84.0,0.0
-179.0,-51.0,-3.0,-26.0,-36.0,-53.0,-22.0,-33.0,-48.0,-70.0,0.0
-169.0,-68.0,-11.0,-31.0,-49.0,-46.0,-6.0,-8.0,-4.0,-9.0,0.0
-154.0,-53.0,23.0,-12.0,-18.0,-28.0,11.0,-11.0,-7.0,-26.0,0.0
-101.0,-34.0,32.0,7.0,9.0,0.0,28.0,-6.0,0.0,-19.0,0.0
-34.0,-30.0,20.0,15.0,21.0,11.0,36.0,8.0,22.0,15.0,0.0
31.0,-28.0,6.0,15.0,20.0,13.0,19.0,13.0,35.0,57.0,0.0
79.0,12.0,29.0,27.0,22.0,22.0,2.0,16.0,46.0,77.0,0.0
122.0,59.0,56.0,38.0,38.0,22.0,-7.0,24.0,47.0,70.0,0.0
124.0,59.0,59.0,43.0,56.0,32.0,4.0,39.0,54.0,55.0,0.0
109.0,57.0,58.0,44.0,47.0,35.0,-6.0,31.0,39.0,32.0,0.0
77.0,53.0,55.0,34.0,38.0,24.0,-17.0,17.0,29.0,20.0,0.0
25.0,32.0,53.0,27.0,40.0,9.0,-16.0,10.0,20.0,-3.0,0.0
-20.0,18.0,57.0,13.0,30.0,-12.0,-29.0,-8.0,-8.0,-24.0,0.0
-44.0,9.0,36.0,-1.0,0.0,-38.0,-25.0,-22.0,-27.0,-20.0,0.0
-46.0,-7.0,3.0,-15.0,-22.0,-51.0,-34.0,-45.0,-51.0,-26.0,0.0
-53.0,-28.0,-14.0,-45.0,-42.0,-64.0,-42.0,-54.0,-64.0,-22.0,0.0
-69.0,-37.0,-17.0,-49.0,-56.0,-65.0,-30.0,-49.0,-58.0,-29.0,0.0
-71.0,-33.0,-26.0,-43.0,-61.0,-55.0,-21.0,-48.0,-60.0,-34.0,0.0
-61.0,-31.0,-20.0,-43.0,-51.0,-50.0,-13.0,-50.0,-57.0,-18.0,0.0
-37.0,-13.0,-3.0,-27.0,-30.0,-31.0,-9.0,-32.0,-44.0,0.0,0.0
15.0,18.0,-1.0,-9.0,-3.0,1.0,-5.0,-1.0,-14.0,24.0,0.0
69.0,43.0,0.0,-12.0,14.0,23.0,5.0,15.0,16.0,48.0,0.0
109.0,67.0,9.0,-5.0,33.0,34.0,13.0,30.0,37.0,69.0,0.0
149.0,101.0,36.0,14.0,47.0,51.0,17.0,50.0,59.0,93.0,0.0
131.0,104.0,43.0,34.0,54.0,65.0,25.0,72.0,74.0,117.0,0.0
95.0,85.0,51.0,52.0,44.0,60.0,19.0,64.0,59.0,93.0,0.0
66.0,78.0,62.0,51.0,26.0,44.0,10.0,45.0,31.0,41.0,0.0
56.0,49.0,47.0,15.0,25.0,31.0,-3.0,27.0,25.0,37.0,0.0
55.0,39.0,26.0,-15.0,13.0,9.0,-5.0,11.0,18.0,44.0,0.0
21.0,13.0,-11.0,-33.0,5.0,-9.0,-4.0,2.0,0.0,21.0,0.0
-51.0,-47.0,-37.0,-35.0,-5.0,-13.0,-7.0,-5.0,-9.0,1.0,0.0
-92.0,-81.0,-58.0,-40.0,-34.0,-19.0,-8.0,-14.0,-28.0,-11.0,0.0
-63.0,-81.0,-72.0,-55.0,-62.0,-47.0,-12.0,-42.0,-41.0,-39.0,0.0
-31.0,-60.0,-78.0,-65.0,-85.0,-66.0,-24.0,-66.0,-66.0,-52.0,0.0
-18.0,-37.0,-79.0,-58.0,-83.0,-51.0,-22.0,-48.0,-61.0,-35.0,0.0
-8.0,-3.0,-49.0,-37.0,-64.0,-28.0,-8.0,-43.0,-65.0,-44.0,0.0
19.0,48.0,0.0,1.0,-24.0,-7.0,11.0,-20.0,-44.0,-22.0,0.0
49.0,71.0,8.0,15.0,-1.0,21.0,25.0,11.0,-1.0,20.0,0.0
62.0,66.0,12.0,25.0,12.0,46.0,41.0,26.0,13.0,26.0,0.0
80.0,47.0,15.0,35.0,40.0,62.0,57.0,49.0,40.0,56.0,0.0
82.0,53.0,20.0,53.0,64.0,64.0,63.0,66.0,59.0,86.0,0.0
76.0,57.0,33.0,70.0,66.0,66.0,65.0,67.0,62.0,86.0,0.0
64.0,40.0,27.0,69.0,60.0,67.0,37.0,55.0,49.0,53.0,0.0
16.0,6.0,11.0,56.0,62.0,62.0,30.0,38.0,32.0,13.0,0.0
7.0,-9.0,-13.0,38.0,47.0,40.0,35.0,30.0,25.0,-6.0,0.0
27.0,-9.0,-37.0,14.0,12.0,9.0,36.0,26.0,25.0,-2.0,0.0
18.0,-34.0,-52.0,-6.0,-1.0,-9.0,40.0,4.0,7.0,-4.0,0.0
-16.0,-71.0,-58.0,-23.0,-34.0,-32.0,14.0,-27.0,-16.0,-16.0,0.0
-55.0,-98.0,-70.0,-45.0,-75.0,-53.0,-3.0,-47.0,-38.0,-30.0,0.0
-30.0,-89.0,-86.0,-71.0,-93.0,-70.0,-13.0,-45.0,-31.0,-29.0,0.0
2.0,-29.0,-63.0,-67.0,-89.0,-68.0,-14.0,-54.0,-50.0,-57.0,0.0
12.0,-6.0,-34.0,-45.0,-67.0,-41.0,1.0,-52.0,-56.0,-61.0,0.0
7.0,-15.0,-37.0,-24.0,-42.0,-18.0,16.0,-32.0,-45.0,-41.0,0.0
-19.0,-13.0,1.0,8.0,-3.0,-2.0,3.0,-20.0,-32.0,-27.0,0.0
17.0,21.0,38.0,26.0,13.0,4.0,1.0,-2.0,5.0,10.0,0.0
63.0,17.0,39.0,36.0,38.0,24.0,20.0,26.0,29.0,44.0,0.0
93.0,25.0,46.0,53.0,67.0,50.0,43.0,44.0,45.0,52.0,0.0
113.0,42.0,54.0,67.0,86.0,54.0,39.0,40.0,40.0,48.0,0.0
115.0,74.0,57.0,81.0,83.0,56.0,41.0,21.0,23.0,26.0,0.0
108.0,101.0,48.0,82.0,59.0,26.0,27.0,0.0,11.0,18.0,0.0
84.0,90.0,39.0,66.0,30.0,-10.0,11.0,-14.0,-11.0,11.0,0.0
100.0,77.0,15.0,25.0,-2.0,-15.0,17.0,-8.0,2.0,33.0,0.0
121.0,64.0,-4.0,-7.0,-23.0,-22.0,13.0,-7.0,-7.0,28.0,0.0
75.0,50.0,-28.0,-25.0,-29.0,-36.0,24.0,-17.0,-20.0,2.0,0.0
-12.0,16.0,-61.0,-47.0,-50.0,-44.0,16.0,-15.0,-12.0,-8.0,0.0
-113.0,-34.0,-66.0,-63.0,-65.0,-69.0,13.0,-12.0,-9.0,-15.0,0.0
-234.0,-86.0,-48.0,-41.0,-63.0,-66.0,10.0,-23.0,-36.0,-73.0,0.0
-201.0,-51.0,-35.0,-38.0,-50.0,-62.0,19.0,-32.0,-49.0,-75.0,0.0
-104.0,2.0,-31.0,-49.0,-32.0,-48.0,37.0,-33.0,-44.0,-68.0,0.0
-31.0,20.0,-30.0,-35.0,-6.0,-22.0,29.0,-28.0,-47.0,-45.0,0.0
39.0,25.0,-22.0,2.0,8.0,-11.0,14.0,-39.0,-31.0,4.0,0.0
78.0,15.0,6.0,30.0,13.0,-1.0,7.0,-19.0,1.0,40.0,0.0
59.0,-5.0,35.0,29.0,21.0,25.0,13.0,24.0,51.0,91.0,0.0
1.0,33.0,73.0,53.0,52.0,53.0,17.0,39.0,57.0,65.0,0.0
-24.0,5.0,50.0,62.0,62.0,66.0,17.0,39.0,46.0,53.0,0.0
-25.0,-22.0,36.0,66.0,65.0,67.0,29.0,52.0,45.0,53.0,0.0
7.0,30.0,34.0,68.0,71.0,66.0,44.0,52.0,30.0,37.0,0.0
-10.0,65.0,19.0,51.0,56.0,61.0,53.0,47.0,35.0,38.0,0.0
-91.0,33.0,16.0,34.0,33.0,31.0,29.0,27.0,31.0,25.0,0.0
-173.0,-58.0,10.0,12.0,-2.0,5.0,0.0,-2.0,19.0,4.0,0.0
-180.0,-116.0,-11.0,-3.0,-29.0,-16.0,4.0,-14.0,-11.0,-48.0,0.0
-93.0,-128.0,-24.0,-4.0,-51.0,-38.0,-4.0,-40.0,-51.0,-84.0,0.0
-7.0,-112.0,-29.0,-22.0,-74.0,-57.0,-8.0,-67.0,-67.0,-95.0,0.0
36.0,-69.0,-49.0,-53.0,-91.0,-78.0,-23.0,-86.0,-82.0,-83.0,0.0
-9.0,-75.0,-70.0,-65.0,-86.0,-72.0,-14.0,-76.0,-73.0,-77.0,0.0
-93.0,-145.0,-83.0,-60.0,-75.0,-64.0,-12.0,-62.0,-44.0,-61.0,0.0
-50.0,-110.0,-75.0,-47.0,-49.0,-34.0,0.0,-36.0,-7.0,-9.0,0.0
-17.0,-42.0,-35.0,-15.0,-31.0,-15.0,-1.0,-22.0,16.0,9.0,0.0
-72.0,-24.0,2.0,21.0,9.0,18.0,0.0,9.0,30.0,-2.0,0.0
-52.0,-10.0,19.0,36.0,43.0,58.0,40.0,42.0,59.0,29.0,0.0
-64.0,-10.0,36.0,47.0,53.0,72.0,37.0,52.0,66.0,68.0,0.0
-86.0,-1.0,49.0,59.0,59.0,61.0,7.0,24.0,43.0,48.0,0.0
-55.0,27.0,47.0,31.0,54.0,58.0,13.0,11.0,32.0,23.0,0.0
-18.0,53.0,47.0,5.0,42.0,52.0,28.0,9.0,35.0,34.0,0.0
13.0,38.0,25.0,-20.0,16.0,36.0,13.0,-2.0,25.0,19.0,0.0
9.0,4.0,-19.0,-53.0,-21.0,17.0,11.0,-14.0,5.0,3.0,0.0
0.0,-31.0,-57.0,-75.0,-34.0,-2.0,17.0,-31.0,-7.0,0.0,0.0
-6.0,-57.0,-76.0,-62.0,-43.0,-7.0,13.0,-32.0,-26.0,-12.0,0.0
-8.0,-39.0,-68.0,-42.0,-52.0,-18.0,6.0,-49.0,-60.0,-64.0,0.0
-24.0,-14.0,-45.0,-29.0,-63.0,-43.0,-9.0,-84.0,-81.0,-91.0,0.0
-48.0,-20.0,-39.0,-33.0,-74.0,-59.0,-33.0,-82.0,-62.0,-57.0,0.0
-82.0,-83.0,-48.0,-46.0,-84.0,-56.0,-16.0,-47.0,-22.0,0.0,0.0
-93.0,-89.0,-23.0,-17.0,-52.0,-38.0,-14.0,-29.0,-18.0,0.0,0.0
-49.0,-51.0,5.0,1.0,-28.0,-4.0,1.0,-14.0,5.0,-1.0,0.0
4.0,-5.0,20.0,19.0,-14.0,19.0,14.0,-4.0,17.0,18.0,0.0
53.0,33.0,34.0,44.0,3.0,35.0,7.0,0.0,28.0,34.0,0.0
92.0,61.0,56.0,57.0,21.0,53.0,11.0,20.0,42.0,49.0,0.0
90.0,54.0,75.0,64.0,51.0,58.0,26.0,30.0,44.0,51.0,0.0
48.0,50.0,77.0,74.0,60.0,56.0,9.0,24.0,34.0,37.0,0.0
48.0,61.0,65.0,67.0,52.0,51.0,8.0,14.0,26.0,28.0,0.0
51.0,51.0,62.0,48.0,30.0,47.0,15.0,7.0,29.0,28.0,0.0
29.0,15.0,52.0,27.0,17.0,29.0,-7.0,-3.0,22.0,0.0,0.0
-7.0,-9.0,31.0,11.0,5.0,-1.0,-10.0,-12.0,0.0,-30.0,0.0
8.0,-9.0,10.0,-8.0,-11.0,-26.0,-15.0,-11.0,-12.0,-37.0,0.0
27.0,-4.0,-9.0,-38.0,-39.0,-45.0,-28.0,-35.0,-36.0,-52.0,0.0
31.0,-13.0,-34.0,-60.0,-65.0,-53.0,-25.0,-56.0,-47.0,-56.0,0.0
17.0,-24.0,-54.0,-79.0,-73.0,-60.0,-32.0,-55.0,-46.0,-43.0,0.0
-11.0,-37.0,-52.0,-72.0,-79.0,-54.0,-32.0,-40.0,-36.0,-20.0,0.0
-42.0,-26.0,-32.0,-56.0,-64.0,-48.0,-27.0,-33.0,-26.0,-19.0,0.0
-91.0,-22.0,-7.0,-37.0,-39.0,-31.0,-7.0,-12.0,-8.0,-26.0,0.0
-92.0,-30.0,2.0,-14.0,-3.0,9.0,6.0,5.0,-2.0,-29.0,0.0
-16.0,14.0,17.0,16.0,24.0,31.0,22.0,4.0,-5.0,-28.0,0.0
30.0,39.0,30.0,37.0,50.0,57.0,30.0,24.0,17.0,-8.0,0.0
61.0,63.0,20.0,43.0,51.0,76.0,26.0,47.0,64.0,43.0,0.0
77.0,75.0,29.0,45.0,55.0,70.0,20.0,42.0,85.0,72.0,0.0
62.0,67.0,34.0,56.0,56.0,57.0,19.0,28.0,61.0,56.0,0.0
49.0,62.0,52.0,40.0,47.0,42.0,-4.0,13.0,35.0,15.0,0.0
60.0,71.0,58.0,18.0,25.0,32.0,5.0,13.0,33.0,-4.0,0.0
31.0,50.0,30.0,-1.0,-1.0,7.0,34.0,9.0,43.0,7.0,0.0
-43.0,-3.0,18.0,-4.0,-7.0,-9.0,16.0,-1.0,38.0,-3.0,0.0
-86.0,-36.0,-6.0,-30.0,-9.0,-31.0,1.0,-6.0,1.0,-43.0,0.0
-99.0,-74.0,-33.0,-47.0,-34.0,-58.0,-4.0,-34.0,-33.0,-74.0,0.0
-103.0,-102.0,-34.0,-35.0,-46.0,-63.0,-22.0,-43.0,-45.0,-89.0,0.0
-78.0,-98.0,-41.0,-37.0,-51.0,-60.0,-8.0,-28.0,-31.0,-70.0,0.0
-45.0,-90.0,-50.0,-38.0,-41.0,-47.0,-5.0,-12.0,-17.0,-51.0,0.0
-32.0,-77.0,-37.0,-29.0,-35.0,-31.0,-20.0,0.0,6.0,-32.0,0.0
7.0,-42.0,-20.0,-11.0,-23.0,-16.0,-13.0,15.0,20.0,-1.0,0.0
27.0,-20.0,-4.0,8.0,-4.0,-2.0,-6.0,20.0,28.0,21.0,0.0
25.0,6.0,9.0,29.0,18.0,15.0,5.0,33.0,34.0,16.0,0.0
71.0,68.0,31.0,47.0,31.0,33.0,-2.0,46.0,40.0,26.0,0.0
125.0,93.0,51.0,63.0,42.0,52.0,6.0,54.0,61.0,42.0,0.0
140.0,75.0,52.0,61.0,38.0,59.0,18.0,70.0,86.0,60.0,0.0
122.0,39.0,39.0,34.0,36.0,61.0,14.0,78.0,90.0,81.0,0.0
85.0,48.0,41.0,24.0,31.0,46.0,7.0,63.0,60.0,75.0,0.0
61.0,101.0,55.0,18.0,11.0,26.0,-4.0,32.0,33.0,38.0,0.0
71.0,102.0,45.0,-11.0,-9.0,-16.0,-19.0,13.0,6.0,12.0,0.0
92.0,84.0,-5.0,-40.0,-37.0,-49.0,-18.0,5.0,0.0,0.0,0.0
71.0,53.0,-33.0,-42.0,-61.0,-71.0,-39.0,-9.0,-30.0,-17.0,0.0
32.0,16.0,-51.0,-53.0,-82.0,-82.0,-63.0,-25.0,-59.0,-21.0,0.0
43.0,-21.0,-65.0,-65.0,-95.0,-78.0,-58.0,-37.0,-58.0,-19.0,0.0
32.0,-63.0,-74.0,-52.0,-76.0,-63.0,-37.0,-34.0,-66.0,-49.0,0.0
37.0,-76.0,-72.0,-36.0,-48.0,-33.0,-16.0,-22.0,-66.0,-93.0,0.0
90.0,21.0,-53.0,-29.0,-29.0,-15.0,13.0,3.0,-34.0,-49.0,0.0
48.0,91.0,8.0,16.0,7.0,15.0,26.0,44.0,21.0,3.0,0.0
-60.0,175.0,107.0,75.0,51.0,33.0,31.0,51.0,37.0,-7.0,0.0
-117.0,223.0,147.0,109.0,79.0,44.0,31.0,51.0,37.0,-13.0,0.0
-28.0,212.0,106.0,87.0,75.0,54.0,21.0,58.0,73.0,40.0,0.0
55.0,172.0,82.0,68.0,69.0,64.0,24.0,49.0,94.0,65.0,0.0
106.0,74.0,35.0,48.0,63.0,61.0,41.0,42.0,92.0,74.0,0.0
98.0,-97.0,-31.0,18.0,49.0,49.0,23.0,29.0,65.0,54.0,0.0
51.0,-232.0,-67.0,0.0,31.0,32.0,-4.0,10.0,22.0,-4.0,0.0
-47.0,-303.0,-95.0,-19.0,-7.0,0.0,-27.0,-32.0,-18.0,-61.0,0.0
-208.0,-317.0,-94.0,-15.0,-50.0,-47.0,-55.0,-63.0,-53.0,-91.0,0.0
-269.0,-263.0,-79.0,-5.0,-50.0,-52.0,-44.0,-52.0,-56.0,-101.0,0.0
-202.0,-192.0,-88.0,-19.0,-63.0,-62.0,-29.0,-46.0,-53.0,-89.0,0.0
-134.0,-153.0,-90.0,-42.0,-93.0,-83.0,-31.0,-61.0,-59.0,-72.0,0.0
-126.0,-151.0,-72.0,-50.0,-104.0,-93.0,-22.0,-61.0,-57.0,-77.0,0.0
-124.0,-155.0,-57.0,-41.0,-86.0,-80.0,-16.0,-56.0,-56.0,-78.0,0.0
-96.0,-109.0,-35.0,-18.0,-69.0,-67.0,-3.0,-46.0,-52.0,-72.0,0.0
-80.0,-56.0,-19.0,-10.0,-55.0,-41.0,-3.0,-41.0,-44.0,-69.0,0.0
-25.0,-17.0,-10.0,-2.0,-24.0,-9.0,4.0,-24.0,-25.0,-37.0,0.0
25.0,1.0,7.0,14.0,7.0,6.0,18.0,-13.0,-2.0,-4.0,0.0
-5.0,8.0,40.0,71.0,36.0,28.0,6.0,-1.0,-4.0,-15.0,0.0
4.0,23.0,46.0,82.0,52.0,49.0,18.0,11.0,8.0,11.0,0.0
53.0,46.0,47.0,50.0,51.0,60.0,30.0,17.0,22.0,43.0,0.0
77.0,62.0,42.0,40.0,44.0,50.0,11.0,19.0,14.0,49.0,0.0
64.0,56.0,31.0,36.0,37.0,36.0,16.0,10.0,21.0,42.0,0.0
40.0,40.0,33.0,38.0,30.0,22.0,9.0,-5.0,32.0,29.0,0.0
10.0,32.0,21.0,27.0,12.0,-6.0,-15.0,-22.0,14.0,5.0,0.0
-13.0,14.0,-1.0,4.0,-4.0,-20.0,0.0,-20.0,10.0,0.0,0.0
-28.0,-15.0,-34.0,-24.0,-31.0,-31.0,-7.0,-20.0,1.0,-16.0,0.0
-39.0,-31.0,-45.0,-46.0,-59.0,-53.0,-27.0,-34.0,-25.0,-40.0,0.0
-55.0,-39.0,-58.0,-65.0,-72.0,-67.0,-35.0,-36.0,-41.0,-54.0,0.0
-50.0,-41.0,-60.0,-67.0,-70.0,-62.0,-19.0,-48.0,-43.0,-59.0,0.0
-33.0,-20.0,-52.0,-50.0,-63.0,-58.0,-7.0,-38.0,-39.0,-44.0,0.0
-19.0,4.0,-46.0,-34.0,-56.0,-48.0,8.0,-27.0,-19.0,-31.0,0.0
5.0,9.0,-38.0,-13.0,-35.0,-22.0,0.0,6.0,-12.0,-3.0,0.0
41.0,32.0,-18.0,5.0,-14.0,5.0,15.0,21.0,14.0,34.0,0.0
75.0,49.0,-2.0,16.0,7.0,23.0,31.0,34.0,37.0,64.0,0.0
99.0,56.0,7.0,26.0,20.0,41.0,15.0,46.0,37.0,84.0,0.0
112.0,74.0,12.0,34.0,33.0,57.0,22.0,53.0,45.0,95.0,0.0
109.0,85.0,12.0,34.0,39.0,54.0,18.0,49.0,44.0,96.0,0.0
87.0,73.0,21.0,32.0,42.0,47.0,-8.0,34.0,24.0,61.0,0.0
55.0,49.0,27.0,28.0,39.0,46.0,-2.0,24.0,22.0,34.0,0.0
40.0,41.0,24.0,12.0,37.0,28.0,-2.0,19.0,6.0,16.0,0.0
43.0,53.0,15.0,-8.0,11.0,-2.0,-16.0,1.0,-13.0,9.0,0.0
62.0,64.0,1.0,-29.0,-20.0,-30.0,-12.0,-25.0,-28.0,-3.0,0.0
88.0,69.0,-15.0,-64.0,-47.0,-52.0,-24.0,-48.0,-55.0,-13.0,0.0
137.0,128.0,-13.0,-92.0,-74.0,-73.0,-36.0,-58.0,-84.0,-24.0,0.0
138.0,151.0,-21.0,-92.0,-81.0,-65.0,-30.0,-65.0,-83.0,-20.0,0.0
117.0,140.0,-31.0,-77.0,-68.0,-59.0,-37.0,-57.0,-75.0,-16.0,0.0
116.0,112.0,-41.0,-84.0,-70.0,-61.0,-54.0,-53.0,-53.0,26.0,0.0
67.0,1.0,-59.0,-85.0,-70.0,-47.0,-35.0,-22.0,3.0,106.0,0.0
-19.0,-48.0,-37.0,-56.0,-31.0,-10.0,-12.0,18.0,21.0,98.0,0.0
-92.0,-97.0,-33.0,-24.0,6.0,17.0,5.0,49.0,32.0,74.0,0.0
-81.0,-160.0,-54.0,-6.0,35.0,49.0,14.0,73.0,53.0,82.0,0.0
-6.0,-72.0,-5.0,28.0,61.0,49.0,-5.0,45.0,4.0,42.0,0.0
74.0,90.0,79.0,63.0,72.0,41.0,-28.0,4.0,-52.0,-6.0,0.0
132.0,182.0,98.0,48.0,61.0,59.0,-5.0,29.0,-24.0,4.0,0.0
158.0,175.0,51.0,24.0,58.0,66.0,22.0,57.0,27.0,32.0,0.0
195.0,122.0,0.0,0.0,45.0,63.0,40.0,73.0,86.0,126.0,0.0
181.0,43.0,-44.0,-33.0,23.0,34.0,62.0,80.0,118.0,200.0,0.0
0.0,-36.0,-23.0,-19.0,13.0,-6.0,6.0,14.0,25.0,48.0,0.0
-141.0,-109.0,-19.0,-25.0,-7.0,-30.0,-9.0,1.0,-17.0,-59.0,0.0
-167.0,-138.0,-52.0,-43.0,-28.0,-36.0,6.0,0.0,-17.0,-52.0,0.0
-249.0,-165.0,-56.0,-50.0,-52.0,-55.0,-11.0,-20.0,-31.0,-48.0,0.0
-385.0,-201.0,-8.0,-25.0,-51.0,-56.0,-2.0,-13.0,-57.0,-99.0,0.0
-427.0,-222.0,14.0,5.0,-39.0,-36.0,-7.0,-12.0,-79.0,-143.0,0.0
-340.0,-199.0,-4.0,-2.0,-27.0,-30.0,-4.0,-12.0,-68.0,-120.0,0.0
-240.0,-162.0,-18.0,-14.0,-14.0,-18.0,-6.0,-1.0,-27.0,-74.0,0.0
-156.0,-93.0,-10.0,1.0,10.0,-3.0,-2.0,8.0,0.0,-46.0,0.0
-86.0,-27.0,19.0,31.0,40.0,11.0,-8.0,20.0,10.0,-20.0,0.0
-32.0,47.0,61.0,61.0,57.0,29.0,-7.0,37.0,31.0,10.0,0.0
19.0,92.0,90.0,83.0,75.0,57.0,-3.0,50.0,41.0,26.0,0.0
75.0,112.0,89.0,100.0,81.0,68.0,0.0,56.0,34.0,36.0,0.0
139.0,99.0,78.0,92.0,75.0,61.0,-4.0,69.0,33.0,35.0,0.0
181.0,70.0,55.0,67.0,57.0,39.0,-10.0,57.0,24.0,27.0,0.0
160.0,35.0,23.0,41.0,26.0,11.0,-12.0,39.0,7.0,16.0,0.0
34.0,-55.0,-4.0,7.0,-15.0,-10.0,-16.0,19.0,-9.0,-5.0,0.0
-105.0,-139.0,-15.0,-16.0,-37.0,-25.0,-26.0,9.0,-32.0,-29.0,0.0
-119.0,-116.0,-21.0,-31.0,-39.0,-44.0,-19.0,-9.0,-31.0,-44.0,0.0
-91.0,-88.0,-43.0,-43.0,-62.0,-68.0,-24.0,-28.0,-26.0,-58.0,0.0
-86.0,-80.0,-53.0,-46.0,-72.0,-88.0,-23.0,-42.0,-32.0,-59.0,0.0
-85.0,-68.0,-51.0,-44.0,-71.0,-82.0,-23.0,-40.0,-36.0,-50.0,0.0
-69.0,-56.0,-48.0,-51.0,-67.0,-74.0,-20.0,-32.0,-25.0,-44.0,0.0
-36.0,-41.0,-46.0,-38.0,-53.0,-56.0,-10.0,-23.0,-14.0,-42.0,0.0
-6.0,-16.0,-37.0,-15.0,-21.0,-36.0,-11.0,-9.0,-1.0,-20.0,0.0
35.0,20.0,-5.0,8.0,-4.0,-15.0,16.0,5.0,29.0,-1.0,0.0
62.0,33.0,18.0,27.0,13.0,12.0,5.0,26.0,40.0,8.0,0.0
81.0,53.0,31.0,40.0,29.0,42.0,18.0,51.0,51.0,29.0,0.0
94.0,72.0,48.0,57.0,47.0,57.0,16.0,69.0,66.0,41.0,0.0
95.0,77.0,41.0,59.0,62.0,71.0,14.0,73.0,66.0,44.0,0.0
86.0,71.0,35.0,48.0,60.0,60.0,4.0,60.0,61.0,42.0,0.0
74.0,59.0,32.0,36.0,51.0,43.0,0.0,55.0,35.0,48.0,0.0
55.0,42.0,11.0,28.0,27.0,30.0,-9.0,31.0,19.0,41.0,0.0
32.0,24.0,-8.0,4.0,-9.0,0.0,-20.0,9.0,1.0,22.0,0.0
2.0,0.0,-13.0,-19.0,-25.0,-29.0,-20.0,-2.0,-5.0,0.0,0.0
-22.0,-12.0,-23.0,-40.0,-51.0,-58.0,-21.0,-20.0,-21.0,-21.0,0.0
-34.0,-33.0,-36.0,-56.0,-69.0,-73.0,-33.0,-39.0,-39.0,-37.0,0.0
-43.0,-46.0,-52.0,-59.0,-72.0,-78.0,-34.0,-55.0,-42.0,-40.0,0.0
-44.0,-45.0,-55.0,-62.0,-64.0,-75.0,-18.0,-45.0,-40.0,-35.0,0.0
-14.0,-31.0,-39.0,-50.0,-45.0,-59.0,-14.0,-44.0,-36.0,-30.0,0.0
27.0,-7.0,-13.0,-40.0,-34.0,-47.0,-11.0,-32.0,-38.0,-25.0,0.0
103.0,47.0,3.0,-22.0,-10.0,-32.0,7.0,-24.0,-27.0,-19.0,0.0
186.0,108.0,5.0,-7.0,17.0,-13.0,19.0,-20.0,-13.0,7.0,0.0
204.0,140.0,9.0,-2.0,30.0,12.0,17.0,0.0,20.0,61.0,0.0
218.0,144.0,5.0,3.0,43.0,31.0,32.0,35.0,44.0,103.0,0.0
282.0,155.0,19.0,18.0,50.0,37.0,21.0,34.0,29.0,120.0,0.0
337.0,205.0,40.0,23.0,41.0,23.0,-5.0,-1.0,6.0,100.0,0.0
295.0,238.0,57.0,13.0,36.0,11.0,-12.0,-18.0,-36.0,22.0,0.0
251.0,221.0,34.0,-3.0,28.0,10.0,1.0,-19.0,-30.0,18.0,0.0
178.0,139.0,-28.0,-34.0,-10.0,-7.0,0.0,11.0,35.0,96.0,0.0
-55.0,-9.0,-62.0,-58.0,-29.0,-16.0,37.0,54.0,97.0,96.0,0.0
-318.0,-158.0,-51.0,-51.0,-10.0,0.0,65.0,64.0,91.0,-7.0,0.0
-351.0,-141.0,-28.0,-50.0,-22.0,-28.0,29.0,21.0,19.0,-72.0,0.0
-315.0,-123.0,-49.0,-82.0,-49.0,-57.0,35.0,7.0,21.0,-45.0,0.0
-270.0,-149.0,-79.0,-93.0,-68.0,-44.0,57.0,6.0,41.0,-20.0,0.0
-315.0,-182.0,-51.0,-59.0,-58.0,-30.0,39.0,-19.0,0.0,-77.0,0.0
-325.0,-213.0,-39.0,-16.0,-36.0,-41.0,31.0,-26.0,-28.0,-92.0,0.0
-224.0,-165.0,-41.0,-8.0,-17.0,-21.0,47.0,3.0,14.0,-32.0,0.0
-82.0,-77.0,-27.0,0.0,-3.0,-2.0,47.0,33.0,56.0,32.0,0.0
34.0,-16.0,6.0,12.0,21.0,17.0,25.0,41.0,76.0,71.0,0.0
36.0,-8.0,47.0,42.0,55.0,37.0,22.0,22.0,56.0,63.0,0.0
-10.0,-1.0,94.0,92.0,104.0,63.0,21.0,12.0,24.0,-9.0,0.0
51.0,26.0,104.0,98.0,109.0,78.0,13.0,-2.0,9.0,-29.0,0.0
107.0,44.0,102.0,70.0,78.0,52.0,2.0,-22.0,-2.0,-21.0,0.0
45.0,-9.0,71.0,46.0,44.0,39.0,-15.0,-18.0,-27.0,-29.0,0.0
-20.0,-20.0,38.0,53.0,35.0,39.0,0.0,-7.0,-38.0,-35.0,0.0
-18.0,-16.0,6.0,44.0,20.0,26.0,8.0,-12.0,-26.0,-33.0,0.0
-29.0,-32.0,-11.0,13.0,1.0,4.0,0.0,-17.0,-23.0,-27.0,0.0
-52.0,-72.0,-28.0,7.0,-16.0,-9.0,8.0,-26.0,-29.0,-24.0,0.0
-74.0,-99.0,-52.0,-6.0,-34.0,-27.0,-10.0,-41.0,-29.0,-40.0,0.0
-88.0,-116.0,-52.0,-17.0,-50.0,-56.0,-27.0,-66.0,-62.0,-75.0,0.0
-77.0,-90.0,-44.0,-26.0,-59.0,-51.0,-24.0,-74.0,-78.0,-84.0,0.0
-50.0,-55.0,-30.0,-31.0,-48.0,-35.0,-16.0,-58.0,-65.0,-54.0,0.0
-37.0,-41.0,-24.0,-34.0,-37.0,-26.0,-7.0,-40.0,-59.0,-35.0,0.0
-19.0,-15.0,-13.0,-18.0,-15.0,-2.0,10.0,-14.0,-50.0,-27.0,0.0
4.0,11.0,0.0,6.0,19.0,15.0,30.0,8.0,-21.0,-10.0,0.0
33.0,28.0,16.0,35.0,43.0,36.0,20.0,22.0,0.0,16.0,0.0
64.0,56.0,25.0,63.0,47.0,58.0,25.0,36.0,28.0,42.0,0.0
83.0,83.0,45.0,67.0,58.0,77.0,43.0,42.0,23.0,65.0,0.0
94.0,76.0,48.0,65.0,66.0,69.0,33.0,40.0,26.0,66.0,0.0
85.0,64.0,40.0,61.0,70.0,66.0,8.0,32.0,31.0,55.0,0.0
74.0,56.0,44.0,55.0,58.0,61.0,10.0,29.0,17.0,50.0,0.0
65.0,44.0,20.0,47.0,40.0,43.0,-3.0,19.0,-2.0,41.0,0.0
36.0,38.0,-7.0,34.0,24.0,15.0,-15.0,-8.0,-22.0,24.0,0.0
4.0,23.0,-16.0,11.0,8.0,-9.0,-19.0,-25.0,-24.0,-1.0,0.0
-19.0,1.0,-26.0,-21.0,-12.0,-30.0,-35.0,-46.0,-33.0,-27.0,0.0
-38.0,-25.0,-36.0,-50.0,-37.0,-53.0,-31.0,-59.0,-54.0,-59.0,0.0
-52.0,-46.0,-54.0,-65.0,-50.0,-68.0,-34.0,-60.0,-74.0,-67.0,0.0
-50.0,-46.0,-48.0,-72.0,-53.0,-67.0,-23.0,-52.0,-56.0,-61.0,0.0
-22.0,-24.0,-39.0,-76.0,-40.0,-39.0,-17.0,-56.0,-58.0,-61.0,0.0
15.0,17.0,-25.0,-67.0,-18.0,-33.0,-21.0,-52.0,-48.0,-43.0,0.0
72.0,73.0,-3.0,-48.0,-4.0,-23.0,-26.0,-30.0,-35.0,-25.0,0.0
152.0,131.0,5.0,-36.0,7.0,-3.0,-31.0,-5.0,-16.0,-4.0,0.0
182.0,137.0,10.0,-5.0,32.0,17.0,-8.0,15.0,1.0,19.0,0.0
170.0,111.0,22.0,34.0,53.0,33.0,21.0,28.0,11.0,40.0,0.0
145.0,55.0,28.0,60.0,69.0,54.0,28.0,56.0,45.0,60.0,0.0
62.0,-19.0,40.0,68.0,66.0,59.0,33.0,66.0,62.0,66.0,0.0
6.0,-34.0,40.0,69.0,60.0,53.0,17.0,45.0,45.0,33.0,0.0
55.0,6.0,32.0,47.0,49.0,48.0,4.0,43.0,38.0,20.0,0.0
66.0,62.0,49.0,41.0,38.0,37.0,6.0,29.0,22.0,-1.0,0.0
36.0,75.0,64.0,24.0,14.0,12.0,-1.0,-1.0,-8.0,-31.0,0.0
58.0,66.0,63.0,2.0,-19.0,-29.0,-14.0,-25.0,-25.0,-14.0,0.0
69.0,15.0,12.0,-20.0,-40.0,-53.0,-32.0,-46.0,-33.0,-14.0,0.0
23.0,-50.0,-42.0,-33.0,-35.0,-46.0,-18.0,-44.0,-44.0,-65.0,0.0
8.0,-35.0,-55.0,-33.0,-29.0,-35.0,-17.0,-56.0,-61.0,-67.0,0.0
15.0,-8.0,-40.0,-37.0,-41.0,-44.0,-22.0,-84.0,-64.0,-26.0,0.0
39.0,53.0,-8.0,-23.0,-43.0,-63.0,-41.0,-89.0,-59.0,0.0,0.0
48.0,77.0,16.0,-4.0,-32.0,-69.0,-43.0,-64.0,-29.0,0.0,0.0
36.0,52.0,12.0,20.0,-3.0,-18.0,0.0,-18.0,18.0,28.0,0.0
78.0,41.0,0.0,36.0,30.0,30.0,44.0,35.0,75.0,101.0,0.0
36.0,25.0,23.0,68.0,61.0,52.0,42.0,55.0,74.0,59.0,0.0
-48.0,17.0,38.0,89.0,73.0,60.0,33.0,52.0,81.0,23.0,0.0
-83.0,-13.0,39.0,91.0,79.0,69.0,45.0,69.0,93.0,51.0,0.0
-135.0,-21.0,57.0,108.0,88.0,90.0,56.0,75.0,73.0,17.0,0.0
-157.0,-13.0,73.0,107.0,87.0,89.0,37.0,58.0,37.0,-48.0,0.0
-121.0,-28.0,53.0,83.0,69.0,74.0,33.0,53.0,48.0,-27.0,0.0
-85.0,-30.0,15.0,47.0,40.0,40.0,29.0,45.0,46.0,6.0,0.0
-89.0,-17.0,-6.0,19.0,15.0,13.0,20.0,20.0,35.0,7.0,0.0
-98.0,-6.0,-28.0,-10.0,-4.0,-7.0,-1.0,-7.0,11.0,-10.0,0.0
-145.0,-74.0,-66.0,-43.0,-37.0,-45.0,-17.0,-34.0,-28.0,-48.0,0.0
-201.0,-165.0,-82.0,-54.0,-60.0,-65.0,-22.0,-43.0,-41.0,-85.0,0.0
-120.0,-127.0,-69.0,-48.0,-46.0,-58.0,-13.0,-38.0,-45.0,-91.0,0.0
-9.0,-33.0,-30.0,-28.0,-32.0,-46.0,-14.0,-45.0,-47.0,-78.0,0.0
-5.0,14.0,-20.0,-14.0,-37.0,-38.0,-18.0,-43.0,-43.0,-52.0,0.0
-66.0,-23.0,-36.0,-9.0,-32.0,-31.0,-14.0,-34.0,-12.0,-23.0,0.0
-135.0,-69.0,-39.0,1.0,-8.0,-2.0,0.0,-6.0,14.0,1.0,0.0
-73.0,-7.0,9.0,26.0,29.0,24.0,26.0,13.0,37.0,0.0,0.0
-1.0,46.0,51.0,31.0,60.0,49.0,18.0,32.0,40.0,1.0,0.0
62.0,43.0,45.0,21.0,64.0,63.0,6.0,42.0,54.0,34.0,0.0
135.0,17.0,12.0,4.0,54.0,70.0,-1.0,19.0,53.0,65.0,0.0
136.0,-40.0,-5.0,4.0,60.0,64.0,-13.0,14.0,51.0,59.0,0.0
79.0,-92.0,-8.0,12.0,62.0,49.0,11.0,17.0,41.0,37.0,0.0
36.0,-75.0,-1.0,10.0,39.0,31.0,13.0,8.0,26.0,12.0,0.0
10.0,-46.0,-18.0,-21.0,8.0,7.0,-12.0,-23.0,-1.0,-15.0,0.0
0.0,-49.0,-33.0,-53.0,-17.0,-22.0,-13.0,-31.0,-13.0,-30.0,0.0
-50.0,-76.0,-53.0,-75.0,-34.0,-48.0,-24.0,-55.0,-19.0,-59.0,0.0
-107.0,-89.0,-80.0,-85.0,-53.0,-60.0,-19.0,-70.0,-26.0,-92.0,0.0
-136.0,-64.0,-59.0,-83.0,-62.0,-64.0,-21.0,-65.0,-34.0,-85.0,0.0
-115.0,-34.0,-44.0,-78.0,-60.0,-67.0,-10.0,-55.0,-37.0,-80.0,0.0
-71.0,-20.0,-56.0,-70.0,-50.0,-54.0,-15.0,-30.0,-13.0,-71.0,0.0
-36.0,-15.0,-49.0,-56.0,-43.0,-47.0,-1.0,-17.0,-10.0,-44.0,0.0
-3.0,8.0,-17.0,-15.0,-8.0,-25.0,21.0,0.0,0.0,-28.0,0.0
20.0,32.0,13.0,19.0,17.0,8.0,17.0,16.0,10.0,1.0,0.0
39.0,56.0,23.0,44.0,30.0,22.0,27.0,33.0,27.0,23.0,0.0
63.0,75.0,32.0,55.0,58.0,39.0,25.0,41.0,52.0,42.0,0.0
82.0,76.0,39.0,54.0,75.0,56.0,15.0,47.0,57.0,52.0,0.0
82.0,70.0,19.0,48.0,62.0,69.0,25.0,51.0,67.0,54.0,0.0
74.0,61.0,2.0,32.0,46.0,64.0,28.0,44.0,56.0,52.0,0.0
59.0,48.0,7.0,20.0,42.0,53.0,-2.0,39.0,36.0,48.0,0.0
39.0,29.0,5.0,6.0,30.0,23.0,-10.0,17.0,15.0,33.0,0.0
9.0,0.0,-12.0,-11.0,13.0,7.0,-23.0,3.0,4.0,11.0,0.0
-12.0,-15.0,-32.0,-25.0,-7.0,-8.0,-12.0,-2.0,-13.0,-15.0,0.0
-43.0,-21.0,-41.0,-39.0,-39.0,-35.0,-7.0,-22.0,-29.0,-35.0,0.0
-59.0,-17.0,-38.0,-58.0,-56.0,-43.0,-21.0,-46.0,-43.0,-45.0,0.0
-62.0,-22.0,-32.0,-78.0,-62.0,-55.0,-21.0,-53.0,-51.0,-68.0,0.0
-56.0,-11.0,-15.0,-77.0,-61.0,-44.0,-20.0,-45.0,-42.0,-66.0,0.0
-34.0,11.0,-8.0,-64.0,-52.0,-28.0,-17.0,-29.0,-46.0,-61.0,0.0
-4.0,26.0,7.0,-46.0,-42.0,-20.0,-20.0,-26.0,-52.0,-46.0,0.0
25.0,57.0,13.0,-27.0,-18.0,-4.0,-1.0,1.0,-24.0,-10.0,0.0
44.0,62.0,4.0,-9.0,4.0,36.0,4.0,13.0,1.0,24.0,0.0
50.0,60.0,6.0,24.0,25.0,71.0,22.0,51.0,33.0,52.0,0.0
70.0,91.0,8.0,40.0,44.0,87.0,27.0,59.0,55.0,79.0,0.0
101.0,130.0,40.0,62.0,52.0,88.0,14.0,58.0,51.0,89.0,0.0
126.0,163.0,95.0,69.0,51.0,76.0,1.0,42.0,30.0,72.0,0.0
151.0,181.0,83.0,58.0,42.0,62.0,-4.0,28.0,2.0,49.0,0.0
191.0,200.0,80.0,40.0,19.0,27.0,-30.0,0.0,-29.0,24.0,0.0
292.0,250.0,80.0,29.0,-4.0,-10.0,-58.0,-36.0,-60.0,16.0,0.0
315.0,255.0,47.0,5.0,-27.0,-39.0,-69.0,-66.0,-79.0,-7.0,0.0
172.0,137.0,2.0,-15.0,-48.0,-41.0,-59.0,-67.0,-73.0,-40.0,0.0
-31.0,-11.0,-38.0,-42.0,-68.0,-34.0,-28.0,-42.0,-19.0,-10.0,0.0
-263.0,-187.0,-50.0,-40.0,-64.0,-41.0,0.0,-3.0,10.0,4.0,0.0
-341.0,-245.0,-21.0,-14.0,-57.0,-44.0,-10.0,-7.0,-16.0,-70.0,0.0
-216.0,-172.0,0.0,-19.0,-73.0,-63.0,-42.0,-45.0,-56.0,-111.0,0.0
-66.0,-68.0,-14.0,-38.0,-72.0,-62.0,-53.0,-60.0,-74.0,-94.0,0.0
69.0,14.0,-18.0,-36.0,-44.0,-44.0,-50.0,-59.0,-62.0,-49.0,0.0
123.0,60.0,12.0,-10.0,4.0,-12.0,-38.0,-38.0,-39.0,5.0,0.0
42.0,27.0,41.0,32.0,44.0,24.0,-16.0,9.0,5.0,38.0,0.0
-67.0,-48.0,61.0,60.0,68.0,63.0,14.0,61.0,47.0,46.0,0.0
-101.0,-72.0,54.0,74.0,71.0,69.0,0.0,74.0,63.0,36.0,0.0
-45.0,-66.0,26.0,58.0,59.0,59.0,-4.0,74.0,71.0,57.0,0.0
23.0,-29.0,16.0,32.0,42.0,52.0,-7.0,59.0,53.0,78.0,0.0
62.0,19.0,10.0,14.0,23.0,48.0,5.0,49.0,66.0,110.0,0.0
8.0,23.0,14.0,22.0,23.0,36.0,0.0,40.0,43.0,63.0,0.0
-96.0,-21.0,0.0,27.0,18.0,13.0,0.0,20.0,5.0,-27.0,0.0
-124.0,-29.0,-15.0,13.0,-5.0,-8.0,6.0,16.0,-1.0,-32.0,0.0
-106.0,6.0,-20.0,-14.0,-40.0,-28.0,19.0,4.0,7.0,-35.0,0.0
-99.0,-8.0,-30.0,-38.0,-54.0,-44.0,9.0,-3.0,-3.0,-43.0,0.0
-77.0,-38.0,-43.0,-38.0,-54.0,-38.0,17.0,0.0,-14.0,-48.0,0.0
-33.0,-31.0,-45.0,-34.0,-51.0,-36.0,5.0,-3.0,-31.0,-47.0,0.0
-15.0,-37.0,-46.0,-29.0,-57.0,-36.0,2.0,-17.0,-42.0,-54.0,0.0
-20.0,-72.0,-37.0,-43.0,-56.0,-43.0,-14.0,-25.0,-33.0,-30.0,0.0
-65.0,-104.0,-23.0,-45.0,-44.0,-46.0,-17.0,-25.0,-18.0,-11.0,0.0
-115.0,-121.0,-1.0,-16.0,-8.0,-17.0,-2.0,1.0,0.0,-9.0,0.0
-17.0,-50.0,35.0,12.0,33.0,18.0,4.0,28.0,17.0,9.0,0.0
135.0,29.0,64.0,51.0,55.0,38.0,-1.0,37.0,23.0,29.0,0.0
205.0,81.0,67.0,55.0,65.0,45.0,-3.0,43.0,29.0,72.0,0.0
176.0,79.0,59.0,38.0,64.0,55.0,-5.0,47.0,32.0,90.0,0.0
107.0,44.0,39.0,18.0,52.0,55.0,4.0,39.0,39.0,91.0,0.0
46.0,32.0,38.0,16.0,34.0,48.0,0.0,18.0,31.0,58.0,0.0
-16.0,43.0,37.0,18.0,9.0,20.0,1.0,-5.0,0.0,11.0,0.0
-51.0,31.0,14.0,-3.0,-3.0,-12.0,-3.0,-15.0,-9.0,9.0,0.0
-45.0,-2.0,-20.0,-35.0,-26.0,-37.0,5.0,-22.0,2.0,21.0,0.0
-53.0,-33.0,-40.0,-64.0,-49.0,-55.0,-6.0,-48.0,-19.0,-17.0,0.0
-51.0,-46.0,-71.0,-75.0,-62.0,-60.0,-7.0,-51.0,-51.0,-57.0,0.0
-20.0,2.0,-66.0,-82.0,-64.0,-60.0,-4.0,-50.0,-73.0,-73.0,0.0
-1.0,15.0,-41.0,-72.0,-60.0,-61.0,-11.0,-45.0,-71.0,-68.0,0.0
-57.0,-42.0,-42.0,-48.0,-42.0,-38.0,4.0,-23.0,-51.0,-46.0,0.0
-114.0,-74.0,-24.0,-17.0,-12.0,0.0,15.0,-1.0,-29.0,-63.0,0.0
-106.0,-78.0,-7.0,9.0,14.0,31.0,14.0,4.0,-22.0,-52.0,0.0
-43.0,-50.0,-4.0,24.0,27.0,51.0,10.0,21.0,14.0,3.0,0.0
30.0,6.0,-2.0,26.0,31.0,61.0,14.0,44.0,53.0,54.0,0.0
85.0,57.0,20.0,31.0,40.0,78.0,29.0,56.0,59.0,54.0,0.0
93.0,87.0,48.0,46.0,55.0,81.0,11.0,45.0,34.0,35.0,0.0
96.0,113.0,53.0,58.0,49.0,55.0,5.0,35.0,21.0,28.0,0.0
71.0,95.0,30.0,35.0,29.0,44.0,-7.0,30.0,51.0,61.0,0.0
16.0,52.0,15.0,15.0,23.0,45.0,9.0,33.0,58.0,45.0,0.0
-19.0,33.0,15.0,6.0,11.0,30.0,9.0,6.0,25.0,-3.0,0.0
-13.0,34.0,2.0,-20.0,-16.0,1.0,-11.0,-20.0,-4.0,-28.0,0.0
0.0,13.0,-24.0,-50.0,-44.0,-24.0,-30.0,-33.0,-25.0,-36.0,0.0
0.0,-29.0,-58.0,-74.0,-48.0,-34.0,-34.0,-39.0,-31.0,-41.0,0.0
9.0,-25.0,-81.0,-79.0,-47.0,-32.0,-32.0,-37.0,-28.0,-41.0,0.0
0.0,-11.0,-71.0,-74.0,-54.0,-30.0,-36.0,-48.0,-43.0,-33.0,0.0
-19.0,-14.0,-29.0,-63.0,-50.0,-42.0,-35.0,-46.0,-46.0,-31.0,0.0
-43.0,-21.0,-2.0,-45.0,-50.0,-39.0,-27.0,-38.0,-38.0,-15.0,0.0
-57.0,-37.0,13.0,-4.0,-21.0,-12.0,-9.0,-30.0,-18.0,-13.0,0.0
-23.0,-18.0,21.0,25.0,6.0,15.0,7.0,-12.0,3.0,10.0,0.0
-7.0,10.0,40.0,38.0,27.0,37.0,10.0,16.0,25.0,33.0,0.0
21.0,36.0,59.0,47.0,54.0,66.0,24.0,21.0,38.0,35.0,0.0
67.0,81.0,69.0,65.0,57.0,88.0,20.0,36.0,40.0,37.0,0.0
101.0,109.0,74.0,73.0,51.0,86.0,0.0,36.0,26.0,42.0,0.0
92.0,85.0,74.0,68.0,39.0,71.0,-7.0,19.0,21.0,60.0,0.0
76.0,68.0,59.0,45.0,30.0,51.0,2.0,5.0,34.0,77.0,0.0
30.0,54.0,47.0,8.0,15.0,31.0,16.0,0.0,30.0,48.0,0.0
2.0,35.0,33.0,-3.0,10.0,7.0,-2.0,-25.0,-7.0,-1.0,0.0
32.0,52.0,23.0,-22.0,-7.0,-11.0,-26.0,-52.0,-45.0,-14.0,0.0
42.0,29.0,0.0,-50.0,-33.0,-36.0,-34.0,-63.0,-55.0,0.0,0.0
27.0,40.0,-12.0,-65.0,-67.0,-81.0,-40.0,-79.0,-58.0,0.0,0.0
-9.0,46.0,-23.0,-84.0,-91.0,-104.0,-45.0,-84.0,-68.0,-30.0,0.0
-34.0,31.0,-45.0,-95.0,-86.0,-84.0,-19.0,-61.0,-29.0,5.0,0.0
41.0,105.0,-36.0,-79.0,-78.0,-73.0,-29.0,-48.0,-23.0,-5.0,0.0
39.0,128.0,-2.0,-40.0,-59.0,-71.0,-39.0,-53.0,-47.0,-63.0,0.0
-15.0,60.0,27.0,15.0,-5.0,-17.0,-5.0,-13.0,-23.0,-61.0,0.0
-25.0,-3.0,37.0,46.0,40.0,40.0,26.0,23.0,23.0,0.0,0.0
-42.0,-58.0,14.0,55.0,45.0,44.0,36.0,65.0,75.0,61.0,0.0
-57.0,-96.0,14.0,61.0,67.0,51.0,32.0,75.0,101.0,64.0,0.0
-23.0,-105.0,-5.0,63.0,76.0,86.0,47.0,88.0,97.0,79.0,0.0
-19.0,-123.0,-15.0,44.0,72.0,92.0,64.0,97.0,78.0,87.0,0.0
-54.0,-120.0,-21.0,38.0,69.0,94.0,58.0,88.0,68.0,69.0,0.0
-53.0,-89.0,-9.0,48.0,53.0,81.0,46.0,63.0,54.0,61.0,0.0
-54.0,-64.0,-5.0,28.0,23.0,46.0,12.0,29.0,22.0,20.0,0.0
-50.0,-65.0,-10.0,7.0,-12.0,11.0,-16.0,-6.0,-4.0,-12.0,0.0
-56.0,-64.0,-19.0,-21.0,-23.0,-16.0,-13.0,-21.0,-12.0,-39.0,0.0
-93.0,-58.0,-22.0,-25.0,-34.0,-37.0,-10.0,-36.0,-13.0,-65.0,0.0
-119.0,-63.0,0.0,-27.0,-51.0,-46.0,-15.0,-41.0,-37.0,-81.0,0.0
-108.0,-42.0,21.0,-19.0,-56.0,-60.0,-22.0,-47.0,-54.0,-61.0,0.0
-73.0,-27.0,34.0,-22.0,-54.0,-69.0,-33.0,-53.0,-54.0,-50.0,0.0
-40.0,-22.0,24.0,-17.0,-44.0,-67.0,-21.0,-46.0,-52.0,-46.0,0.0
-16.0,-27.0,14.0,-11.0,-33.0,-48.0,-2.0,-28.0,-40.0,-19.0,0.0
15.0,-50.0,12.0,-12.0,-20.0,-41.0,0.0,-13.0,-16.0,5.0,0.0
42.0,-42.0,28.0,1.0,-1.0,-10.0,7.0,9.0,-6.0,35.0,0.0
54.0,4.0,43.0,29.0,21.0,27.0,15.0,29.0,14.0,47.0,0.0
88.0,55.0,60.0,45.0,40.0,41.0,20.0,35.0,29.0,46.0,0.0
91.0,81.0,73.0,51.0,49.0,45.0,38.0,46.0,34.0,64.0,0.0
74.0,74.0,66.0,64.0,44.0,48.0,33.0,45.0,39.0,64.0,0.0
48.0,63.0,73.0,62.0,46.0,50.0,42.0,35.0,35.0,43.0,0.0
21.0,49.0,61.0,42.0,41.0,41.0,36.0,31.0,24.0,30.0,0.0
-5.0,66.0,37.0,23.0,24.0,14.0,19.0,26.0,6.0,32.0,0.0
-25.0,82.0,15.0,7.0,4.0,-10.0,14.0,11.0,0.0,25.0,0.0
-30.0,48.0,-3.0,-11.0,-23.0,-29.0,3.0,0.0,-20.0,-1.0,0.0
8.0,12.0,-21.0,-39.0,-38.0,-59.0,-1.0,-13.0,-34.0,-10.0,0.0
75.0,4.0,-32.0,-43.0,-38.0,-73.0,-16.0,-36.0,-40.0,-22.0,0.0
112.0,-16.0,-39.0,-40.0,-54.0,-77.0,-20.0,-46.0,-46.0,-28.0,0.0
35.0,-89.0,-52.0,-37.0,-61.0,-76.0,-23.0,-42.0,-57.0,-40.0,0.0
-86.0,-151.0,-55.0,-24.0,-57.0,-75.0,-22.0,-46.0,-66.0,-66.0,0.0
-91.0,-89.0,-31.0,-16.0,-31.0,-54.0,-20.0,-34.0,-36.0,-30.0,0.0
18.0,20.0,-11.0,6.0,-1.0,-26.0,-12.0,-5.0,-7.0,13.0,0.0
127.0,94.0,15.0,39.0,17.0,-4.0,-12.0,-4.0,6.0,37.0,0.0
164.0,118.0,34.0,49.0,36.0,14.0,-16.0,-1.0,29.0,55.0,0.0
131.0,62.0,28.0,53.0,52.0,32.0,3.0,30.0,40.0,70.0,0.0
124.0,-17.0,-4.0,35.0,49.0,44.0,15.0,55.0,55.0,88.0,0.0
147.0,-42.0,-24.0,14.0,37.0,23.0,22.0,46.0,32.0,62.0,0.0
225.0,-3.0,-16.0,21.0,30.0,0.0,11.0,49.0,19.0,40.0,0.0
264.0,51.0,0.0,18.0,24.0,-18.0,-3.0,28.0,16.0,38.0,0.0
158.0,53.0,23.0,17.0,0.0,-42.0,-24.0,-8.0,-21.0,4.0,0.0
0.0,5.0,13.0,0.0,-15.0,-63.0,-35.0,-29.0,-44.0,-39.0,0.0
-114.0,-78.0,-55.0,-50.0,-37.0,-75.0,-17.0,-4.0,7.0,-29.0,0.0
-263.0,-154.0,-102.0,-84.0,-44.0,-61.0,35.0,37.0,22.0,-60.0,0.0
-315.0,-169.0,-74.0,-74.0,-21.0,-46.0,23.0,12.0,-25.0,-110.0,0.0
-295.0,-161.0,-45.0,-74.0,-18.0,-52.0,9.0,-5.0,-36.0,-89.0,0.0
-246.0,-147.0,-52.0,-83.0,-39.0,-62.0,7.0,7.0,-12.0,-61.0,0.0
-172.0,-118.0,-62.0,-64.0,-25.0,-47.0,29.0,19.0,23.0,-18.0,0.0
-102.0,-60.0,-25.0,-27.0,15.0,-15.0,42.0,23.0,21.0,-6.0,0.0
-57.0,-7.0,18.0,14.0,47.0,15.0,31.0,8.0,2.0,-5.0,0.0
-18.0,28.0,39.0,41.0,52.0,38.0,35.0,14.0,12.0,-3.0,0.0
7.0,35.0,48.0,37.0,62.0,55.0,46.0,43.0,49.0,22.0,0.0
38.0,33.0,34.0,39.0,66.0,64.0,42.0,71.0,75.0,61.0,0.0
48.0,51.0,45.0,45.0,62.0,57.0,35.0,57.0,54.0,40.0,0.0
21.0,54.0,47.0,49.0,58.0,51.0,42.0,45.0,32.0,8.0,0.0
28.0,50.0,25.0,41.0,53.0,56.0,40.0,50.0,21.0,12.0,0.0
26.0,21.0,13.0,15.0,29.0,35.0,21.0,22.0,9.0,4.0,0.0
-22.0,-31.0,-3.0,-3.0,6.0,7.0,24.0,2.0,-10.0,-32.0,0.0
-52.0,-34.0,-21.0,-17.0,0.0,-15.0,18.0,-2.0,-20.0,-40.0,0.0
-81.0,-33.0,-41.0,-61.0,-33.0,-47.0,-6.0,-28.0,-38.0,-51.0,0.0
-103.0,-48.0,-62.0,-79.0,-53.0,-76.0,-16.0,-56.0,-66.0,-66.0,0.0
-70.0,-55.0,-62.0,-88.0,-76.0,-79.0,-42.0,-64.0,-70.0,-67.0,0.0
-33.0,-17.0,-46.0,-74.0,-74.0,-70.0,-38.0,-56.0,-63.0,-77.0,0.0
1.0,8.0,-29.0,-60.0,-58.0,-53.0,-26.0,-45.0,-46.0,-65.0,0.0
11.0,2.0,-11.0,-46.0,-29.0,-24.0,-2.0,-28.0,-30.0,-36.0,0.0
14.0,-9.0,0.0,-27.0,-5.0,-11.0,-3.0,-14.0,-27.0,-22.0,0.0
33.0,-10.0,17.0,2.0,14.0,0.0,2.0,7.0,-14.0,-8.0,0.0
53.0,9.0,49.0,29.0,43.0,29.0,8.0,24.0,2.0,37.0,0.0
77.0,65.0,88.0,52.0,57.0,49.0,18.0,21.0,15.0,52.0,0.0
104.0,112.0,117.0,70.0,62.0,41.0,29.0,18.0,24.0,35.0,0.0
148.0,133.0,112.0,71.0,63.0,38.0,13.0,25.0,28.0,27.0,0.0
179.0,134.0,69.0,60.0,51.0,39.0,27.0,28.0,29.0,24.0,0.0
157.0,115.0,31.0,28.0,29.0,27.0,30.0,12.0,24.0,10.0,0.0
98.0,79.0,-10.0,-9.0,2.0,11.0,15.0,-2.0,17.0,15.0,0.0
14.0,19.0,-38.0,-31.0,-8.0,-1.0,16.0,-11.0,-7.0,-8.0,0.0
-41.0,9.0,-25.0,-25.0,-25.0,-16.0,2.0,-26.0,-56.0,-64.0,0.0
-10.0,5.0,-55.0,-53.0,-65.0,-59.0,-22.0,-51.0,-52.0,-34.0,0.0
14.0,-16.0,-92.0,-94.0,-105.0,-96.0,-35.0,-82.0,-42.0,-18.0,0.0
12.0,-42.0,-70.0,-79.0,-99.0,-85.0,-27.0,-76.0,-46.0,-24.0,0.0
5.0,-20.0,-35.0,-52.0,-67.0,-64.0,-10.0,-55.0,-45.0,-7.0,0.0
-43.0,-30.0,-10.0,-22.0,-29.0,-26.0,1.0,-43.0,-42.0,-28.0,0.0
-29.0,-13.0,14.0,9.0,1.0,3.0,16.0,-42.0,-40.0,-52.0,0.0
22.0,22.0,23.0,26.0,23.0,23.0,6.0,-21.0,-44.0,-47.0,0.0
62.0,32.0,19.0,43.0,47.0,55.0,13.0,14.0,-29.0,-10.0,0.0
121.0,59.0,5.0,44.0,77.0,84.0,46.0,39.0,19.0,32.0,0.0
138.0,93.0,27.0,48.0,77.0,84.0,41.0,49.0,32.0,51.0,0.0
92.0,76.0,55.0,51.0,75.0,71.0,9.0,28.0,5.0,16.0,0.0
62.0,16.0,36.0,27.0,69.0,56.0,22.0,37.0,35.0,68.0,0.0
16.0,-49.0,13.0,3.0,39.0,36.0,23.0,50.0,66.0,101.0,0.0
-71.0,-77.0,17.0,6.0,25.0,25.0,3.0,31.0,31.0,39.0,0.0
-83.0,-67.0,7.0,-5.0,9.0,13.0,9.0,22.0,17.0,29.0,0.0
-80.0,-61.0,-18.0,-8.0,-18.0,-8.0,15.0,6.0,0.0,13.0,0.0
-126.0,-107.0,-50.0,-21.0,-44.0,-24.0,10.0,6.0,-11.0,-2.0,0.0
-177.0,-128.0,-63.0,-28.0,-61.0,-33.0,14.0,-10.0,-29.0,-28.0,0.0
-219.0,-122.0,-52.0,-24.0,-63.0,-33.0,6.0,-34.0,-53.0,-86.0,0.0
-216.0,-106.0,-28.0,-14.0,-58.0,-24.0,-4.0,-37.0,-64.0,-109.0,0.0
-143.0,-62.0,-19.0,-24.0,-44.0,-14.0,6.0,-15.0,-45.0,-69.0,0.0
-73.0,-1.0,-17.0,-22.0,-32.0,-6.0,19.0,1.0,-13.0,-49.0,0.0
-6.0,68.0,8.0,-12.0,-22.0,3.0,8.0,7.0,1.0,-19.0,0.0
43.0,100.0,37.0,3.0,-5.0,34.0,9.0,15.0,21.0,-1.0,0.0
80.0,96.0,33.0,20.0,17.0,52.0,32.0,40.0,34.0,19.0,0.0
107.0,91.0,37.0,36.0,33.0,58.0,43.0,68.0,44.0,39.0,0.0
120.0,87.0,49.0,43.0,52.0,72.0,26.0,64.0,38.0,43.0,0.0
111.0,66.0,53.0,47.0,57.0,66.0,13.0,51.0,29.0,43.0,0.0
56.0,30.0,34.0,45.0,60.0,58.0,17.0,53.0,24.0,44.0,0.0
-15.0,-35.0,36.0,43.0,46.0,45.0,16.0,43.0,19.0,37.0,0.0
-65.0,-83.0,11.0,18.0,21.0,36.0,8.0,32.0,16.0,18.0,0.0
-36.0,-66.0,-18.0,-15.0,6.0,12.0,-5.0,9.0,-3.0,12.0,0.0
-6.0,-33.0,-31.0,-36.0,-14.0,-15.0,-17.0,-17.0,-38.0,-9.0,0.0
-12.0,-27.0,-33.0,-52.0,-43.0,-43.0,-39.0,-30.0,-53.0,-42.0,0.0
-24.0,-36.0,-41.0,-65.0,-64.0,-69.0,-36.0,-41.0,-63.0,-46.0,0.0
-46.0,-37.0,-42.0,-67.0,-64.0,-79.0,-35.0,-49.0,-64.0,-54.0,0.0
-69.0,-33.0,-46.0,-58.0,-51.0,-64.0,-35.0,-45.0,-52.0,-31.0,0.0
-76.0,-35.0,-47.0,-46.0,-38.0,-46.0,-34.0,-30.0,-37.0,-37.0,0.0
-33.0,-20.0,-30.0,-27.0,-24.0,-26.0,-21.0,-10.0,-15.0,-20.0,0.0
42.0,52.0,13.0,1.0,2.0,2.0,-13.0,0.0,0.0,17.0,0.0
79.0,85.0,41.0,22.0,27.0,25.0,0.0,15.0,16.0,38.0,0.0
100.0,71.0,42.0,29.0,56.0,45.0,32.0,43.0,39.0,65.0,0.0
114.0,65.0,40.0,25.0,66.0,52.0,34.0,59.0,58.0,82.0,0.0
90.0,60.0,32.0,31.0,66.0,45.0,9.0,63.0,45.0,73.0,0.0
61.0,49.0,22.0,33.0,55.0,53.0,9.0,53.0,29.0,67.0,0.0
68.0,31.0,16.0,25.0,46.0,51.0,24.0,52.0,35.0,70.0,0.0
102.0,26.0,8.0,10.0,55.0,49.0,9.0,46.0,13.0,66.0,0.0
147.0,21.0,-6.0,-7.0,48.0,23.0,-11.0,12.0,-6.0,52.0,0.0
147.0,27.0,-31.0,-26.0,11.0,-4.0,-33.0,-8.0,-15.0,30.0,0.0
81.0,57.0,-40.0,-32.0,-21.0,-20.0,-42.0,-30.0,-41.0,8.0,0.0
39.0,76.0,-51.0,-56.0,-45.0,-47.0,-34.0,-45.0,-47.0,4.0,0.0
-20.0,57.0,-59.0,-68.0,-58.0,-72.0,-35.0,-35.0,-36.0,16.0,0.0
-100.0,25.0,-60.0,-38.0,-59.0,-74.0,-31.0,-30.0,-37.0,-22.0,0.0
-125.0,20.0,-28.0,18.0,-34.0,-45.0,-25.0,-44.0,-57.0,-93.0,0.0
-119.0,-7.0,-13.0,40.0,-2.0,-7.0,-9.0,-22.0,-45.0,-90.0,0.0
-82.0,-28.0,-13.0,47.0,14.0,7.0,-14.0,-2.0,-34.0,-59.0,0.0
-74.0,-97.0,-25.0,43.0,0.0,4.0,-15.0,-6.0,-25.0,-24.0,0.0
-82.0,-108.0,-13.0,49.0,9.0,15.0,-27.0,13.0,0.0,3.0,0.0
16.0,-29.0,8.0,57.0,37.0,53.0,7.0,49.0,39.0,24.0,0.0
85.0,-6.0,6.0,56.0,48.0,59.0,7.0,47.0,43.0,41.0,0.0
109.0,-20.0,-4.0,47.0,22.0,29.0,-13.0,24.0,16.0,44.0,0.0
76.0,-5.0,-12.0,43.0,5.0,8.0,-13.0,8.0,6.0,20.0,0.0
45.0,52.0,22.0,52.0,12.0,24.0,-14.0,14.0,0.0,8.0,0.0
20.0,67.0,42.0,46.0,28.0,30.0,8.0,22.0,19.0,14.0,0.0
-11.0,51.0,15.0,26.0,28.0,21.0,10.0,17.0,18.0,8.0,0.0
-18.0,32.0,-7.0,25.0,16.0,6.0,11.0,-3.0,2.0,-12.0,0.0
-21.0,-3.0,-31.0,3.0,-5.0,-25.0,-8.0,-16.0,-12.0,-39.0,0.0
-8.0,-19.0,-36.0,-3.0,-27.0,-54.0,-21.0,-36.0,-33.0,-46.0,0.0
44.0,-12.0,-27.0,-15.0,-42.0,-73.0,-29.0,-41.0,-43.0,-48.0,0.0
117.0,14.0,-16.0,-7.0,-48.0,-76.0,-43.0,-54.0,-67.0,-74.0,0.0
69.0,-18.0,-24.0,-23.0,-44.0,-69.0,-48.0,-56.0,-74.0,-80.0,0.0
-45.0,-114.0,-43.0,-46.0,-40.0,-46.0,-43.0,-45.0,-63.0,-51.0,0.0
-129.0,-154.0,-38.0,-34.0,-14.0,-19.0,-15.0,-3.0,-9.0,25.0,0.0
-87.0,-99.0,-17.0,-2.0,14.0,9.0,0.0,34.0,27.0,73.0,0.0
-58.0,-25.0,22.0,42.0,38.0,37.0,-18.0,33.0,23.0,43.0,0.0
-16.0,21.0,47.0,75.0,65.0,62.0,-4.0,29.0,17.0,26.0,0.0
41.0,69.0,56.0,84.0,78.0,69.0,-6.0,38.0,24.0,27.0,0.0
91.0,92.0,45.0,60.0,66.0,52.0,-11.0,29.0,23.0,49.0,0.0
120.0,60.0,12.0,22.0,52.0,31.0,-22.0,23.0,32.0,85.0,0.0
96.0,0.0,-18.0,-2.0,36.0,21.0,-5.0,33.0,51.0,100.0,0.0
29.0,-17.0,-17.0,-1.0,27.0,12.0,-4.0,28.0,28.0,45.0,0.0
4.0,-9.0,-18.0,0.0,11.0,-9.0,-5.0,9.0,4.0,-11.0,0.0
23.0,7.0,-17.0,-4.0,-9.0,-36.0,-11.0,-1.0,-21.0,-42.0,0.0
19.0,14.0,-15.0,-13.0,-28.0,-45.0,-6.0,-21.0,-30.0,-49.0,0.0
-2.0,0.0,-42.0,-30.0,-56.0,-56.0,-5.0,-25.0,-26.0,-30.0,0.0
-64.0,-35.0,-41.0,-36.0,-58.0,-72.0,-20.0,-39.0,-53.0,-36.0,0.0
-133.0,-64.0,-16.0,-14.0,-49.0,-67.0,-22.0,-42.0,-77.0,-62.0,0.0
-104.0,-36.0,-2.0,-2.0,-45.0,-55.0,-21.0,-19.0,-62.0,-50.0,0.0
0.0,37.0,8.0,-15.0,-42.0,-51.0,-19.0,-7.0,-16.0,6.0,0.0
28.0,46.0,20.0,5.0,0.0,-18.0,3.0,13.0,8.0,31.0,0.0
42.0,40.0,20.0,29.0,34.0,28.0,36.0,36.0,21.0,29.0,0.0
119.0,83.0,23.0,31.0,41.0,34.0,29.0,40.0,30.0,60.0,0.0
169.0,119.0,36.0,25.0,34.0,22.0,19.0,54.0,57.0,97.0,0.0
166.0,81.0,25.0,17.0,50.0,38.0,46.0,65.0,99.0,133.0,0.0
31.0,2.0,27.0,38.0,77.0,64.0,34.0,62.0,80.0,67.0,0.0
-71.0,-53.0,15.0,49.0,84.0,70.0,39.0,59.0,46.0,-11.0,0.0
-93.0,-89.0,-3.0,25.0,68.0,57.0,54.0,52.0,41.0,-1.0,0.0
-121.0,-115.0,2.0,12.0,48.0,27.0,46.0,23.0,16.0,-27.0,0.0
-91.0,-61.0,17.0,-2.0,15.0,-9.0,0.0,-21.0,-35.0,-79.0,0.0
-65.0,-20.0,6.0,-22.0,-16.0,-24.0,-12.0,-39.0,-41.0,-81.0,0.0
-65.0,-30.0,-31.0,-51.0,-49.0,-40.0,-11.0,-38.0,-37.0,-55.0,0.0
-70.0,-47.0,-56.0,-59.0,-74.0,-57.0,0.0,-43.0,-30.0,-55.0,0.0
-62.0,-33.0,-55.0,-55.0,-78.0,-63.0,-12.0,-48.0,-39.0,-51.0,0.0
-58.0,-52.0,-58.0,-40.0,-65.0,-50.0,1.0,-44.0,-33.0,-39.0,0.0
-68.0,-95.0,-61.0,-22.0,-41.0,-36.0,14.0,-22.0,-14.0,-6.0,0.0
-64.0,-100.0,-41.0,8.0,-21.0,-12.0,17.0,-8.0,-8.0,-7.0,0.0
-29.0,-63.0,-12.0,29.0,0.0,27.0,30.0,1.0,4.0,3.0,0.0
33.0,18.0,18.0,43.0,21.0,35.0,22.0,15.0,25.0,33.0,0.0
82.0,60.0,39.0,51.0,32.0,39.0,25.0,38.0,49.0,73.0,0.0
117.0,59.0,22.0,41.0,45.0,56.0,33.0,55.0,63.0,98.0,0.0
103.0,42.0,10.0,38.0,62.0,68.0,39.0,39.0,56.0,90.0,0.0
84.0,42.0,17.0,37.0,66.0,55.0,26.0,20.0,40.0,67.0,0.0
69.0,58.0,18.0,37.0,65.0,43.0,5.0,8.0,26.0,40.0,0.0
44.0,57.0,30.0,28.0,46.0,20.0,-3.0,-12.0,8.0,19.0,0.0
25.0,37.0,25.0,4.0,11.0,-10.0,-20.0,-38.0,-17.0,-2.0,0.0
-5.0,24.0,19.0,-17.0,-13.0,-40.0,-26.0,-51.0,-30.0,0.0,0.0
-48.0,12.0,4.0,-32.0,-36.0,-51.0,-33.0,-63.0,-57.0,-15.0,0.0
-90.0,-2.0,-12.0,-33.0,-39.0,-51.0,-34.0,-72.0,-74.0,-48.0,0.0
-129.0,-6.0,-21.0,-28.0,-33.0,-43.0,-26.0,-70.0,-71.0,-67.0,0.0
-130.0,16.0,-29.0,-36.0,-26.0,-32.0,-9.0,-65.0,-61.0,-47.0,0.0
-105.0,14.0,-34.0,-38.0,-32.0,-33.0,-14.0,-44.0,-43.0,-20.0,0.0
-54.0,43.0,-9.0,-28.0,-23.0,-29.0,4.0,-22.0,-9.0,-6.0,0.0
26.0,104.0,10.0,-13.0,0.0,-3.0,9.0,2.0,22.0,21.0,0.0
119.0,163.0,48.0,6.0,15.0,10.0,5.0,30.0,37.0,42.0,0.0
196.0,152.0,62.0,17.0,9.0,6.0,5.0,56.0,42.0,81.0,0.0
176.0,65.0,23.0,6.0,5.0,14.0,-4.0,53.0,32.0,69.0,0.0
121.0,16.0,14.0,25.0,24.0,35.0,7.0,45.0,25.0,28.0,0.0
178.0,55.0,28.0,30.0,28.0,38.0,4.0,32.0,30.0,37.0,0.0
216.0,83.0,37.0,0.0,6.0,12.0,7.0,27.0,47.0,79.0,0.0
116.0,47.0,51.0,-25.0,-6.0,0.0,8.0,23.0,26.0,42.0,0.0
-65.0,-65.0,16.0,-34.0,-13.0,-2.0,16.0,21.0,23.0,12.0,0.0
-153.0,-123.0,8.0,-35.0,-21.0,-17.0,28.0,7.0,3.0,-14.0,0.0
-117.0,-120.0,-4.0,-48.0,-44.0,-44.0,6.0,-28.0,-13.0,-36.0,0.0
-88.0,-139.0,-27.0,-68.0,-62.0,-56.0,-4.0,-29.0,-10.0,-15.0,0.0
-117.0,-153.0,-34.0,-73.0,-59.0,-56.0,19.0,-29.0,-16.0,-14.0,0.0
-152.0,-129.0,-38.0,-75.0,-53.0,-59.0,6.0,-26.0,-15.0,-13.0,0.0
-110.0,-98.0,-28.0,-63.0,-55.0,-53.0,1.0,-20.0,6.0,12.0,0.0
-48.0,-60.0,11.0,-39.0,-43.0,-35.0,-5.0,-24.0,-11.0,-2.0,0.0
22.0,-11.0,37.0,-25.0,-21.0,-20.0,-17.0,-23.0,-23.0,-25.0,0.0
70.0,11.0,32.0,-6.0,9.0,4.0,-12.0,-4.0,-8.0,-14.0,0.0
49.0,-9.0,22.0,14.0,19.0,24.0,-11.0,12.0,16.0,1.0,0.0
47.0,3.0,31.0,46.0,28.0,39.0,6.0,23.0,33.0,24.0,0.0
50.0,70.0,62.0,75.0,43.0,57.0,0.0,24.0,35.0,33.0,0.0
46.0,137.0,84.0,81.0,49.0,68.0,-2.0,34.0,38.0,39.0,0.0
56.0,126.0,83.0,72.0,45.0,63.0,11.0,37.0,47.0,49.0,0.0
78.0,88.0,55.0,55.0,40.0,53.0,6.0,48.0,60.0,68.0,0.0
68.0,57.0,31.0,33.0,24.0,51.0,4.0,48.0,65.0,55.0,0.0
17.0,32.0,28.0,12.0,0.0,13.0,-20.0,7.0,22.0,0.0,0.0
-68.0,-44.0,7.0,-1.0,-23.0,-20.0,-31.0,-17.0,-8.0,-37.0,0.0
-178.0,-154.0,-23.0,-25.0,-57.0,-45.0,-33.0,-37.0,-19.0,-46.0,0.0
-219.0,-176.0,-32.0,-31.0,-71.0,-53.0,-31.0,-50.0,-38.0,-38.0,0.0
-178.0,-125.0,-31.0,-23.0,-70.0,-58.0,-26.0,-58.0,-43.0,-50.0,0.0
-127.0,-88.0,-33.0,-36.0,-68.0,-68.0,-6.0,-63.0,-40.0,-48.0,0.0
-75.0,-40.0,-36.0,-37.0,-68.0,-61.0,-15.0,-63.0,-41.0,-34.0,0.0
-15.0,-6.0,-43.0,-28.0,-60.0,-42.0,-12.0,-56.0,-24.0,-24.0,0.0
69.0,42.0,-32.0,-5.0,-37.0,-21.0,0.0,-31.0,-9.0,5.0,0.0
164.0,109.0,0.0,29.0,-3.0,8.0,13.0,-24.0,-17.0,1.0,0.0
242.0,154.0,29.0,49.0,24.0,24.0,12.0,-27.0,-24.0,7.0,0.0
248.0,170.0,39.0,50.0,32.0,45.0,5.0,-12.0,8.0,45.0,0.0
153.0,139.0,51.0,67.0,48.0,54.0,19.0,12.0,30.0,64.0,0.0
44.0,70.0,31.0,44.0,49.0,56.0,37.0,57.0,86.0,138.0,0.0
-38.0,46.0,23.0,20.0,46.0,42.0,44.0,77.0,129.0,170.0,0.0
-171.0,24.0,44.0,34.0,60.0,38.0,44.0,52.0,74.0,41.0,0.0
-189.0,10.0,43.0,39.0,53.0,36.0,43.0,28.0,26.0,-45.0,0.0
-103.0,46.0,20.0,21.0,29.0,21.0,18.0,8.0,11.0,-59.0,0.0
5.0,64.0,-12.0,-9.0,-9.0,11.0,19.0,-3.0,6.0,-13.0,0.0
63.0,22.0,-49.0,-37.0,-46.0,-2.0,35.0,-9.0,6.0,10.0,0.0
16.0,-51.0,-66.0,-57.0,-66.0,-25.0,26.0,-23.0,-13.0,-22.0,0.0
-67.0,-74.0,-51.0,-57.0,-81.0,-38.0,-6.0,-44.0,-53.0,-77.0,0.0
-154.0,-127.0,-64.0,-75.0,-83.0,-46.0,-9.0,-43.0,-46.0,-71.0,0.0
-232.0,-152.0,-58.0,-61.0,-60.0,-43.0,-9.0,-36.0,-32.0,-60.0,0.0
-195.0,-122.0,-16.0,-17.0,-28.0,-23.0,-17.0,-37.0,-46.0,-90.0,0.0
-103.0,-119.0,3.0,17.0,-1.0,-5.0,-6.0,-21.0,-33.0,-91.0,0.0
-14.0,-67.0,30.0,40.0,22.0,8.0,-4.0,-7.0,-19.0,-64.0,0.0
55.0,-13.0,44.0,40.0,43.0,23.0,12.0,9.0,12.0,-6.0,0.0
113.0,25.0,51.0,40.0,40.0,25.0,17.0,23.0,52.0,72.0,0.0
106.0,29.0,56.0,38.0,40.0,36.0,-1.0,25.0,65.0,71.0,0.0
47.0,-2.0,47.0,26.0,49.0,46.0,17.0,32.0,73.0,46.0,0.0
66.0,32.0,47.0,21.0,46.0,48.0,6.0,22.0,65.0,39.0,0.0
99.0,101.0,54.0,12.0,25.0,23.0,-17.0,2.0,28.0,37.0,0.0
70.0,91.0,36.0,-15.0,12.0,1.0,-14.0,-13.0,7.0,29.0,0.0
-16.0,-6.0,8.0,-34.0,-11.0,-12.0,-26.0,-18.0,4.0,11.0,0.0
-123.0,-90.0,-12.0,-45.0,-22.0,-21.0,-25.0,-33.0,-23.0,-58.0,0.0
-135.0,-87.0,-18.0,-69.0,-38.0,-45.0,-33.0,-53.0,-41.0,-72.0,0.0
-93.0,-57.0,-28.0,-90.0,-59.0,-80.0,-36.0,-56.0,-40.0,-66.0,0.0
-53.0,-38.0,-39.0,-86.0,-68.0,-79.0,-36.0,-52.0,-40.0,-62.0,0.0
-51.0,-56.0,-53.0,-73.0,-53.0,-59.0,-18.0,-36.0,-32.0,-68.0,0.0
-56.0,-86.0,-61.0,-49.0,-29.0,-34.0,-1.0,-5.0,-2.0,-37.0,0.0
-26.0,-78.0,-48.0,-15.0,-8.0,-10.0,25.0,8.0,17.0,-21.0,0.0
16.0,-33.0,-24.0,6.0,7.0,3.0,17.0,22.0,14.0,0.0,0.0
42.0,10.0,-6.0,14.0,13.0,18.0,-2.0,37.0,29.0,24.0,0.0
60.0,51.0,0.0,18.0,24.0,41.0,8.0,50.0,47.0,45.0,0.0
99.0,77.0,23.0,52.0,45.0,59.0,3.0,53.0,55.0,64.0,0.0
114.0,85.0,48.0,73.0,56.0,68.0,9.0,51.0,72.0,59.0,0.0
107.0,56.0,32.0,69.0,60.0,70.0,25.0,35.0,75.0,41.0,0.0
108.0,40.0,14.0,53.0,57.0,57.0,34.0,29.0,52.0,16.0,0.0
116.0,39.0,-7.0,33.0,46.0,29.0,26.0,22.0,28.0,-15.0,0.0
97.0,36.0,-17.0,4.0,9.0,-3.0,14.0,12.0,18.0,-16.0,0.0
41.0,37.0,-23.0,-14.0,-16.0,-29.0,-12.0,0.0,18.0,2.0,0.0
-28.0,12.0,-36.0,-37.0,-34.0,-64.0,-36.0,-12.0,2.0,-10.0,0.0
-80.0,-19.0,-42.0,-46.0,-61.0,-88.0,-46.0,-34.0,-8.0,-28.0,0.0
-93.0,-56.0,-59.0,-51.0,-77.0,-81.0,-43.0,-40.0,-18.0,-51.0,0.0
-61.0,-66.0,-66.0,-56.0,-76.0,-67.0,-30.0,-36.0,-31.0,-56.0,0.0
-28.0,-49.0,-59.0,-41.0,-64.0,-59.0,-9.0,-26.0,-33.0,-50.0,0.0
14.0,-1.0,-48.0,-27.0,-44.0,-44.0,-10.0,-16.0,-6.0,-25.0,0.0
69.0,36.0,-40.0,-40.0,-31.0,-21.0,-13.0,-1.0,20.0,21.0,0.0
51.0,25.0,-29.0,-28.0,-5.0,7.0,-11.0,7.0,25.0,51.0,0.0
26.0,-4.0,-7.0,-2.0,17.0,27.0,8.0,27.0,27.0,59.0,0.0
5.0,12.0,25.0,41.0,43.0,50.0,6.0,35.0,24.0,39.0,0.0
-11.0,11.0,52.0,66.0,59.0,62.0,0.0,32.0,33.0,33.0,0.0
16.0,12.0,39.0,53.0,60.0,64.0,21.0,46.0,60.0,66.0,0.0
12.0,6.0,23.0,36.0,62.0,52.0,15.0,42.0,61.0,77.0,0.0
9.0,23.0,12.0,42.0,46.0,35.0,1.0,23.0,23.0,47.0,0.0
-15.0,31.0,27.0,37.0,30.0,11.0,-3.0,-4.0,4.0,1.0,0.0
-39.0,6.0,21.0,28.0,14.0,-7.0,-16.0,-20.0,-14.0,-21.0,0.0
-57.0,-24.0,-5.0,5.0,-7.0,-17.0,-6.0,-25.0,-12.0,-28.0,0.0
-69.0,-35.0,-27.0,-30.0,-38.0,-45.0,-10.0,-30.0,-19.0,-45.0,0.0
-62.0,-32.0,-43.0,-46.0,-50.0,-70.0,-11.0,-40.0,-40.0,-72.0,0.0
-65.0,-27.0,-28.0,-32.0,-53.0,-63.0,-31.0,-54.0,-56.0,-79.0,0.0
-48.0,-20.0,-36.0,-33.0,-44.0,-57.0,-31.0,-57.0,-56.0,-87.0,0.0
-28.0,-6.0,-44.0,-29.0,-26.0,-43.0,-29.0,-45.0,-37.0,-74.0,0.0
-24.0,-7.0,-30.0,-14.0,-7.0,-33.0,-27.0,-28.0,-28.0,-41.0,0.0
-14.0,-2.0,-12.0,10.0,14.0,-14.0,-15.0,-4.0,-15.0,-22.0,0.0
37.0,29.0,-1.0,13.0,30.0,0.0,-13.0,4.0,-6.0,-4.0,0.0
91.0,58.0,19.0,24.0,44.0,32.0,-9.0,20.0,16.0,22.0,0.0
129.0,96.0,45.0,42.0,53.0,42.0,0.0,26.0,23.0,35.0,0.0
153.0,130.0,61.0,40.0,48.0,42.0,3.0,27.0,31.0,50.0,0.0
121.0,112.0,65.0,47.0,43.0,41.0,2.0,37.0,42.0,62.0,0.0
49.0,62.0,64.0,44.0,55.0,57.0,4.0,38.0,50.0,59.0,0.0
-21.0,-23.0,60.0,48.0,50.0,56.0,9.0,17.0,31.0,29.0,0.0
-13.0,-35.0,43.0,27.0,12.0,30.0,1.0,11.0,31.0,39.0,0.0
11.0,3.0,26.0,0.0,-18.0,3.0,2.0,8.0,19.0,26.0,0.0
-16.0,9.0,0.0,-16.0,-28.0,-26.0,-14.0,-7.0,-9.0,-11.0,0.0
-38.0,9.0,-20.0,-37.0,-47.0,-55.0,-25.0,-45.0,-42.0,-55.0,0.0
-34.0,13.0,-29.0,-48.0,-72.0,-68.0,-51.0,-73.0,-73.0,-91.0,0.0
-44.0,5.0,-42.0,-50.0,-75.0,-63.0,-59.0,-81.0,-75.0,-104.0,0.0
-93.0,-7.0,-34.0,-44.0,-70.0,-50.0,-37.0,-71.0,-59.0,-107.0,0.0
-121.0,-36.0,-30.0,-38.0,-53.0,-32.0,-25.0,-41.0,-33.0,-61.0,0.0
-146.0,-78.0,-31.0,-18.0,-24.0,6.0,9.0,9.0,11.0,3.0,0.0
-137.0,-62.0,-7.0,12.0,22.0,50.0,36.0,53.0,57.0,47.0,0.0
-51.0,7.0,19.0,38.0,39.0,77.0,53.0,46.0,57.0,57.0,0.0
16.0,35.0,16.0,40.0,30.0,76.0,30.0,40.0,51.0,70.0,0.0
45.0,12.0,23.0,31.0,39.0,72.0,16.0,42.0,54.0,76.0,0.0
42.0,-51.0,18.0,33.0,57.0,75.0,22.0,40.0,55.0,59.0,0.0
35.0,-99.0,-2.0,36.0,53.0,68.0,19.0,26.0,34.0,29.0,0.0
14.0,-116.0,-18.0,50.0,51.0,55.0,18.0,5.0,18.0,-1.0,0.0
-18.0,-111.0,-33.0,29.0,33.0,31.0,15.0,-7.0,18.0,-10.0,0.0
-24.0,-70.0,-38.0,4.0,3.0,9.0,14.0,-16.0,5.0,-18.0,0.0
-16.0,-49.0,-30.0,-18.0,-12.0,-14.0,13.0,-17.0,-7.0,-31.0,0.0
-23.0,-69.0,-46.0,-43.0,-22.0,-46.0,-5.0,-35.0,-26.0,-55.0,0.0
-85.0,-89.0,-56.0,-64.0,-41.0,-61.0,-2.0,-36.0,-30.0,-70.0,0.0
-93.0,-95.0,-60.0,-59.0,-50.0,-65.0,-5.0,-37.0,-34.0,-71.0,0.0
-62.0,-75.0,-67.0,-48.0,-56.0,-66.0,7.0,-44.0,-38.0,-48.0,0.0
-28.0,-64.0,-54.0,-43.0,-54.0,-58.0,3.0,-33.0,-32.0,-27.0,0.0
-22.0,-63.0,-46.0,-41.0,-44.0,-48.0,2.0,-25.0,-24.0,-17.0,0.0
-19.0,-53.0,-33.0,-14.0,-12.0,-19.0,20.0,0.0,-4.0,-9.0,0.0
17.0,-21.0,-15.0,0.0,7.0,5.0,12.0,9.0,7.0,3.0,0.0
30.0,23.0,1.0,-6.0,26.0,11.0,17.0,8.0,17.0,-14.0,0.0
23.0,47.0,22.0,13.0,51.0,41.0,15.0,18.0,38.0,-6.0,0.0
44.0,47.0,45.0,37.0,60.0,62.0,20.0,20.0,44.0,13.0,0.0
74.0,59.0,58.0,53.0,59.0,66.0,30.0,25.0,35.0,33.0,0.0
89.0,53.0,69.0,61.0,46.0,66.0,17.0,26.0,28.0,30.0,0.0
71.0,46.0,68.0,66.0,28.0,48.0,0.0,20.0,13.0,1.0,0.0
42.0,44.0,44.0,45.0,11.0,30.0,-8.0,-1.0,-4.0,-11.0,0.0
18.0,27.0,27.0,26.0,-9.0,-8.0,-20.0,-27.0,-14.0,-6.0,0.0
7.0,17.0,7.0,5.0,-20.0,-32.0,-18.0,-36.0,-36.0,-22.0,0.0
3.0,5.0,-21.0,-26.0,-41.0,-54.0,-32.0,-47.0,-48.0,-36.0,0.0
-1.0,-1.0,-36.0,-50.0,-56.0,-69.0,-45.0,-59.0,-59.0,-57.0,0.0
-12.0,13.0,-35.0,-51.0,-47.0,-67.0,-45.0,-67.0,-66.0,-67.0,0.0
0.0,28.0,-43.0,-54.0,-41.0,-60.0,-50.0,-74.0,-63.0,-58.0,0.0
52.0,65.0,-32.0,-42.0,-49.0,-53.0,-64.0,-72.0,-63.0,-37.0,0.0
150.0,133.0,2.0,-21.0,-32.0,-36.0,-54.0,-58.0,-63.0,-36.0,0.0
302.0,205.0,28.0,-2.0,1.0,2.0,-30.0,-25.0,-53.0,-30.0,0.0
399.0,226.0,16.0,5.0,17.0,39.0,-5.0,3.0,-12.0,17.0,0.0
378.0,156.0,-29.0,-7.0,45.0,53.0,12.0,47.0,45.0,122.0,0.0
210.0,14.0,-32.0,14.0,69.0,74.0,26.0,77.0,78.0,168.0,0.0
-17.0,-77.0,18.0,61.0,93.0,91.0,24.0,95.0,76.0,116.0,0.0
-137.0,-58.0,74.0,79.0,89.0,80.0,14.0,75.0,53.0,38.0,0.0
-152.0,-56.0,56.0,31.0,62.0,71.0,13.0,78.0,64.0,70.0,0.0
-212.0,-86.0,38.0,21.0,63.0,54.0,15.0,64.0,60.0,52.0,0.0
-251.0,-69.0,58.0,31.0,55.0,39.0,-5.0,12.0,0.0,-46.0,0.0
-204.0,-57.0,51.0,18.0,15.0,6.0,-21.0,-7.0,-13.0,-39.0,0.0
-161.0,-85.0,-6.0,-16.0,-25.0,-7.0,-20.0,7.0,-1.0,8.0,0.0
-121.0,-88.0,-38.0,-31.0,-47.0,-28.0,-6.0,-18.0,-23.0,-6.0,0.0
-125.0,-90.0,-35.0,-35.0,-65.0,-50.0,-21.0,-45.0,-34.0,-42.0,0.0
-172.0,-109.0,-28.0,-24.0,-55.0,-57.0,-29.0,-48.0,-56.0,-83.0,0.0
-148.0,-125.0,-39.0,-28.0,-47.0,-48.0,-15.0,-42.0,-51.0,-83.0,0.0
-122.0,-133.0,-34.0,-18.0,-27.0,-29.0,-4.0,-17.0,-25.0,-60.0,0.0
-89.0,-74.0,-14.0,0.0,-8.0,-10.0,1.0,6.0,-8.0,-11.0,0.0
-19.0,48.0,19.0,11.0,-6.0,1.0,-9.0,18.0,15.0,42.0,0.0
24.0,128.0,52.0,27.0,10.0,20.0,-11.0,18.0,21.0,46.0,0.0
28.0,103.0,51.0,44.0,50.0,59.0,-2.0,39.0,33.0,49.0,0.0
36.0,32.0,45.0,51.0,73.0,92.0,34.0,61.0,52.0,75.0,0.0
62.0,-7.0,29.0,46.0,69.0,90.0,24.0,52.0,62.0,98.0,0.0
159.0,8.0,14.0,35.0,58.0,67.0,15.0,46.0,45.0,80.0,0.0
246.0,55.0,23.0,27.0,39.0,40.0,-1.0,27.0,10.0,54.0,0.0
219.0,64.0,25.0,1.0,27.0,29.0,6.0,18.0,17.0,51.0,0.0
106.0,32.0,-1.0,-19.0,14.0,8.0,12.0,10.0,28.0,47.0,0.0
-25.0,-37.0,-28.0,-32.0,-8.0,-13.0,11.0,2.0,18.0,43.0,0.0
-145.0,-80.0,-38.0,-42.0,-37.0,-48.0,0.0,-13.0,-11.0,-14.0,0.0
-237.0,-101.0,-38.0,-51.0,-60.0,-57.0,-9.0,-25.0,-32.0,-76.0,0.0
-243.0,-112.0,-43.0,-63.0,-66.0,-51.0,-2.0,-37.0,-37.0,-86.0,0.0
-186.0,-92.0,-36.0,-60.0,-68.0,-54.0,0.0,-48.0,-46.0,-68.0,0.0
-129.0,-69.0,-34.0,-44.0,-56.0,-63.0,-5.0,-53.0,-52.0,-53.0,0.0
-95.0,-46.0,-1.0,-26.0,-35.0,-65.0,-23.0,-40.0,-42.0,-38.0,0.0
-66.0,-4.0,30.0,4.0,2.0,-41.0,-11.0,-16.0,-11.0,-10.0,0.0
-41.0,23.0,52.0,29.0,24.0,-18.0,3.0,-10.0,-5.0,4.0,0.0
-7.0,39.0,47.0,55.0,41.0,2.0,8.0,14.0,9.0,14.0,0.0
25.0,54.0,47.0,54.0,50.0,20.0,31.0,23.0,40.0,44.0,0.0
59.0,68.0,43.0,46.0,61.0,35.0,48.0,26.0,71.0,58.0,0.0
76.0,56.0,21.0,25.0,54.0,45.0,31.0,40.0,81.0,53.0,0.0
89.0,20.0,-11.0,8.0,35.0,27.0,21.0,25.0,56.0,46.0,0.0
79.0,9.0,-15.0,1.0,29.0,8.0,7.0,0.0,41.0,45.0,0.0
55.0,6.0,-1.0,-4.0,8.0,-10.0,-1.0,-6.0,18.0,36.0,0.0
21.0,-3.0,7.0,-6.0,-9.0,-37.0,-18.0,-21.0,-12.0,2.0,0.0
-16.0,-24.0,-4.0,-37.0,-25.0,-47.0,-26.0,-32.0,-30.0,-25.0,0.0
-50.0,-49.0,-22.0,-85.0,-48.0,-62.0,-29.0,-38.0,-46.0,-57.0,0.0
-82.0,-49.0,-19.0,-81.0,-64.0,-74.0,-29.0,-52.0,-59.0,-84.0,0.0
-79.0,-25.0,-18.0,-72.0,-66.0,-93.0,-32.0,-59.0,-74.0,-86.0,0.0
-34.0,-12.0,-19.0,-77.0,-64.0,-89.0,-26.0,-63.0,-70.0,-69.0,0.0
5.0,-5.0,-23.0,-74.0,-47.0,-78.0,-18.0,-55.0,-61.0,-38.0,0.0
33.0,7.0,-21.0,-62.0,-39.0,-59.0,-11.0,-29.0,-40.0,-14.0,0.0
65.0,66.0,-7.0,-32.0,-24.0,-40.0,-7.0,-2.0,-10.0,11.0,0.0
71.0,82.0,-3.0,-13.0,-8.0,0.0,5.0,30.0,27.0,50.0,0.0
70.0,79.0,11.0,-6.0,14.0,34.0,16.0,45.0,56.0,60.0,0.0
83.0,92.0,33.0,9.0,33.0,52.0,7.0,50.0,44.0,64.0,0.0
76.0,64.0,32.0,13.0,46.0,51.0,17.0,47.0,15.0,54.0,0.0
69.0,48.0,26.0,14.0,46.0,57.0,9.0,44.0,9.0,34.0,0.0
88.0,76.0,24.0,-5.0,35.0,45.0,0.0,34.0,8.0,39.0,0.0
105.0,100.0,27.0,-24.0,18.0,31.0,-16.0,27.0,16.0,57.0,0.0
58.0,47.0,24.0,-25.0,-2.0,13.0,-10.0,16.0,32.0,58.0,0.0
-25.0,2.0,13.0,-12.0,-18.0,-1.0,-13.0,-11.0,5.0,5.0,0.0
-64.0,-16.0,5.0,-20.0,-25.0,-26.0,-17.0,-33.0,-24.0,-37.0,0.0
-65.0,-59.0,-37.0,-48.0,-50.0,-51.0,-16.0,-43.0,-30.0,-47.0,0.0
-54.0,-70.0,-72.0,-56.0,-75.0,-62.0,-14.0,-45.0,-40.0,-42.0,0.0
-8.0,-47.0,-78.0,-62.0,-75.0,-55.0,-7.0,-51.0,-49.0,-55.0,0.0
54.0,10.0,-70.0,-68.0,-56.0,-49.0,-7.0,-46.0,-45.0,-43.0,0.0
72.0,56.0,-37.0,-53.0,-34.0,-41.0,8.0,-47.0,-45.0,-25.0,0.0
52.0,62.0,-17.0,-30.0,-9.0,-20.0,7.0,-24.0,-11.0,10.0,0.0
-8.0,23.0,-4.0,-7.0,5.0,2.0,30.0,16.0,60.0,80.0,0.0
-136.0,10.0,49.0,44.0,31.0,25.0,22.0,20.0,39.0,29.0,0.0
-119.0,33.0,75.0,82.0,64.0,64.0,22.0,31.0,27.0,-12.0,0.0
12.0,57.0,52.0,83.0,82.0,94.0,39.0,50.0,46.0,24.0,0.0
51.0,45.0,39.0,75.0,84.0,91.0,28.0,51.0,44.0,41.0,0.0
35.0,10.0,14.0,57.0,61.0,67.0,16.0,46.0,44.0,70.0,0.0
-24.0,-19.0,11.0,44.0,50.0,56.0,12.0,47.0,35.0,49.0,0.0
-61.0,-19.0,13.0,31.0,38.0,51.0,13.0,32.0,31.0,25.0,0.0
-43.0,4.0,-6.0,5.0,3.0,24.0,5.0,11.0,21.0,34.0,0.0
-46.0,37.0,-22.0,-17.0,-20.0,-8.0,-13.0,-1.0,0.0,30.0,0.0
-82.0,38.0,-41.0,-35.0,-29.0,-26.0,-7.0,-7.0,-6.0,8.0,0.0
-81.0,52.0,-55.0,-50.0,-49.0,-43.0,-4.0,-20.0,7.0,0.0,0.0
-22.0,102.0,-52.0,-54.0,-62.0,-54.0,-8.0,-21.0,14.0,10.0,0.0
27.0,144.0,-18.0,-45.0,-58.0,-47.0,0.0,-19.0,9.0,11.0,0.0
31.0,145.0,10.0,-26.0,-55.0,-35.0,7.0,-29.0,1.0,-6.0,0.0
6.0,95.0,26.0,-6.0,-34.0,-25.0,14.0,-26.0,-1.0,-22.0,0.0
6.0,42.0,14.0,4.0,-12.0,-8.0,35.0,3.0,20.0,-3.0,0.0
-43.0,-45.0,-14.0,3.0,3.0,15.0,20.0,33.0,48.0,48.0,0.0
-128.0,-135.0,-18.0,14.0,21.0,44.0,28.0,41.0,56.0,52.0,0.0
-194.0,-197.0,-13.0,34.0,47.0,64.0,19.0,36.0,31.0,12.0,0.0
-33.0,-186.0,-16.0,41.0,40.0,68.0,-7.0,24.0,9.0,-5.0,0.0
190.0,-101.0,-14.0,40.0,31.0,49.0,-6.0,10.0,-8.0,2.0,0.0
259.0,-43.0,0.0,39.0,15.0,29.0,-16.0,-3.0,-28.0,-6.0,0.0
199.0,-38.0,5.0,41.0,0.0,11.0,-16.0,-1.0,-30.0,0.0,0.0
113.0,-62.0,-8.0,31.0,-22.0,-5.0,-26.0,-2.0,-26.0,-2.0,0.0
-42.0,-136.0,-26.0,25.0,-28.0,-17.0,-28.0,-9.0,-39.0,-50.0,0.0
-122.0,-151.0,-33.0,23.0,-18.0,-25.0,-8.0,-24.0,-39.0,-67.0,0.0
-123.0,-122.0,-50.0,2.0,-35.0,-45.0,-8.0,-48.0,-53.0,-71.0,0.0
-86.0,-78.0,-46.0,-14.0,-56.0,-66.0,-19.0,-54.0,-72.0,-73.0,0.0
-30.0,-46.0,-33.0,-21.0,-72.0,-74.0,-36.0,-57.0,-83.0,-59.0,0.0
9.0,-51.0,-39.0,-33.0,-68.0,-64.0,-21.0,-44.0,-64.0,-46.0,0.0
16.0,-62.0,-28.0,-21.0,-41.0,-40.0,-9.0,-28.0,-50.0,-52.0,0.0
13.0,-62.0,-32.0,-10.0,-17.0,-15.0,-6.0,-20.0,-40.0,-36.0,0.0
-5.0,-49.0,-40.0,1.0,1.0,18.0,14.0,4.0,0.0,17.0,0.0
-48.0,-24.0,-6.0,23.0,14.0,32.0,24.0,24.0,35.0,63.0,0.0
-47.0,23.0,54.0,57.0,30.0,49.0,12.0,16.0,27.0,36.0,0.0
-24.0,38.0,64.0,83.0,50.0,62.0,20.0,27.0,35.0,31.0,0.0
11.0,33.0,51.0,74.0,57.0,62.0,16.0,42.0,57.0,58.0,0.0
16.0,36.0,47.0,54.0,46.0,69.0,24.0,48.0,66.0,70.0,0.0
13.0,47.0,36.0,45.0,43.0,66.0,22.0,37.0,53.0,47.0,0.0
16.0,51.0,24.0,26.0,26.0,42.0,5.0,15.0,44.0,26.0,0.0
-4.0,37.0,19.0,12.0,16.0,20.0,-13.0,-17.0,12.0,12.0,0.0
-23.0,5.0,-3.0,-2.0,2.0,-1.0,-11.0,-38.0,0.0,-5.0,0.0
-72.0,-37.0,-19.0,-12.0,-21.0,-14.0,-11.0,-59.0,-34.0,-45.0,0.0
-106.0,-59.0,-37.0,-26.0,-40.0,-32.0,-22.0,-82.0,-70.0,-79.0,0.0
-91.0,-58.0,-44.0,-49.0,-42.0,-51.0,-33.0,-83.0,-80.0,-97.0,0.0
-67.0,-46.0,-37.0,-47.0,-37.0,-45.0,-25.0,-65.0,-60.0,-88.0,0.0
-38.0,-37.0,-30.0,-39.0,-37.0,-48.0,-25.0,-52.0,-46.0,-58.0,0.0
-21.0,-28.0,-40.0,-42.0,-41.0,-45.0,-22.0,-33.0,-28.0,-24.0,0.0
-3.0,0.0,-32.0,-26.0,-32.0,-19.0,-20.0,-6.0,-13.0,-14.0,0.0
26.0,75.0,1.0,3.0,-11.0,-1.0,-21.0,6.0,-23.0,-26.0,0.0
67.0,129.0,24.0,38.0,16.0,20.0,-4.0,27.0,-16.0,-11.0,0.0
122.0,151.0,24.0,56.0,33.0,55.0,10.0,40.0,4.0,20.0,0.0
164.0,155.0,34.0,67.0,32.0,65.0,24.0,43.0,22.0,37.0,0.0
186.0,139.0,26.0,48.0,22.0,49.0,3.0,48.0,10.0,46.0,0.0
174.0,104.0,11.0,24.0,14.0,40.0,17.0,49.0,27.0,69.0,0.0
130.0,55.0,2.0,22.0,20.0,58.0,28.0,65.0,49.0,71.0,0.0
136.0,55.0,-8.0,17.0,18.0,51.0,36.0,42.0,22.0,6.0,0.0
135.0,82.0,-27.0,-3.0,-1.0,20.0,21.0,13.0,0.0,-18.0,0.0
87.0,110.0,-7.0,-21.0,-20.0,-14.0,-18.0,-19.0,-35.0,-42.0,0.0
53.0,113.0,-21.0,-46.0,-48.0,-46.0,-36.0,-44.0,-52.0,-57.0,0.0
0.0,40.0,-80.0,-80.0,-75.0,-77.0,-25.0,-29.0,-24.0,-22.0,0.0
-17.0,30.0,-79.0,-70.0,-80.0,-90.0,-42.0,-29.0,-35.0,-26.0,0.0
-55.0,21.0,-30.0,-29.0,-72.0,-76.0,-43.0,-24.0,-51.0,-35.0,0.0
-155.0,-13.0,14.0,2.0,-47.0,-54.0,-25.0,-28.0,-65.0,-99.0,0.0
-150.0,-5.0,-2.0,7.0,-19.0,-15.0,-2.0,3.0,-25.0,-73.0,0.0
-150.0,-15.0,0.0,19.0,-2.0,6.0,13.0,35.0,4.0,-37.0,0.0
-187.0,-58.0,21.0,46.0,26.0,28.0,24.0,67.0,40.0,-5.0,0.0
-155.0,-40.0,27.0,68.0,51.0,61.0,56.0,101.0,80.0,46.0,0.0
-49.0,48.0,58.0,87.0,62.0,69.0,39.0,101.0,82.0,51.0,0.0
47.0,90.0,69.0,80.0,72.0,61.0,21.0,79.0,57.0,38.0,0.0
103.0,66.0,57.0,72.0,72.0,54.0,22.0,54.0,48.0,37.0,0.0
101.0,48.0,55.0,58.0,67.0,44.0,1.0,49.0,41.0,39.0,0.0
63.0,54.0,55.0,43.0,51.0,37.0,-12.0,35.0,27.0,43.0,0.0
-18.0,-16.0,35.0,26.0,14.0,13.0,-32.0,22.0,1.0,29.0,0.0
-123.0,-150.0,5.0,9.0,-18.0,-5.0,-37.0,1.0,-23.0,-15.0,0.0
-135.0,-177.0,-9.0,-6.0,-26.0,-21.0,-29.0,-8.0,-37.0,-32.0,0.0
-68.0,-132.0,-17.0,-19.0,-31.0,-54.0,-39.0,-34.0,-47.0,-46.0,0.0
-86.0,-151.0,-37.0,-43.0,-59.0,-84.0,-52.0,-65.0,-69.0,-40.0,0.0
-187.0,-243.0,-66.0,-66.0,-84.0,-106.0,-81.0,-79.0,-85.0,-50.0,0.0
-263.0,-309.0,-78.0,-61.0,-83.0,-98.0,-73.0,-67.0,-71.0,-57.0,0.0
-215.0,-236.0,-63.0,-44.0,-64.0,-71.0,-54.0,-37.0,-47.0,-42.0,0.0
-129.0,-129.0,-37.0,-18.0,-39.0,-47.0,-40.0,-19.0,-31.0,-48.0,0.0
-70.0,-61.0,-12.0,5.0,-9.0,-6.0,-24.0,5.0,-9.0,-20.0,0.0
-52.0,-27.0,0.0,40.0,18.0,20.0,-11.0,27.0,9.0,6.0,0.0
-29.0,-11.0,23.0,55.0,37.0,37.0,-7.0,39.0,30.0,21.0,0.0
3.0,37.0,49.0,61.0,63.0,52.0,-7.0,54.0,48.0,56.0,0.0
6.0,76.0,69.0,75.0,79.0,61.0,0.0,65.0,43.0,64.0,0.0
22.0,94.0,64.0,81.0,81.0,61.0,-8.0,62.0,38.0,34.0,0.0
65.0,89.0,60.0,58.0,66.0,48.0,-22.0,36.0,22.0,16.0,0.0
125.0,75.0,38.0,31.0,34.0,28.0,-26.0,21.0,5.0,4.0,0.0
161.0,71.0,17.0,4.0,2.0,-2.0,-31.0,-1.0,-1.0,-6.0,0.0
136.0,47.0,-9.0,-19.0,-18.0,-18.0,-36.0,-15.0,-15.0,-20.0,0.0
56.0,-16.0,-38.0,-42.0,-40.0,-41.0,-33.0,-32.0,-24.0,-50.0,0.0
-52.0,-60.0,-57.0,-69.0,-75.0,-68.0,-35.0,-45.0,-29.0,-65.0,0.0
-78.0,-88.0,-67.0,-61.0,-83.0,-76.0,-30.0,-51.0,-35.0,-61.0,0.0
-54.0,-95.0,-77.0,-46.0,-72.0,-50.0,-18.0,-41.0,-32.0,-52.0,0.0
-23.0,-69.0,-65.0,-44.0,-51.0,-34.0,-7.0,-27.0,-24.0,-52.0,0.0
0.0,-42.0,-50.0,-43.0,-36.0,-21.0,2.0,-23.0,-18.0,-30.0,0.0
27.0,-10.0,-34.0,-36.0,-25.0,-6.0,11.0,-9.0,-1.0,-21.0,0.0
57.0,19.0,-13.0,-3.0,-3.0,19.0,12.0,6.0,-1.0,-2.0,0.0
85.0,51.0,9.0,24.0,26.0,34.0,9.0,18.0,4.0,13.0,0.0
105.0,74.0,38.0,42.0,44.0,49.0,13.0,43.0,29.0,47.0,0.0
122.0,90.0,48.0,53.0,45.0,55.0,23.0,46.0,48.0,65.0,0.0
128.0,82.0,31.0,52.0,43.0,59.0,37.0,45.0,63.0,73.0,0.0
111.0,64.0,15.0,39.0,37.0,57.0,50.0,43.0,53.0,77.0,0.0
88.0,55.0,10.0,26.0,30.0,50.0,46.0,50.0,47.0,75.0,0.0
73.0,42.0,9.0,15.0,6.0,33.0,30.0,35.0,46.0,51.0,0.0
56.0,24.0,0.0,5.0,-14.0,11.0,16.0,6.0,19.0,19.0,0.0
34.0,15.0,-3.0,-15.0,-28.0,-12.0,10.0,-5.0,-2.0,-2.0,0.0
3.0,-10.0,-5.0,-27.0,-46.0,-28.0,2.0,-20.0,-22.0,-33.0,0.0
-29.0,-34.0,-15.0,-45.0,-53.0,-37.0,-2.0,-44.0,-40.0,-57.0,0.0
-53.0,-39.0,-23.0,-55.0,-63.0,-46.0,-10.0,-60.0,-52.0,-59.0,0.0
-44.0,-46.0,-33.0,-59.0,-62.0,-45.0,-18.0,-53.0,-40.0,-49.0,0.0
-4.0,-40.0,-21.0,-33.0,-42.0,-41.0,-22.0,-50.0,-42.0,-53.0,0.0
56.0,-19.0,-7.0,-8.0,-26.0,-36.0,-31.0,-46.0,-49.0,-34.0,0.0
148.0,31.0,-4.0,-12.0,-10.0,-10.0,-26.0,-20.0,-38.0,1.0,0.0
220.0,85.0,8.0,-10.0,9.0,0.0,-22.0,0.0,-12.0,42.0,0.0
215.0,124.0,35.0,7.0,34.0,13.0,-12.0,12.0,10.0,79.0,0.0
227.0,212.0,77.0,38.0,51.0,33.0,-4.0,10.0,23.0,96.0,0.0
199.0,262.0,96.0,51.0,64.0,45.0,-2.0,2.0,32.0,79.0,0.0
127.0,186.0,63.0,35.0,54.0,55.0,6.0,22.0,58.0,90.0,0.0
92.0,126.0,30.0,26.0,48.0,63.0,13.0,38.0,55.0,78.0,0.0
38.0,75.0,44.0,44.0,65.0,69.0,36.0,43.0,44.0,40.0,0.0
-89.0,-31.0,40.0,63.0,56.0,54.0,40.0,34.0,29.0,0.0,0.0
-199.0,-118.0,37.0,62.0,39.0,14.0,9.0,12.0,-6.0,-13.0,0.0
-230.0,-143.0,20.0,37.0,12.0,-13.0,5.0,-14.0,-18.0,-29.0,0.0
-220.0,-140.0,-30.0,-14.0,-21.0,-29.0,12.0,-15.0,-23.0,-22.0,0.0
-222.0,-142.0,-54.0,-50.0,-48.0,-44.0,7.0,-9.0,-12.0,-18.0,0.0
-237.0,-133.0,-46.0,-47.0,-44.0,-45.0,2.0,-13.0,-26.0,-53.0,0.0
-179.0,-108.0,-38.0,-45.0,-38.0,-40.0,-3.0,-6.0,-31.0,-69.0,0.0
-50.0,-38.0,-32.0,-34.0,-21.0,-24.0,-13.0,-11.0,-49.0,-70.0,0.0
64.0,75.0,-1.0,-10.0,-1.0,-7.0,-16.0,-25.0,-50.0,-68.0,0.0
124.0,202.0,48.0,21.0,30.0,19.0,-12.0,0.0,-33.0,-30.0,0.0
127.0,216.0,47.0,29.0,39.0,46.0,6.0,29.0,10.0,40.0,0.0
117.0,176.0,48.0,41.0,52.0,69.0,40.0,77.0,68.0,122.0,0.0
79.0,125.0,66.0,51.0,62.0,80.0,44.0,97.0,97.0,137.0,0.0
21.0,50.0,67.0,54.0,63.0,69.0,31.0,87.0,86.0,109.0,0.0
14.0,-20.0,56.0,44.0,53.0,45.0,1.0,61.0,54.0,66.0,0.0
-12.0,-102.0,29.0,13.0,27.0,34.0,-8.0,43.0,27.0,42.0,0.0
-124.0,-253.0,-6.0,-44.0,10.0,11.0,-6.0,33.0,22.0,41.0,0.0
-196.0,-303.0,-32.0,-56.0,1.0,-6.0,-1.0,24.0,23.0,23.0,0.0
-160.0,-230.0,-41.0,-56.0,-17.0,-21.0,-3.0,3.0,9.0,-23.0,0.0
-150.0,-175.0,-55.0,-71.0,-45.0,-41.0,-13.0,-16.0,-23.0,-73.0,0.0
-137.0,-166.0,-82.0,-90.0,-59.0,-60.0,-19.0,-26.0,-39.0,-89.0,0.0
-78.0,-137.0,-80.0,-92.0,-56.0,-77.0,-27.0,-48.0,-55.0,-83.0,0.0
-20.0,-97.0,-76.0,-96.0,-62.0,-89.0,-28.0,-58.0,-54.0,-71.0,0.0
3.0,-65.0,-60.0,-85.0,-70.0,-82.0,-33.0,-53.0,-37.0,-43.0,0.0
-34.0,-53.0,-41.0,-63.0,-57.0,-64.0,-22.0,-35.0,-31.0,-48.0,0.0
-50.0,-50.0,-23.0,-26.0,-15.0,-23.0,-2.0,-11.0,-20.0,-54.0,0.0
-27.0,-31.0,-18.0,-7.0,25.0,20.0,13.0,7.0,16.0,-17.0,0.0
6.0,0.0,-2.0,0.0,48.0,49.0,32.0,33.0,40.0,30.0,0.0
49.0,26.0,16.0,22.0,62.0,70.0,35.0,56.0,44.0,59.0,0.0
74.0,51.0,33.0,55.0,72.0,79.0,43.0,64.0,47.0,76.0,0.0
89.0,58.0,44.0,68.0,81.0,72.0,28.0,45.0,37.0,59.0,0.0
101.0,74.0,73.0,59.0,72.0,50.0,15.0,17.0,27.0,32.0,0.0
93.0,60.0,71.0,43.0,53.0,38.0,17.0,12.0,26.0,25.0,0.0
50.0,45.0,37.0,18.0,34.0,18.0,20.0,11.0,29.0,30.0,0.0
-11.0,3.0,-5.0,-12.0,13.0,-8.0,21.0,10.0,18.0,28.0,0.0
-39.0,-11.0,-12.0,-24.0,-8.0,-12.0,24.0,-5.0,-10.0,-15.0,0.0
-74.0,-17.0,-9.0,-24.0,-24.0,-32.0,-2.0,-38.0,-47.0,-53.0,0.0
-78.0,-20.0,-18.0,-47.0,-46.0,-58.0,-10.0,-63.0,-57.0,-62.0,0.0
-19.0,-13.0,-33.0,-66.0,-61.0,-64.0,-1.0,-68.0,-53.0,-72.0,0.0
16.0,1.0,-44.0,-60.0,-49.0,-57.0,0.0,-55.0,-52.0,-58.0,0.0
28.0,31.0,-33.0,-46.0,-32.0,-44.0,-2.0,-47.0,-50.0,-47.0,0.0
31.0,46.0,-4.0,-26.0,-25.0,-24.0,2.0,-31.0,-35.0,-26.0,0.0
5.0,47.0,14.0,2.0,-11.0,-10.0,19.0,-13.0,-8.0,-4.0,0.0
-12.0,47.0,22.0,23.0,16.0,18.0,27.0,7.0,10.0,14.0,0.0
8.0,51.0,40.0,29.0,43.0,44.0,46.0,12.0,28.0,26.0,0.0
74.0,91.0,53.0,33.0,62.0,47.0,28.0,4.0,31.0,36.0,0.0
157.0,113.0,49.0,33.0,56.0,48.0,18.0,6.0,36.0,74.0,0.0
200.0,113.0,27.0,24.0,50.0,48.0,5.0,15.0,42.0,84.0,0.0
188.0,102.0,6.0,32.0,56.0,59.0,26.0,30.0,43.0,62.0,0.0
223.0,117.0,-2.0,36.0,68.0,68.0,30.0,28.0,19.0,7.0,0.0
251.0,163.0,6.0,23.0,53.0,45.0,19.0,-25.0,-24.0,-35.0,0.0
210.0,177.0,8.0,-16.0,11.0,3.0,-7.0,-56.0,-44.0,-31.0,0.0
83.0,137.0,-8.0,-44.0,-35.0,-39.0,-34.0,-62.0,-45.0,-17.0,0.0
-7.0,79.0,-46.0,-78.0,-75.0,-70.0,-59.0,-56.0,-2.0,61.0,0.0
-167.0,12.0,-21.0,-59.0,-65.0,-61.0,-51.0,-53.0,-5.0,0.0,0.0
-361.0,-95.0,25.0,-8.0,-9.0,-23.0,9.0,-18.0,9.0,-71.0,0.0
-299.0,-5.0,33.0,13.0,0.0,-7.0,31.0,1.0,28.0,-58.0,0.0
-194.0,113.0,33.0,9.0,-12.0,-20.0,27.0,-5.0,37.0,-24.0,0.0
-161.0,95.0,32.0,28.0,16.0,-9.0,17.0,-8.0,31.0,-26.0,0.0
-84.0,73.0,42.0,39.0,50.0,22.0,41.0,27.0,43.0,-17.0,0.0
37.0,108.0,60.0,54.0,84.0,53.0,43.0,33.0,38.0,2.0,0.0
70.0,77.0,80.0,65.0,103.0,80.0,30.0,35.0,15.0,0.0,0.0
31.0,-73.0,41.0,48.0,96.0,92.0,47.0,53.0,44.0,32.0,0.0
-58.0,-255.0,-25.0,4.0,74.0,81.0,37.0,73.0,83.0,58.0,0.0
-158.0,-391.0,-60.0,-8.0,63.0,77.0,30.0,76.0,56.0,22.0,0.0
-162.0,-340.0,-56.0,7.0,34.0,64.0,16.0,63.0,22.0,0.0,0.0
-115.0,-197.0,-28.0,4.0,22.0,45.0,1.0,43.0,4.0,-10.0,0.0
-104.0,-140.0,-28.0,-12.0,14.0,9.0,-6.0,21.0,-5.0,-22.0,0.0
-113.0,-139.0,-46.0,-27.0,0.0,-5.0,12.0,9.0,-4.0,-26.0,0.0
-116.0,-130.0,-53.0,-35.0,-24.0,-27.0,19.0,0.0,-11.0,-25.0,0.0
-120.0,-115.0,-37.0,-44.0,-43.0,-48.0,-10.0,-27.0,-37.0,-45.0,0.0
-81.0,-116.0,-34.0,-37.0,-51.0,-68.0,-29.0,-48.0,-51.0,-77.0,0.0
4.0,-105.0,-33.0,-45.0,-53.0,-70.0,-27.0,-44.0,-52.0,-71.0,0.0
35.0,-76.0,-26.0,-39.0,-53.0,-69.0,-15.0,-43.0,-51.0,-58.0,0.0
3.0,-50.0,-8.0,-21.0,-46.0,-61.0,-10.0,-37.0,-46.0,-55.0,0.0
4.0,-24.0,20.0,6.0,-13.0,-43.0,-10.0,-12.0,-23.0,-31.0,0.0
15.0,4.0,42.0,29.0,17.0,-12.0,3.0,4.0,-7.0,-8.0,0.0
-7.0,21.0,55.0,40.0,33.0,15.0,0.0,29.0,-1.0,-1.0,0.0
7.0,45.0,64.0,57.0,45.0,25.0,13.0,55.0,10.0,6.0,0.0
42.0,52.0,78.0,68.0,58.0,41.0,18.0,62.0,43.0,25.0,0.0
87.0,61.0,65.0,69.0,60.0,44.0,16.0,59.0,43.0,30.0,0.0
94.0,70.0,60.0,56.0,57.0,42.0,35.0,55.0,42.0,31.0,0.0
79.0,68.0,56.0,43.0,54.0,33.0,20.0,51.0,33.0,22.0,0.0
55.0,61.0,46.0,22.0,33.0,12.0,18.0,39.0,25.0,15.0,0.0
21.0,40.0,29.0,-17.0,5.0,-3.0,9.0,9.0,1.0,4.0,0.0
8.0,19.0,0.0,-42.0,-13.0,-12.0,-8.0,-10.0,-12.0,-12.0,0.0
-19.0,-11.0,-18.0,-63.0,-28.0,-47.0,-10.0,-26.0,-40.0,-25.0,0.0
-57.0,-33.0,-28.0,-77.0,-49.0,-72.0,-12.0,-41.0,-56.0,-41.0,0.0
-57.0,-29.0,-27.0,-75.0,-56.0,-81.0,-17.0,-54.0,-70.0,-39.0,0.0
-37.0,-22.0,-40.0,-63.0,-48.0,-76.0,-7.0,-49.0,-67.0,-41.0,0.0
-20.0,-9.0,-32.0,-64.0,-37.0,-73.0,-8.0,-43.0,-55.0,-26.0,0.0
-6.0,20.0,-1.0,-40.0,-34.0,-61.0,-20.0,-35.0,-40.0,-25.0,0.0
22.0,69.0,21.0,-19.0,-10.0,-34.0,-19.0,-20.0,-21.0,-2.0,0.0
51.0,66.0,11.0,-14.0,18.0,-8.0,1.0,-2.0,-4.0,28.0,0.0
64.0,43.0,4.0,16.0,47.0,24.0,16.0,21.0,22.0,50.0,0.0
82.0,41.0,22.0,32.0,55.0,49.0,30.0,43.0,44.0,67.0,0.0
99.0,56.0,37.0,41.0,75.0,67.0,17.0,54.0,54.0,81.0,0.0
104.0,56.0,40.0,34.0,86.0,66.0,21.0,49.0,46.0,83.0,0.0
98.0,43.0,28.0,20.0,70.0,50.0,35.0,31.0,45.0,66.0,0.0
78.0,35.0,28.0,14.0,53.0,49.0,18.0,29.0,33.0,52.0,0.0
59.0,24.0,12.0,-3.0,22.0,31.0,2.0,14.0,13.0,34.0,0.0
36.0,17.0,-12.0,-23.0,-4.0,-6.0,-13.0,-18.0,-12.0,3.0,0.0
25.0,1.0,-23.0,-37.0,-31.0,-27.0,-15.0,-35.0,-29.0,-28.0,0.0
6.0,-6.0,-36.0,-55.0,-61.0,-41.0,-20.0,-54.0,-49.0,-30.0,0.0
-13.0,-12.0,-55.0,-74.0,-67.0,-60.0,-14.0,-60.0,-67.0,-39.0,0.0
-29.0,-51.0,-69.0,-65.0,-47.0,-58.0,-5.0,-43.0,-46.0,-28.0,0.0
18.0,-48.0,-62.0,-56.0,-41.0,-47.0,-2.0,-43.0,-32.0,-16.0,0.0
97.0,35.0,-48.0,-54.0,-56.0,-45.0,-16.0,-41.0,-34.0,-15.0,0.0
129.0,70.0,-41.0,-41.0,-45.0,-27.0,-4.0,-32.0,-16.0,8.0,0.0
130.0,83.0,-38.0,-27.0,-14.0,6.0,13.0,-11.0,15.0,46.0,0.0
90.0,45.0,-23.0,-7.0,7.0,35.0,36.0,25.0,40.0,79.0,0.0
19.0,44.0,26.0,37.0,34.0,41.0,42.0,30.0,43.0,32.0,0.0
-8.0,32.0,57.0,60.0,51.0,53.0,21.0,31.0,15.0,0.0,0.0
-16.0,0.0,42.0,58.0,49.0,63.0,23.0,51.0,41.0,33.0,0.0
-6.0,-3.0,41.0,44.0,49.0,66.0,22.0,47.0,63.0,55.0,0.0
9.0,10.0,42.0,41.0,29.0,52.0,7.0,25.0,43.0,54.0,0.0
41.0,38.0,8.0,11.0,4.0,27.0,7.0,21.0,34.0,70.0,0.0
36.0,53.0,-10.0,7.0,-10.0,-13.0,-8.0,1.0,7.0,47.0,0.0
-33.0,11.0,-9.0,12.0,-26.0,-20.0,-7.0,-24.0,-5.0,26.0,0.0
-122.0,-50.0,-20.0,5.0,-37.0,-33.0,-11.0,-28.0,-9.0,2.0,0.0
-190.0,-110.0,-37.0,3.0,-58.0,-52.0,-8.0,-32.0,-26.0,-43.0,0.0
-194.0,-120.0,-52.0,-1.0,-76.0,-65.0,-9.0,-39.0,-22.0,-52.0,0.0
-119.0,-69.0,-66.0,-16.0,-79.0,-77.0,-7.0,-28.0,-9.0,-43.0,0.0
0.0,4.0,-57.0,-25.0,-76.0,-65.0,-6.0,-18.0,-9.0,-37.0,0.0
100.0,39.0,-33.0,-29.0,-63.0,-46.0,9.0,-14.0,-13.0,-31.0,0.0
160.0,43.0,-52.0,-30.0,-39.0,-16.0,36.0,9.0,-3.0,24.0,0.0
160.0,60.0,-62.0,-22.0,-19.0,3.0,25.0,26.0,6.0,52.0,0.0
47.0,72.0,-22.0,22.0,3.0,15.0,30.0,37.0,18.0,26.0,0.0
-17.0,122.0,36.0,71.0,30.0,42.0,41.0,44.0,21.0,-11.0,0.0
12.0,142.0,39.0,75.0,52.0,73.0,54.0,67.0,59.0,19.0,0.0
40.0,109.0,3.0,65.0,54.0,73.0,41.0,87.0,90.0,61.0,0.0
16.0,69.0,11.0,59.0,51.0,59.0,28.0,69.0,59.0,51.0,0.0
2.0,55.0,21.0,60.0,39.0,45.0,13.0,39.0,35.0,28.0,0.0
-5.0,38.0,2.0,37.0,17.0,19.0,-6.0,22.0,23.0,22.0,0.0
-37.0,9.0,-16.0,12.0,0.0,6.0,-4.0,6.0,15.0,16.0,0.0
-59.0,-46.0,-24.0,5.0,-16.0,0.0,-4.0,-2.0,-1.0,0.0,0.0
-46.0,-69.0,-35.0,-11.0,-47.0,-22.0,-14.0,-32.0,-18.0,-24.0,0.0
-49.0,-54.0,-44.0,-22.0,-77.0,-48.0,-40.0,-66.0,-52.0,-64.0,0.0
-75.0,-44.0,-45.0,-34.0,-84.0,-62.0,-45.0,-75.0,-86.0,-89.0,0.0
-89.0,-61.0,-55.0,-32.0,-78.0,-71.0,-45.0,-60.0,-83.0,-89.0,0.0
-114.0,-93.0,-63.0,-34.0,-71.0,-54.0,-35.0,-45.0,-63.0,-67.0,0.0
-131.0,-128.0,-58.0,-33.0,-56.0,-42.0,-36.0,-47.0,-52.0,-59.0,0.0
-75.0,-99.0,-27.0,-8.0,-16.0,-18.0,-20.0,-24.0,-29.0,-35.0,0.0
17.0,-33.0,-9.0,19.0,18.0,4.0,-19.0,-12.0,-10.0,-9.0,0.0
66.0,-4.0,0.0,27.0,48.0,26.0,-10.0,9.0,15.0,28.0,0.0
86.0,14.0,14.0,47.0,58.0,48.0,19.0,41.0,42.0,60.0,0.0
98.0,35.0,10.0,45.0,54.0,50.0,35.0,48.0,68.0,85.0,0.0
70.0,46.0,18.0,32.0,41.0,46.0,14.0,41.0,63.0,50.0,0.0
37.0,34.0,26.0,21.0,36.0,45.0,9.0,37.0,30.0,24.0,0.0
31.0,29.0,15.0,20.0,22.0,21.0,21.0,28.0,22.0,16.0,0.0
24.0,15.0,-13.0,-2.0,-4.0,11.0,10.0,9.0,12.0,18.0,0.0
8.0,14.0,-18.0,-27.0,-20.0,11.0,-3.0,-10.0,-8.0,8.0,0.0
-7.0,41.0,-9.0,-41.0,-46.0,-15.0,-33.0,-27.0,-43.0,-27.0,0.0
-35.0,38.0,-18.0,-54.0,-62.0,-48.0,-46.0,-49.0,-62.0,-55.0,0.0
-50.0,5.0,-47.0,-71.0,-77.0,-75.0,-57.0,-60.0,-71.0,-63.0,0.0
-58.0,-45.0,-58.0,-80.0,-78.0,-76.0,-48.0,-41.0,-52.0,-45.0,0.0
-61.0,-81.0,-53.0,-70.0,-58.0,-53.0,-22.0,-27.0,-39.0,-31.0,0.0
-51.0,-64.0,-37.0,-42.0,-53.0,-29.0,-21.0,-27.0,-41.0,-27.0,0.0
1.0,-23.0,-18.0,-25.0,-39.0,-9.0,-15.0,-15.0,-17.0,10.0,0.0
53.0,0.0,8.0,0.0,-6.0,16.0,-1.0,-4.0,4.0,28.0,0.0
46.0,7.0,15.0,30.0,10.0,48.0,9.0,-2.0,-3.0,6.0,0.0
42.0,20.0,22.0,42.0,27.0,70.0,9.0,23.0,12.0,23.0,0.0
80.0,91.0,62.0,50.0,37.0,75.0,21.0,45.0,34.0,58.0,0.0
152.0,161.0,88.0,54.0,39.0,59.0,15.0,38.0,50.0,79.0,0.0
219.0,157.0,71.0,44.0,48.0,56.0,15.0,43.0,45.0,57.0,0.0
231.0,145.0,41.0,11.0,44.0,55.0,23.0,55.0,36.0,38.0,0.0
187.0,142.0,24.0,-12.0,22.0,32.0,5.0,33.0,11.0,6.0,0.0
97.0,109.0,8.0,-30.0,-2.0,10.0,3.0,6.0,12.0,-2.0,0.0
22.0,47.0,-16.0,-47.0,-22.0,-5.0,6.0,11.0,14.0,15.0,0.0
-98.0,-60.0,-50.0,-33.0,-40.0,-17.0,-3.0,-11.0,0.0,7.0,0.0
-167.0,-107.0,-50.0,-29.0,-61.0,-43.0,-44.0,-44.0,-52.0,-30.0,0.0
-116.0,-99.0,-73.0,-53.0,-76.0,-61.0,-53.0,-55.0,-79.0,-63.0,0.0
0.0,-57.0,-82.0,-69.0,-88.0,-62.0,-40.0,-55.0,-69.0,-76.0,0.0
118.0,41.0,-49.0,-58.0,-89.0,-54.0,-62.0,-75.0,-87.0,-80.0,0.0
164.0,88.0,-10.0,-40.0,-63.0,-45.0,-66.0,-69.0,-92.0,-53.0,0.0
129.0,20.0,-6.0,-26.0,-25.0,-4.0,-15.0,-1.0,-12.0,61.0,0.0
49.0,-10.0,17.0,-19.0,10.0,30.0,14.0,44.0,45.0,98.0,0.0
-101.0,-30.0,45.0,9.0,46.0,64.0,30.0,62.0,64.0,45.0,0.0
-152.0,-41.0,36.0,21.0,58.0,87.0,53.0,86.0,85.0,39.0,0.0
-122.0,-28.0,36.0,32.0,69.0,97.0,54.0,104.0,88.0,44.0,0.0
-142.0,-45.0,64.0,46.0,84.0,93.0,51.0,103.0,72.0,36.0,0.0
-180.0,-22.0,95.0,56.0,92.0,85.0,42.0,88.0,26.0,-11.0,0.0
-185.0,44.0,106.0,67.0,98.0,86.0,25.0,74.0,-4.0,-40.0,0.0
-154.0,103.0,86.0,51.0,89.0,76.0,27.0,53.0,-21.0,-36.0,0.0
-116.0,106.0,47.0,20.0,47.0,27.0,1.0,25.0,-23.0,-19.0,0.0
-95.0,67.0,21.0,-7.0,15.0,-9.0,-4.0,16.0,-14.0,-4.0,0.0
-46.0,62.0,24.0,-13.0,-6.0,-26.0,-4.0,-7.0,-27.0,-19.0,0.0
21.0,32.0,-10.0,-17.0,-24.0,-49.0,-14.0,-33.0,-55.0,-39.0,0.0
42.0,-67.0,-66.0,-48.0,-56.0,-74.0,-25.0,-51.0,-59.0,-32.0,0.0
-42.0,-197.0,-89.0,-56.0,-80.0,-85.0,-46.0,-62.0,-80.0,-54.0,0.0
-140.0,-266.0,-91.0,-54.0,-86.0,-82.0,-56.0,-58.0,-57.0,-31.0,0.0
-103.0,-213.0,-82.0,-57.0,-78.0,-59.0,-32.0,-22.0,-7.0,36.0,0.0
-40.0,-149.0,-44.0,-21.0,-43.0,-22.0,-16.0,0.0,12.0,44.0,0.0
-56.0,-117.0,-12.0,13.0,-5.0,7.0,-6.0,10.0,6.0,5.0,0.0
-30.0,-66.0,4.0,41.0,26.0,26.0,14.0,31.0,22.0,10.0,0.0
38.0,28.0,35.0,59.0,51.0,49.0,7.0,47.0,50.0,51.0,0.0
83.0,98.0,62.0,63.0,66.0,60.0,12.0,47.0,65.0,74.0,0.0
117.0,129.0,65.0,62.0,60.0,49.0,4.0,33.0,54.0,61.0,0.0
132.0,112.0,48.0,64.0,49.0,43.0,2.0,23.0,48.0,38.0,0.0
125.0,54.0,26.0,52.0,42.0,40.0,17.0,18.0,27.0,14.0,0.0
97.0,7.0,11.0,33.0,14.0,25.0,1.0,1.0,8.0,2.0,0.0
38.0,-50.0,-17.0,-1.0,-18.0,-5.0,-21.0,-15.0,-15.0,-4.0,0.0
-69.0,-143.0,-56.0,-45.0,-35.0,-37.0,-34.0,-33.0,-43.0,-31.0,0.0
-135.0,-186.0,-74.0,-74.0,-51.0,-50.0,-26.0,-45.0,-62.0,-62.0,0.0
-112.0,-138.0,-76.0,-63.0,-59.0,-52.0,-12.0,-41.0,-63.0,-74.0,0.0
-80.0,-101.0,-66.0,-54.0,-56.0,-57.0,-17.0,-45.0,-50.0,-86.0,0.0
-56.0,-79.0,-56.0,-39.0,-56.0,-46.0,-19.0,-58.0,-33.0,-79.0,0.0
-40.0,-54.0,-50.0,-29.0,-46.0,-39.0,-12.0,-41.0,-25.0,-67.0,0.0
-6.0,-18.0,-29.0,-8.0,-28.0,-25.0,-15.0,-23.0,-22.0,-36.0,0.0
37.0,22.0,-3.0,5.0,-5.0,-2.0,-6.0,-16.0,-8.0,-6.0,0.0
69.0,59.0,11.0,17.0,21.0,23.0,-4.0,-1.0,-5.0,5.0,0.0
107.0,94.0,59.0,54.0,49.0,37.0,-8.0,15.0,4.0,20.0,0.0
147.0,109.0,80.0,87.0,65.0,46.0,-5.0,17.0,9.0,31.0,0.0
143.0,100.0,77.0,86.0,77.0,50.0,4.0,33.0,24.0,38.0,0.0
100.0,85.0,70.0,71.0,71.0,63.0,24.0,37.0,43.0,53.0,0.0
71.0,95.0,56.0,60.0,52.0,57.0,28.0,38.0,54.0,57.0,0.0
61.0,62.0,35.0,43.0,34.0,19.0,4.0,18.0,40.0,49.0,0.0
46.0,-15.0,23.0,34.0,13.0,-5.0,5.0,9.0,25.0,44.0,0.0
42.0,-43.0,2.0,20.0,-2.0,-11.0,5.0,6.0,7.0,20.0,0.0
-2.0,-45.0,-15.0,9.0,-27.0,-18.0,1.0,-17.0,-8.0,-14.0,0.0
-75.0,-81.0,-34.0,-13.0,-47.0,-44.0,-12.0,-31.0,-24.0,-41.0,0.0
-71.0,-58.0,-53.0,-36.0,-63.0,-69.0,-21.0,-42.0,-50.0,-57.0,0.0
-76.0,-18.0,-48.0,-42.0,-70.0,-69.0,-24.0,-50.0,-67.0,-75.0,0.0
-80.0,23.0,-46.0,-30.0,-63.0,-53.0,-30.0,-34.0,-55.0,-75.0,0.0
-69.0,44.0,-32.0,-15.0,-44.0,-47.0,-32.0,-24.0,-51.0,-65.0,0.0
-60.0,47.0,-1.0,4.0,-16.0,-23.0,-20.0,-17.0,-36.0,-53.0,0.0
-27.0,60.0,30.0,29.0,17.0,10.0,-12.0,-7.0,-23.0,-48.0,0.0
10.0,76.0,46.0,58.0,44.0,38.0,9.0,22.0,6.0,-21.0,0.0
23.0,94.0,68.0,80.0,58.0,63.0,23.0,41.0,24.0,12.0,0.0
47.0,77.0,82.0,76.0,54.0,66.0,39.0,54.0,50.0,67.0,0.0
71.0,14.0,57.0,53.0,37.0,49.0,18.0,62.0,58.0,110.0,0.0
81.0,-67.0,41.0,58.0,37.0,39.0,13.0,59.0,53.0,91.0,0.0
83.0,-65.0,51.0,55.0,32.0,36.0,3.0,30.0,21.0,34.0,0.0
89.0,14.0,74.0,47.0,18.0,6.0,-11.0,-7.0,-4.0,6.0,0.0
87.0,54.0,59.0,20.0,-3.0,-6.0,-17.0,-23.0,-13.0,-10.0,0.0
28.0,15.0,19.0,-6.0,-15.0,-28.0,-12.0,-22.0,-20.0,-22.0,0.0
-70.0,-59.0,-22.0,-24.0,-27.0,-43.0,-5.0,-17.0,-29.0,-47.0,0.0
-177.0,-116.0,-57.0,-44.0,-47.0,-57.0,0.0,-21.0,-56.0,-68.0,0.0
-210.0,-128.0,-49.0,-28.0,-46.0,-55.0,0.0,-31.0,-63.0,-81.0,0.0
-177.0,-91.0,-27.0,-5.0,-35.0,-52.0,-17.0,-38.0,-63.0,-76.0,0.0
-123.0,-59.0,-16.0,-8.0,-36.0,-54.0,-10.0,-47.0,-51.0,-53.0,0.0
-113.0,-50.0,-13.0,-10.0,-29.0,-46.0,-2.0,-26.0,-12.0,-54.0,0.0
-76.0,-21.0,-7.0,2.0,-8.0,-10.0,16.0,0.0,13.0,-36.0,0.0
-23.0,6.0,14.0,15.0,8.0,20.0,17.0,20.0,29.0,-9.0,0.0
13.0,30.0,27.0,35.0,24.0,39.0,26.0,27.0,39.0,14.0,0.0
38.0,42.0,44.0,44.0,45.0,56.0,24.0,48.0,63.0,53.0,0.0
53.0,69.0,50.0,53.0,61.0,48.0,40.0,64.0,69.0,67.0,0.0
51.0,75.0,43.0,37.0,58.0,35.0,34.0,53.0,58.0,59.0,0.0
44.0,82.0,36.0,24.0,49.0,35.0,23.0,39.0,59.0,62.0,0.0
75.0,88.0,15.0,14.0,36.0,34.0,14.0,35.0,54.0,67.0,0.0
114.0,93.0,-8.0,-8.0,10.0,7.0,0.0,16.0,36.0,53.0,0.0
102.0,81.0,-19.0,-32.0,-6.0,-13.0,-13.0,-14.0,5.0,37.0,0.0
68.0,35.0,-27.0,-35.0,-32.0,-39.0,-32.0,-34.0,-14.0,33.0,0.0
3.0,-31.0,-28.0,-43.0,-51.0,-65.0,-53.0,-56.0,-38.0,7.0,0.0
-21.0,-37.0,-20.0,-40.0,-66.0,-86.0,-79.0,-98.0,-80.0,-47.0,0.0
41.0,32.0,-9.0,-42.0,-83.0,-95.0,-90.0,-123.0,-108.0,-70.0,0.0
115.0,99.0,-2.0,-44.0,-87.0,-99.0,-84.0,-122.0,-110.0,-69.0,0.0
120.0,94.0,8.0,-34.0,-74.0,-75.0,-57.0,-99.0,-76.0,-30.0,0.0
45.0,68.0,31.0,2.0,-34.0,-35.0,-34.0,-59.0,-41.0,-18.0,0.0
-45.0,-9.0,30.0,31.0,17.0,19.0,6.0,-2.0,13.0,27.0,0.0
-79.0,-71.0,21.0,46.0,62.0,68.0,57.0,50.0,74.0,59.0,0.0
-20.0,-28.0,36.0,50.0,64.0,73.0,53.0,50.0,76.0,43.0,0.0
54.0,35.0,43.0,44.0,58.0,73.0,34.0,45.0,81.0,56.0,0.0
90.0,66.0,40.0,42.0,62.0,73.0,38.0,51.0,82.0,96.0,0.0
44.0,22.0,40.0,46.0,56.0,68.0,33.0,67.0,94.0,113.0,0.0
-27.0,-7.0,60.0,57.0,32.0,45.0,22.0,47.0,58.0,54.0,0.0
-99.0,-5.0,70.0,60.0,21.0,27.0,-8.0,2.0,-1.0,-46.0,0.0
-109.0,-22.0,35.0,30.0,3.0,10.0,-14.0,-9.0,-9.0,-67.0,0.0
-120.0,-2.0,-16.0,-46.0,-60.0,-65.0,-19.0,-91.0,-102.0,-173.0,0.0
-121.0,-44.0,-22.0,-38.0,-44.0,-52.0,-9.0,-85.0,-101.0,-162.0,0.0
-92.0,-93.0,-45.0,-36.0,-41.0,-36.0,-3.0,-52.0,-44.0,-80.0,0.0
-78.0,-122.0,-32.0,-32.0,-21.0,-27.0,6.0,-18.0,9.0,-18.0,0.0
-55.0,-55.0,24.0,6.0,13.0,1.0,18.0,-1.0,12.0,-25.0,0.0
29.0,18.0,32.0,18.0,30.0,16.0,35.0,23.0,46.0,12.0,0.0
134.0,91.0,40.0,24.0,32.0,25.0,32.0,27.0,62.0,39.0,0.0
193.0,88.0,43.0,44.0,50.0,45.0,37.0,22.0,51.0,29.0,0.0
187.0,32.0,34.0,45.0,67.0,60.0,52.0,26.0,40.0,20.0,0.0
111.0,-21.0,19.0,28.0,51.0,52.0,35.0,26.0,30.0,28.0,0.0
-48.0,-126.0,-12.0,-5.0,22.0,23.0,31.0,24.0,42.0,17.0,0.0
-187.0,-186.0,-30.0,-19.0,-2.0,13.0,16.0,28.0,47.0,3.0,0.0
-152.0,-146.0,-32.0,-16.0,-21.0,1.0,14.0,8.0,39.0,6.0,0.0
-77.0,-112.0,-44.0,-31.0,-40.0,-29.0,22.0,-13.0,23.0,-4.0,0.0
-69.0,-108.0,-64.0,-59.0,-71.0,-54.0,-2.0,-25.0,-18.0,-29.0,0.0
-71.0,-105.0,-76.0,-67.0,-93.0,-66.0,-13.0,-45.0,-43.0,-53.0,0.0
-72.0,-94.0,-79.0,-71.0,-100.0,-68.0,-20.0,-50.0,-51.0,-45.0,0.0
-55.0,-86.0,-71.0,-67.0,-92.0,-62.0,-24.0,-42.0,-41.0,-35.0,0.0
-40.0,-78.0,-66.0,-68.0,-62.0,-42.0,-18.0,-40.0,-30.0,-32.0,0.0
-24.0,-52.0,-54.0,-63.0,-32.0,-28.0,0.0,-13.0,-31.0,-16.0,0.0
16.0,-5.0,-35.0,-39.0,-5.0,-7.0,11.0,4.0,-10.0,13.0,0.0
40.0,30.0,-12.0,-8.0,19.0,24.0,0.0,23.0,4.0,30.0,0.0
56.0,55.0,9.0,5.0,35.0,45.0,-4.0,29.0,15.0,48.0,0.0
81.0,80.0,33.0,22.0,52.0,65.0,0.0,32.0,24.0,58.0,0.0
83.0,94.0,24.0,42.0,65.0,85.0,10.0,50.0,32.0,68.0,0.0
84.0,97.0,12.0,56.0,63.0,80.0,6.0,43.0,48.0,65.0,0.0
93.0,87.0,10.0,56.0,45.0,58.0,4.0,32.0,43.0,58.0,0.0
85.0,77.0,10.0,43.0,32.0,51.0,3.0,30.0,24.0,50.0,0.0
66.0,64.0,13.0,32.0,14.0,27.0,-9.0,6.0,-1.0,23.0,0.0
55.0,60.0,14.0,16.0,-10.0,-12.0,-26.0,-23.0,-29.0,-12.0,0.0
45.0,39.0,-11.0,-27.0,-31.0,-42.0,-32.0,-48.0,-41.0,-21.0,0.0
24.0,-11.0,-60.0,-51.0,-60.0,-65.0,-30.0,-64.0,-56.0,-32.0,0.0
-5.0,-70.0,-92.0,-75.0,-73.0,-86.0,-29.0,-57.0,-58.0,-36.0,0.0
-6.0,-62.0,-56.0,-60.0,-70.0,-95.0,-26.0,-62.0,-69.0,-46.0,0.0
21.0,6.0,2.0,-33.0,-58.0,-84.0,-42.0,-54.0,-83.0,-58.0,0.0
68.0,41.0,16.0,-26.0,-53.0,-66.0,-30.0,-45.0,-58.0,-33.0,0.0
85.0,64.0,24.0,-4.0,-30.0,-38.0,-13.0,-30.0,-35.0,-25.0,0.0
42.0,49.0,23.0,17.0,-2.0,-14.0,-6.0,-2.0,-10.0,9.0,0.0
9.0,28.0,19.0,16.0,12.0,10.0,14.0,28.0,9.0,44.0,0.0
33.0,76.0,49.0,35.0,29.0,23.0,27.0,39.0,8.0,46.0,0.0
45.0,104.0,78.0,60.0,45.0,21.0,21.0,41.0,9.0,31.0,0.0
135.0,160.0,94.0,67.0,42.0,41.0,3.0,43.0,3.0,44.0,0.0
169.0,178.0,100.0,58.0,36.0,51.0,8.0,45.0,7.0,37.0,0.0
129.0,99.0,46.0,27.0,21.0,42.0,15.0,58.0,39.0,45.0,0.0
81.0,66.0,-3.0,0.0,11.0,24.0,21.0,65.0,46.0,55.0,0.0
-59.0,77.0,9.0,-16.0,-1.0,0.0,2.0,31.0,5.0,-8.0,0.0
-176.0,78.0,56.0,-11.0,-2.0,-16.0,1.0,17.0,-35.0,-74.0,0.0
-163.0,70.0,55.0,-11.0,0.0,-32.0,3.0,14.0,-30.0,-70.0,0.0
-81.0,85.0,52.0,-37.0,-26.0,-58.0,7.0,14.0,1.0,5.0,0.0
-86.0,14.0,20.0,-42.0,-41.0,-69.0,11.0,20.0,14.0,26.0,0.0
-135.0,-64.0,1.0,-20.0,-29.0,-61.0,17.0,21.0,12.0,-11.0,0.0
-122.0,-60.0,8.0,-8.0,-13.0,-44.0,6.0,2.0,-3.0,-46.0,0.0
-96.0,-65.0,-10.0,2.0,-12.0,-44.0,-1.0,-5.0,-19.0,-32.0,0.0
-151.0,-98.0,-20.0,8.0,-11.0,-23.0,-2.0,4.0,-8.0,-25.0,0.0
-166.0,-145.0,-33.0,0.0,-9.0,-18.0,0.0,-2.0,-3.0,-32.0,0.0
-132.0,-221.0,-45.0,4.0,10.0,2.0,-6.0,10.0,2.0,-9.0,0.0
-23.0,-210.0,-19.0,28.0,33.0,33.0,2.0,16.0,6.0,8.0,0.0
38.0,-143.0,11.0,43.0,41.0,30.0,-3.0,14.0,12.0,11.0,0.0
14.0,-108.0,2.0,33.0,35.0,26.0,-2.0,23.0,21.0,26.0,0.0
-7.0,-75.0,8.0,27.0,31.0,34.0,11.0,22.0,15.0,14.0,0.0
30.0,-33.0,8.0,28.0,12.0,30.0,2.0,24.0,3.0,2.0,0.0
56.0,-17.0,0.0,8.0,-13.0,-1.0,5.0,17.0,-6.0,-9.0,0.0
19.0,-42.0,-3.0,-10.0,-16.0,-9.0,7.0,0.0,-16.0,-27.0,0.0
-19.0,-54.0,-25.0,-15.0,-28.0,-20.0,14.0,-23.0,-30.0,-35.0,0.0
-40.0,-46.0,-44.0,-22.0,-40.0,-44.0,-7.0,-51.0,-35.0,-48.0,0.0
-59.0,-47.0,-51.0,-45.0,-62.0,-66.0,-18.0,-58.0,-51.0,-60.0,0.0
-57.0,-48.0,-60.0,-53.0,-74.0,-66.0,-23.0,-62.0,-64.0,-70.0,0.0
-37.0,-44.0,-50.0,-54.0,-74.0,-54.0,-1.0,-61.0,-63.0,-62.0,0.0
-31.0,-27.0,-49.0,-46.0,-60.0,-45.0,3.0,-57.0,-50.0,-49.0,0.0
-7.0,4.0,-38.0,-30.0,-34.0,-17.0,7.0,-54.0,-33.0,-24.0,0.0
24.0,38.0,-10.0,-1.0,-1.0,11.0,7.0,-33.0,-20.0,-7.0,0.0
49.0,63.0,16.0,26.0,26.0,22.0,14.0,-7.0,3.0,2.0,0.0
77.0,71.0,33.0,47.0,44.0,47.0,19.0,6.0,23.0,19.0,0.0
93.0,82.0,46.0,49.0,61.0,67.0,43.0,28.0,30.0,40.0,0.0
102.0,82.0,34.0,52.0,82.0,82.0,39.0,34.0,37.0,55.0,0.0
94.0,78.0,28.0,48.0,79.0,73.0,27.0,33.0,44.0,63.0,0.0
77.0,65.0,37.0,36.0,56.0,61.0,35.0,39.0,44.0,52.0,0.0
50.0,42.0,36.0,15.0,41.0,51.0,18.0,26.0,27.0,27.0,0.0
30.0,18.0,20.0,-5.0,28.0,28.0,2.0,4.0,9.0,1.0,0.0
21.0,12.0,16.0,-27.0,4.0,3.0,-14.0,-1.0,0.0,-11.0,0.0
7.0,2.0,0.0,-45.0,-16.0,-16.0,-21.0,-16.0,-13.0,-29.0,0.0
-9.0,-20.0,-27.0,-62.0,-40.0,-35.0,-23.0,-45.0,-38.0,-49.0,0.0
0.0,-32.0,-47.0,-72.0,-59.0,-52.0,-34.0,-50.0,-48.0,-69.0,0.0
6.0,-16.0,-39.0,-70.0,-61.0,-51.0,-32.0,-47.0,-50.0,-65.0,0.0
29.0,2.0,-20.0,-60.0,-53.0,-54.0,-26.0,-36.0,-36.0,-42.0,0.0
103.0,46.0,-8.0,-65.0,-53.0,-66.0,-18.0,-39.0,-22.0,-4.0,0.0
178.0,135.0,31.0,-36.0,-38.0,-59.0,-23.0,-58.0,-38.0,0.0,0.0
194.0,172.0,54.0,-6.0,-10.0,-31.0,-15.0,-37.0,-20.0,6.0,0.0
151.0,139.0,37.0,14.0,25.0,14.0,7.0,8.0,30.0,32.0,0.0
63.0,50.0,25.0,20.0,47.0,44.0,27.0,37.0,57.0,49.0,0.0
-24.0,-37.0,50.0,40.0,70.0,65.0,12.0,45.0,45.0,21.0,0.0
-39.0,-42.0,80.0,58.0,77.0,74.0,23.0,50.0,37.0,-2.0,0.0
-2.0,-3.0,50.0,31.0,63.0,67.0,34.0,63.0,67.0,24.0,0.0
96.0,62.0,28.0,-12.0,37.0,44.0,31.0,52.0,69.0,42.0,0.0
220.0,154.0,28.0,-19.0,18.0,11.0,12.0,6.0,27.0,24.0,0.0
239.0,165.0,-3.0,-37.0,1.0,-6.0,-12.0,-14.0,-11.0,-8.0,0.0
185.0,104.0,-43.0,-64.0,-23.0,-13.0,-11.0,-6.0,4.0,22.0,0.0
20.0,0.0,-51.0,-70.0,-38.0,-35.0,-14.0,-12.0,-4.0,14.0,0.0
-109.0,-27.0,-14.0,-51.0,-58.0,-79.0,-43.0,-67.0,-56.0,-57.0,0.0
-80.0,-7.0,-13.0,-45.0,-66.0,-74.0,-46.0,-76.0,-65.0,-82.0,0.0
-8.0,-13.0,-65.0,-48.0,-59.0,-42.0,-14.0,-41.0,-38.0,-51.0,0.0
-4.0,-48.0,-94.0,-69.0,-61.0,-32.0,3.0,0.0,6.0,19.0,0.0
-153.0,-147.0,-96.0,-71.0,-52.0,-15.0,31.0,39.0,108.0,101.0,0.0
-309.0,-142.0,-17.0,13.0,13.0,12.0,50.0,38.0,100.0,17.0,0.0
-311.0,-30.0,76.0,93.0,68.0,40.0,31.0,14.0,23.0,-98.0,0.0
-227.0,46.0,92.0,113.0,88.0,70.0,32.0,37.0,9.0,-95.0,0.0
-106.0,56.0,83.0,100.0,98.0,79.0,31.0,60.0,20.0,-44.0,0.0
-35.0,16.0,71.0,107.0,108.0,100.0,28.0,74.0,71.0,5.0,0.0
22.0,20.0,83.0,104.0,114.0,111.0,37.0,60.0,64.0,10.0,0.0
38.0,38.0,86.0,68.0,91.0,93.0,35.0,42.0,46.0,12.0,0.0
41.0,14.0,56.0,26.0,57.0,73.0,25.0,35.0,37.0,20.0,0.0
30.0,-28.0,5.0,-13.0,20.0,42.0,32.0,20.0,35.0,21.0,0.0
-64.0,-92.0,-53.0,-43.0,-13.0,7.0,36.0,20.0,46.0,21.0,0.0
-205.0,-139.0,-73.0,-62.0,-25.0,-20.0,9.0,1.0,14.0,-14.0,0.0
-181.0,-120.0,-74.0,-69.0,-45.0,-46.0,5.0,-14.0,-18.0,-52.0,0.0
-91.0,-103.0,-85.0,-93.0,-73.0,-80.0,-12.0,-27.0,-45.0,-55.0,0.0
-42.0,-104.0,-102.0,-114.0,-78.0,-90.0,-28.0,-34.0,-54.0,-56.0,0.0
-40.0,-98.0,-88.0,-85.0,-66.0,-72.0,-37.0,-41.0,-55.0,-74.0,0.0
-86.0,-133.0,-79.0,-34.0,-46.0,-53.0,-37.0,-33.0,-66.0,-77.0,0.0
-156.0,-195.0,-68.0,-16.0,-28.0,-41.0,-35.0,-20.0,-55.0,-56.0,0.0
-120.0,-159.0,-28.0,12.0,-7.0,-10.0,-8.0,0.0,-11.0,-17.0,0.0
-43.0,-74.0,11.0,33.0,15.0,8.0,-8.0,9.0,11.0,17.0,0.0
10.0,-20.0,24.0,50.0,32.0,31.0,0.0,14.0,27.0,30.0,0.0
62.0,15.0,46.0,58.0,49.0,43.0,15.0,33.0,36.0,47.0,0.0
88.0,61.0,51.0,70.0,60.0,37.0,29.0,45.0,53.0,61.0,0.0
92.0,67.0,57.0,72.0,55.0,35.0,24.0,44.0,45.0,56.0,0.0
80.0,58.0,55.0,79.0,53.0,23.0,20.0,36.0,28.0,56.0,0.0
68.0,55.0,39.0,68.0,34.0,9.0,24.0,13.0,14.0,43.0,0.0
38.0,44.0,18.0,36.0,5.0,-17.0,-4.0,0.0,-9.0,19.0,0.0
10.0,27.0,-2.0,7.0,-11.0,-27.0,-16.0,-10.0,-23.0,2.0,0.0
-12.0,-7.0,-31.0,-22.0,-31.0,-34.0,-25.0,-20.0,-36.0,-25.0,0.0
-29.0,-32.0,-50.0,-66.0,-49.0,-58.0,-19.0,-40.0,-54.0,-42.0,0.0
-54.0,-34.0,-52.0,-77.0,-60.0,-78.0,-29.0,-60.0,-66.0,-57.0,0.0
-61.0,-37.0,-51.0,-67.0,-60.0,-86.0,-39.0,-51.0,-65.0,-56.0,0.0
-44.0,-38.0,-44.0,-57.0,-48.0,-74.0,-22.0,-46.0,-52.0,-48.0,0.0
-18.0,-22.0,-30.0,-42.0,-35.0,-59.0,-11.0,-31.0,-21.0,-35.0,0.0
21.0,3.0,-5.0,-7.0,-20.0,-29.0,-3.0,-17.0,4.0,-17.0,0.0
52.0,23.0,28.0,4.0,9.0,14.0,0.0,5.0,24.0,12.0,0.0
76.0,35.0,53.0,26.0,42.0,37.0,21.0,25.0,28.0,26.0,0.0
101.0,68.0,75.0,40.0,68.0,52.0,18.0,20.0,49.0,48.0,0.0
113.0,94.0,93.0,58.0,80.0,64.0,7.0,26.0,60.0,57.0,0.0
110.0,102.0,98.0,49.0,75.0,62.0,26.0,34.0,64.0,77.0,0.0
108.0,83.0,88.0,42.0,70.0,66.0,26.0,28.0,64.0,82.0,0.0
82.0,60.0,55.0,33.0,60.0,74.0,22.0,25.0,55.0,65.0,0.0
59.0,41.0,31.0,34.0,35.0,52.0,19.0,15.0,40.0,44.0,0.0
53.0,29.0,13.0,15.0,4.0,20.0,-4.0,-3.0,20.0,18.0,0.0
43.0,11.0,-6.0,-17.0,-23.0,-13.0,-9.0,-30.0,-1.0,-3.0,0.0
27.0,-2.0,-50.0,-43.0,-55.0,-49.0,-19.0,-60.0,-24.0,-21.0,0.0
-7.0,13.0,-65.0,-55.0,-66.0,-68.0,-7.0,-68.0,-34.0,-36.0,0.0
5.0,45.0,-66.0,-50.0,-70.0,-69.0,-1.0,-50.0,-26.0,-19.0,0.0
109.0,94.0,-64.0,-46.0,-63.0,-49.0,20.0,-47.0,-24.0,-38.0,0.0
210.0,123.0,-59.0,-35.0,-46.0,-42.0,18.0,-48.0,-50.0,-55.0,0.0
204.0,140.0,-33.0,-7.0,-27.0,-25.0,12.0,-53.0,-65.0,-65.0,0.0
159.0,162.0,1.0,12.0,-2.0,-8.0,9.0,-33.0,-42.0,-2.0,0.0
42.0,126.0,41.0,41.0,18.0,-8.0,-20.0,-9.0,5.0,54.0,0.0
-107.0,17.0,63.0,61.0,27.0,6.0,-10.0,4.0,33.0,42.0,0.0
-197.0,-44.0,76.0,75.0,66.0,43.0,6.0,28.0,47.0,32.0,0.0
-168.0,-6.0,84.0,95.0,92.0,57.0,32.0,46.0,58.0,55.0,0.0
-128.0,33.0,66.0,87.0,94.0,60.0,29.0,56.0,75.0,99.0,0.0
-154.0,3.0,33.0,74.0,87.0,61.0,17.0,65.0,87.0,124.0,0.0
-174.0,-31.0,24.0,60.0,71.0,61.0,17.0,54.0,68.0,89.0,0.0
-202.0,-103.0,4.0,39.0,54.0,52.0,14.0,53.0,38.0,48.0,0.0
-137.0,-128.0,-8.0,36.0,37.0,36.0,21.0,40.0,19.0,24.0,0.0
56.0,-53.0,-25.0,15.0,2.0,4.0,8.0,3.0,-14.0,3.0,0.0
130.0,-40.0,-57.0,-16.0,-37.0,-25.0,-35.0,-24.0,-54.0,-24.0,0.0
39.0,-100.0,-99.0,-48.0,-46.0,-51.0,-23.0,-31.0,-50.0,-45.0,0.0
-69.0,-120.0,-99.0,-62.0,-54.0,-70.0,-17.0,-33.0,-40.0,-46.0,0.0
-131.0,-157.0,-112.0,-53.0,-55.0,-57.0,-10.0,-38.0,-28.0,-54.0,0.0
-115.0,-177.0,-94.0,-42.0,-51.0,-61.0,-24.0,-41.0,-49.0,-73.0,0.0
-76.0,-174.0,-56.0,-13.0,-35.0,-52.0,-17.0,-47.0,-59.0,-87.0,0.0
19.0,-89.0,-8.0,-3.0,-16.0,-41.0,-24.0,-44.0,-41.0,-51.0,0.0
71.0,-2.0,20.0,8.0,1.0,-24.0,-20.0,-22.0,-14.0,0.0,0.0
43.0,-7.0,26.0,26.0,26.0,12.0,0.0,22.0,13.0,34.0,0.0
17.0,-19.0,41.0,45.0,49.0,51.0,43.0,50.0,49.0,56.0,0.0
19.0,23.0,65.0,59.0,66.0,58.0,22.0,35.0,39.0,25.0,0.0
-6.0,47.0,80.0,63.0,71.0,61.0,9.0,24.0,22.0,3.0,0.0
0.0,38.0,51.0,53.0,53.0,53.0,12.0,33.0,31.0,17.0,0.0
4.0,27.0,29.0,29.0,38.0,39.0,0.0,24.0,21.0,10.0,0.0
-5.0,9.0,17.0,-6.0,3.0,17.0,-1.0,8.0,-19.0,-12.0,0.0
-16.0,-2.0,-1.0,-25.0,-22.0,-8.0,-17.0,-10.0,-35.0,-15.0,0.0
-42.0,-2.0,-24.0,-34.0,-39.0,-28.0,-29.0,-32.0,-46.0,-20.0,0.0
-50.0,0.0,-32.0,-46.0,-54.0,-53.0,-40.0,-56.0,-59.0,-41.0,0.0
-28.0,-7.0,-46.0,-70.0,-74.0,-61.0,-33.0,-59.0,-55.0,-57.0,0.0
-14.0,-3.0,-60.0,-91.0,-75.0,-62.0,-17.0,-51.0,-37.0,-66.0,0.0
-8.0,-19.0,-58.0,-95.0,-53.0,-58.0,-10.0,-49.0,-28.0,-40.0,0.0
0.0,-31.0,-57.0,-83.0,-41.0,-50.0,-2.0,-27.0,-16.0,-20.0,0.0
31.0,-1.0,-47.0,-58.0,-18.0,-16.0,14.0,-12.0,18.0,15.0,0.0
89.0,37.0,-20.0,-24.0,0.0,9.0,13.0,0.0,20.0,28.0,0.0
88.0,45.0,0.0,-2.0,20.0,36.0,23.0,10.0,28.0,42.0,0.0
58.0,40.0,28.0,9.0,49.0,69.0,28.0,38.0,57.0,52.0,0.0
52.0,60.0,60.0,45.0,57.0,79.0,34.0,62.0,64.0,60.0,0.0
35.0,61.0,73.0,76.0,63.0,77.0,34.0,53.0,50.0,64.0,0.0
49.0,63.0,56.0,81.0,63.0,57.0,15.0,46.0,33.0,62.0,0.0
49.0,53.0,33.0,54.0,47.0,36.0,23.0,43.0,23.0,61.0,0.0
30.0,38.0,19.0,30.0,16.0,8.0,34.0,27.0,15.0,54.0,0.0
4.0,29.0,-2.0,3.0,-1.0,-5.0,4.0,5.0,-5.0,36.0,0.0
-39.0,10.0,-8.0,-10.0,-10.0,-18.0,-10.0,-11.0,-33.0,0.0,0.0
-77.0,-1.0,-14.0,-24.0,-26.0,-35.0,-11.0,-38.0,-59.0,-28.0,0.0
-68.0,11.0,-25.0,-40.0,-48.0,-62.0,-7.0,-79.0,-81.0,-77.0,0.0
-5.0,46.0,-46.0,-61.0,-63.0,-76.0,-1.0,-83.0,-75.0,-95.0,0.0
104.0,52.0,-65.0,-80.0,-59.0,-60.0,4.0,-52.0,-39.0,-46.0,0.0
207.0,46.0,-72.0,-81.0,-58.0,-41.0,16.0,-26.0,-15.0,-1.0,0.0
155.0,-6.0,-54.0,-53.0,-33.0,-26.0,10.0,-8.0,-27.0,0.0,0.0
43.0,-52.0,-25.0,-16.0,8.0,-4.0,25.0,14.0,-14.0,-1.0,0.0
-14.0,-57.0,-10.0,-19.0,16.0,13.0,42.0,36.0,46.0,35.0,0.0
-47.0,-28.0,9.0,16.0,31.0,25.0,23.0,46.0,48.0,2.0,0.0
-37.0,16.0,29.0,62.0,56.0,52.0,10.0,49.0,24.0,-21.0,0.0
-6.0,70.0,61.0,82.0,71.0,68.0,12.0,38.0,19.0,-10.0,0.0
29.0,91.0,55.0,72.0,67.0,44.0,8.0,27.0,28.0,11.0,0.0
48.0,55.0,4.0,44.0,52.0,36.0,18.0,49.0,58.0,55.0,0.0
17.0,-2.0,-25.0,26.0,34.0,35.0,28.0,50.0,64.0,68.0,0.0
