channel0,channel1,channel2,channel3,channel4,channel5,channel6,channel7,channel8,channel9,true_locs
-26.0,-11.0,-28.0,0.0,-28.0,-16.0,-12.0,3.0,-4.0,-1.0,0.0
4.0,6.0,11.0,0.0,-26.0,-13.0,-11.0,0.0,17.0,42.0,0.0
6.0,2.0,46.0,-2.0,-20.0,-14.0,4.0,-2.0,34.0,60.0,0.0
-17.0,-14.0,110.0,-5.0,-21.0,-9.0,-13.0,7.0,32.0,39.0,0.0
-8.0,-5.0,201.0,-4.0,-29.0,-8.0,-22.0,3.0,55.0,31.0,0.0
12.0,13.0,203.0,-3.0,-14.0,-2.0,-19.0,4.0,78.0,34.0,0.0
7.0,10.0,90.0,1.0,-5.0,0.0,-12.0,10.0,89.0,31.0,0.0
-7.0,10.0,20.0,8.0,4.0,-4.0,5.0,8.0,83.0,26.0,0.0
-10.0,14.0,-62.0,10.0,11.0,2.0,24.0,7.0,69.0,31.0,0.0
-19.0,17.0,-160.0,7.0,23.0,7.0,41.0,7.0,28.0,24.0,0.0
-39.0,27.0,-238.0,13.0,20.0,-3.0,51.0,13.0,-13.0,7.0,0.0
-33.0,20.0,-299.0,13.0,19.0,-10.0,37.0,3.0,-43.0,8.0,0.0
0.0,11.0,-366.0,9.0,28.0,-3.0,21.0,-4.0,-41.0,32.0,0.0
19.0,-1.0,-336.0,7.0,16.0,-15.0,6.0,-8.0,-16.0,52.0,0.0
5.0,-12.0,-257.0,13.0,3.0,-22.0,22.0,-17.0,3.0,46.0,0.0
-1.0,-8.0,-144.0,17.0,9.0,-17.0,26.0,-12.0,19.0,42.0,0.0
-6.0,-7.0,-32.0,7.0,20.0,-5.0,34.0,3.0,36.0,34.0,0.0
-16.0,1.0,43.0,2.0,13.0,2.0,52.0,4.0,43.0,28.0,0.0
-20.0,15.0,121.0,18.0,20.0,7.0,39.0,-2.0,40.0,17.0,0.0
-31.0,32.0,208.0,19.0,21.0,7.0,6.0,-8.0,23.0,0.0,0.0
-18.0,28.0,253.0,8.0,11.0,9.0,-3.0,-5.0,5.0,-14.0,0.0
-16.0,20.0,247.0,-1.0,16.0,0.0,2.0,-13.0,0.0,-17.0,0.0
-1.0,14.0,202.0,3.0,27.0,-12.0,-7.0,-19.0,4.0,-9.0,0.0
10.0,4.0,89.0,11.0,23.0,-13.0,-15.0,-14.0,0.0,-10.0,0.0
5.0,-5.0,-28.0,3.0,10.0,-19.0,-13.0,-7.0,-3.0,-9.0,0.0
2.0,-18.0,-110.0,5.0,7.0,-16.0,-14.0,-16.0,-10.0,-11.0,0.0
8.0,-32.0,-179.0,-7.0,2.0,-10.0,-25.0,-25.0,-15.0,-20.0,0.0
-3.0,-37.0,-282.0,1.0,3.0,-10.0,-26.0,-22.0,-12.0,-20.0,0.0
-5.0,-24.0,-394.0,5.0,8.0,1.0,-7.0,-21.0,2.0,10.0,0.0
10.0,-10.0,-392.0,5.0,13.0,-4.0,1.0,-21.0,8.0,33.0,0.0
8.0,-2.0,-300.0,4.0,16.0,7.0,-6.0,-15.0,15.0,33.0,0.0
-10.0,-3.0,-185.0,2.0,21.0,10.0,-7.0,-15.0,13.0,40.0,0.0
-22.0,-12.0,-114.0,2.0,17.0,8.0,-13.0,-12.0,0.0,40.0,0.0
-38.0,-17.0,-68.0,2.0,9.0,15.0,0.0,-18.0,5.0,18.0,0.0
-49.0,-21.0,-20.0,-4.0,3.0,17.0,15.0,-16.0,23.0,0.0,0.0
-52.0,-20.0,72.0,-2.0,-1.0,13.0,34.0,-5.0,27.0,-15.0,0.0
-60.0,-28.0,138.0,-6.0,-10.0,10.0,24.0,7.0,33.0,-32.0,0.0
-56.0,-26.0,162.0,-12.0,-22.0,14.0,20.0,16.0,26.0,-32.0,0.0
-4.0,8.0,168.0,-3.0,-18.0,21.0,51.0,9.0,15.0,28.0,0.0
23.0,17.0,122.0,-2.0,-10.0,21.0,51.0,12.0,10.0,57.0,0.0
23.0,9.0,-4.0,-11.0,-9.0,13.0,35.0,13.0,35.0,48.0,0.0
13.0,-6.0,-101.0,-6.0,-11.0,9.0,48.0,15.0,47.0,29.0,0.0
-16.0,-28.0,-201.0,-1.0,-14.0,12.0,36.0,21.0,28.0,6.0,0.0
-2.0,-25.0,-271.0,0.0,-19.0,15.0,12.0,16.0,25.0,7.0,0.0
19.0,-6.0,-299.0,2.0,-17.0,9.0,16.0,17.0,3.0,28.0,0.0
9.0,-1.0,-327.0,10.0,-9.0,5.0,-4.0,19.0,-19.0,35.0,0.0
-7.0,2.0,-322.0,5.0,0.0,6.0,-31.0,25.0,-30.0,26.0,0.0
-4.0,13.0,-284.0,5.0,-4.0,3.0,-23.0,23.0,-44.0,23.0,0.0
17.0,37.0,-205.0,4.0,-12.0,2.0,-18.0,27.0,-34.0,19.0,0.0
13.0,33.0,-179.0,-10.0,-1.0,4.0,0.0,14.0,-34.0,7.0,0.0
-7.0,13.0,-71.0,-7.0,-3.0,6.0,0.0,11.0,-24.0,-7.0,0.0
-8.0,0.0,17.0,-6.0,-3.0,11.0,3.0,22.0,-22.0,-19.0,0.0
-11.0,-10.0,49.0,4.0,0.0,10.0,16.0,25.0,-20.0,-32.0,0.0
-18.0,-9.0,108.0,9.0,10.0,11.0,34.0,24.0,-18.0,-33.0,0.0
-3.0,3.0,156.0,7.0,4.0,6.0,19.0,13.0,-14.0,-18.0,0.0
18.0,15.0,165.0,2.0,2.0,3.0,-13.0,11.0,-3.0,-11.0,0.0
28.0,24.0,92.0,-2.0,1.0,9.0,-16.0,13.0,-10.0,-9.0,0.0
31.0,20.0,-14.0,-3.0,-5.0,11.0,-6.0,11.0,-13.0,-4.0,0.0
44.0,16.0,-116.0,-10.0,-6.0,20.0,-9.0,2.0,-3.0,8.0,0.0
51.0,22.0,-177.0,-15.0,-13.0,16.0,-20.0,-5.0,0.0,17.0,0.0
32.0,14.0,-241.0,-20.0,-12.0,7.0,-31.0,-3.0,-18.0,12.0,0.0
23.0,1.0,-279.0,-14.0,-6.0,4.0,-31.0,-1.0,-38.0,-9.0,0.0
15.0,-4.0,-306.0,-28.0,0.0,3.0,-19.0,-1.0,-49.0,-16.0,0.0
9.0,-9.0,-298.0,-24.0,-5.0,13.0,7.0,-12.0,-43.0,-13.0,0.0
12.0,-14.0,-264.0,-18.0,-16.0,6.0,27.0,-13.0,-27.0,-7.0,0.0
18.0,-15.0,-233.0,-8.0,-6.0,3.0,11.0,-14.0,-21.0,0.0,0.0
0.0,-19.0,-131.0,4.0,10.0,4.0,5.0,-18.0,-12.0,-10.0,0.0
-47.0,-37.0,-28.0,8.0,16.0,17.0,0.0,-9.0,7.0,-40.0,0.0
-65.0,-47.0,33.0,9.0,16.0,26.0,8.0,-7.0,22.0,-63.0,0.0
-53.0,-26.0,100.0,7.0,0.0,12.0,5.0,11.0,35.0,-57.0,0.0
-52.0,-23.0,107.0,16.0,-20.0,9.0,6.0,18.0,37.0,-44.0,0.0
-46.0,-25.0,120.0,13.0,-18.0,0.0,7.0,5.0,26.0,-34.0,0.0
-18.0,-1.0,113.0,-6.0,-9.0,-5.0,4.0,-2.0,21.0,-7.0,0.0
-19.0,-6.0,13.0,0.0,-2.0,-4.0,2.0,-4.0,-11.0,-14.0,0.0
-29.0,-9.0,-86.0,1.0,0.0,-9.0,4.0,-8.0,-33.0,-24.0,0.0
-21.0,5.0,-192.0,2.0,0.0,-1.0,5.0,-10.0,-34.0,-29.0,0.0
-23.0,15.0,-209.0,6.0,0.0,5.0,2.0,-8.0,-46.0,-37.0,0.0
-44.0,5.0,-258.0,-9.0,-1.0,1.0,-11.0,-21.0,-42.0,-52.0,0.0
-57.0,1.0,-270.0,-7.0,-8.0,-2.0,-16.0,-23.0,-27.0,-46.0,0.0
-39.0,-1.0,-244.0,-5.0,-2.0,-9.0,0.0,-24.0,-15.0,-49.0,0.0
-31.0,-6.0,-200.0,-6.0,-6.0,-10.0,14.0,-16.0,1.0,-55.0,0.0
-24.0,-21.0,-157.0,-23.0,-21.0,-5.0,11.0,-3.0,42.0,-46.0,0.0
-8.0,-42.0,-95.0,-24.0,-17.0,-5.0,7.0,0.0,55.0,-25.0,0.0
2.0,-24.0,-7.0,-17.0,-10.0,-6.0,12.0,10.0,33.0,3.0,0.0
34.0,-18.0,104.0,-27.0,-9.0,-9.0,14.0,12.0,16.0,34.0,0.0
36.0,-47.0,179.0,-21.0,-8.0,-22.0,1.0,-5.0,9.0,36.0,0.0
9.0,-46.0,218.0,-24.0,-12.0,-31.0,-17.0,-8.0,0.0,32.0,0.0
7.0,-36.0,231.0,-22.0,-16.0,-39.0,-21.0,-3.0,-2.0,37.0,0.0
8.0,-32.0,239.0,-13.0,-13.0,-31.0,-10.0,1.0,7.0,46.0,0.0
1.0,-30.0,174.0,-2.0,-13.0,-25.0,3.0,7.0,22.0,38.0,0.0
-5.0,-27.0,74.0,7.0,0.0,-18.0,7.0,9.0,41.0,35.0,0.0
7.0,-8.0,-28.0,16.0,14.0,-14.0,3.0,11.0,55.0,24.0,0.0
10.0,8.0,-118.0,26.0,17.0,10.0,34.0,13.0,50.0,11.0,0.0
15.0,17.0,-182.0,25.0,12.0,11.0,34.0,6.0,36.0,-2.0,0.0
15.0,17.0,-223.0,19.0,8.0,0.0,14.0,0.0,2.0,-5.0,0.0
23.0,26.0,-231.0,9.0,20.0,-14.0,23.0,-5.0,-18.0,-6.0,0.0
32.0,31.0,-233.0,8.0,20.0,-4.0,27.0,-4.0,-27.0,-11.0,0.0
31.0,31.0,-199.0,5.0,16.0,-4.0,29.0,1.0,-18.0,-11.0,0.0
23.0,13.0,-114.0,-1.0,14.0,-10.0,35.0,0.0,-16.0,-9.0,0.0
31.0,11.0,-21.0,-6.0,14.0,-3.0,14.0,-2.0,-13.0,0.0,0.0
22.0,10.0,38.0,-7.0,13.0,-12.0,14.0,-9.0,-15.0,4.0,1.0
20.0,19.0,113.0,-9.0,6.0,-8.0,19.0,-9.0,-24.0,8.0,1.0
28.0,28.0,201.0,-1.0,5.0,-1.0,-1.0,-4.0,-23.0,20.0,1.0
42.0,12.0,265.0,2.0,7.0,-5.0,2.0,5.0,-14.0,17.0,1.0
39.0,8.0,256.0,3.0,-3.0,0.0,16.0,15.0,-13.0,-2.0,1.0
36.0,26.0,229.0,7.0,-4.0,0.0,-5.0,10.0,-33.0,7.0,1.0
44.0,28.0,147.0,9.0,4.0,-10.0,-13.0,-2.0,-42.0,20.0,1.0
47.0,28.0,35.0,12.0,0.0,0.0,7.0,3.0,-43.0,14.0,1.0
49.0,29.0,-52.0,5.0,4.0,3.0,11.0,-1.0,-42.0,26.0,1.0
42.0,35.0,-118.0,4.0,7.0,0.0,0.0,-7.0,-38.0,21.0,1.0
16.0,31.0,-190.0,1.0,11.0,3.0,-7.0,-5.0,-26.0,2.0,1.0
-2.0,16.0,-260.0,-11.0,0.0,-3.0,-4.0,5.0,-14.0,-7.0,1.0
-4.0,12.0,-275.0,-17.0,-12.0,-10.0,-15.0,3.0,-8.0,-14.0,1.0
-11.0,13.0,-229.0,-8.0,-12.0,-8.0,-6.0,9.0,2.0,-25.0,1.0
-18.0,16.0,-158.0,3.0,-11.0,-5.0,-1.0,9.0,19.0,-4.0,1.0
5.0,13.0,-74.0,15.0,-22.0,-7.0,-17.0,5.0,24.0,25.0,1.0
19.0,16.0,-36.0,4.0,-23.0,-11.0,-27.0,1.0,31.0,48.0,1.0
40.0,20.0,-25.0,-4.0,-19.0,-6.0,-37.0,-3.0,23.0,82.0,1.0
16.0,5.0,74.0,5.0,-9.0,-1.0,-43.0,3.0,15.0,64.0,0.0
0.0,-24.0,208.0,18.0,-7.0,7.0,-26.0,9.0,2.0,23.0,0.0
-4.0,-18.0,260.0,26.0,-10.0,14.0,0.0,13.0,-6.0,6.0,0.0
-11.0,-6.0,281.0,25.0,-10.0,13.0,-7.0,10.0,-5.0,16.0,0.0
-19.0,-6.0,227.0,34.0,-6.0,15.0,-10.0,5.0,-7.0,-4.0,0.0
-10.0,1.0,112.0,41.0,-14.0,7.0,2.0,15.0,-10.0,-21.0,0.0
-2.0,7.0,5.0,17.0,-22.0,6.0,14.0,29.0,-18.0,-34.0,0.0
-23.0,0.0,-98.0,-2.0,-10.0,15.0,13.0,37.0,-34.0,-61.0,0.0
-23.0,-7.0,-181.0,-6.0,4.0,20.0,-4.0,35.0,-36.0,-61.0,0.0
6.0,10.0,-226.0,-14.0,0.0,13.0,1.0,28.0,-18.0,-28.0,0.0
20.0,18.0,-242.0,-29.0,-4.0,11.0,20.0,19.0,-5.0,-4.0,0.0
14.0,13.0,-260.0,-31.0,-4.0,9.0,24.0,12.0,-14.0,14.0,0.0
0.0,10.0,-259.0,-30.0,-13.0,17.0,29.0,18.0,-3.0,4.0,0.0
-9.0,13.0,-152.0,-26.0,-24.0,19.0,29.0,21.0,19.0,-3.0,0.0
-5.0,14.0,-17.0,-8.0,-31.0,2.0,5.0,14.0,34.0,-2.0,0.0
11.0,8.0,80.0,4.0,-34.0,-9.0,16.0,7.0,26.0,-9.0,0.0
24.0,9.0,149.0,26.0,-33.0,-18.0,15.0,3.0,19.0,-15.0,0.0
33.0,24.0,226.0,16.0,-21.0,-22.0,-8.0,-3.0,14.0,11.0,0.0
49.0,28.0,307.0,-4.0,-13.0,-26.0,14.0,-6.0,24.0,35.0,0.0
41.0,18.0,312.0,-13.0,-23.0,-26.0,41.0,-10.0,32.0,27.0,0.0
33.0,-5.0,251.0,-15.0,-31.0,-26.0,43.0,-13.0,26.0,19.0,0.0
23.0,-19.0,182.0,-1.0,-34.0,-18.0,52.0,0.0,13.0,11.0,0.0
25.0,-19.0,95.0,9.0,-35.0,-11.0,50.0,4.0,1.0,-2.0,0.0
10.0,-12.0,17.0,22.0,-27.0,-4.0,40.0,10.0,3.0,-16.0,0.0
-2.0,-9.0,-111.0,29.0,-17.0,8.0,41.0,14.0,7.0,-29.0,0.0
-4.0,0.0,-198.0,38.0,-7.0,15.0,59.0,19.0,26.0,-26.0,0.0
-6.0,10.0,-215.0,40.0,-13.0,14.0,47.0,25.0,34.0,-16.0,0.0
-1.0,30.0,-238.0,28.0,-11.0,8.0,21.0,25.0,35.0,-4.0,0.0
11.0,45.0,-241.0,23.0,3.0,8.0,16.0,15.0,17.0,5.0,0.0
5.0,38.0,-169.0,29.0,9.0,7.0,12.0,9.0,-3.0,-1.0,0.0
15.0,40.0,-51.0,32.0,11.0,-4.0,19.0,8.0,-15.0,-13.0,0.0
26.0,43.0,73.0,42.0,8.0,-1.0,27.0,1.0,-21.0,-4.0,0.0
19.0,27.0,154.0,49.0,17.0,-9.0,32.0,1.0,-21.0,-2.0,0.0
10.0,1.0,220.0,41.0,19.0,-12.0,22.0,1.0,-14.0,12.0,0.0
14.0,-10.0,293.0,25.0,16.0,6.0,-8.0,2.0,-8.0,10.0,0.0
0.0,-35.0,325.0,13.0,15.0,16.0,-10.0,7.0,-12.0,-13.0,0.0
-27.0,-47.0,298.0,1.0,10.0,13.0,-18.0,4.0,-9.0,-39.0,0.0
-49.0,-62.0,269.0,-13.0,-7.0,11.0,-2.0,13.0,-16.0,-60.0,0.0
-34.0,-44.0,170.0,-17.0,-15.0,5.0,-12.0,15.0,-16.0,-44.0,0.0
-22.0,-25.0,-4.0,-31.0,-32.0,-14.0,-34.0,5.0,-22.0,-20.0,0.0
-28.0,-22.0,-125.0,-29.0,-34.0,-17.0,-22.0,2.0,-23.0,-34.0,0.0
-16.0,-31.0,-142.0,-12.0,-6.0,-8.0,-10.0,0.0,-12.0,-38.0,0.0
-14.0,-38.0,-158.0,0.0,22.0,0.0,-29.0,0.0,3.0,-32.0,0.0
-33.0,-35.0,-189.0,6.0,35.0,8.0,-30.0,0.0,5.0,-44.0,0.0
-37.0,-45.0,-191.0,-1.0,35.0,9.0,-8.0,0.0,-6.0,-49.0,0.0
-37.0,-50.0,-134.0,-6.0,35.0,11.0,-17.0,-1.0,-10.0,-57.0,0.0
-19.0,-43.0,-78.0,-17.0,24.0,12.0,-38.0,-2.0,-2.0,-53.0,0.0
-18.0,-47.0,-3.0,-30.0,9.0,10.0,-26.0,-3.0,-1.0,-46.0,0.0
-7.0,-39.0,100.0,-25.0,0.0,10.0,-18.0,-6.0,0.0,-36.0,0.0
44.0,-15.0,187.0,-9.0,-24.0,0.0,-28.0,-9.0,16.0,15.0,0.0
60.0,-19.0,277.0,-19.0,-24.0,-15.0,-46.0,0.0,18.0,65.0,0.0
47.0,-27.0,307.0,-42.0,-16.0,-6.0,-34.0,7.0,13.0,67.0,0.0
49.0,-1.0,332.0,-44.0,-30.0,-10.0,-10.0,14.0,6.0,51.0,0.0
35.0,8.0,326.0,-39.0,-30.0,-19.0,-20.0,9.0,2.0,24.0,0.0
29.0,6.0,257.0,-42.0,-27.0,-30.0,-23.0,0.0,-1.0,18.0,0.0
28.0,2.0,162.0,-32.0,-19.0,-27.0,3.0,-15.0,0.0,28.0,0.0
24.0,0.0,55.0,-21.0,-6.0,-15.0,30.0,-15.0,13.0,17.0,0.0
17.0,14.0,-34.0,-12.0,9.0,-7.0,20.0,-4.0,26.0,24.0,0.0
28.0,20.0,-172.0,3.0,14.0,-11.0,32.0,-4.0,60.0,34.0,0.0
36.0,14.0,-218.0,-2.0,6.0,-16.0,35.0,2.0,86.0,37.0,0.0
21.0,15.0,-213.0,-13.0,10.0,-15.0,35.0,2.0,74.0,14.0,0.0
7.0,10.0,-207.0,-15.0,11.0,-9.0,15.0,4.0,67.0,-9.0,0.0
-13.0,-26.0,-177.0,-15.0,12.0,0.0,4.0,9.0,33.0,-45.0,0.0
-30.0,-30.0,-84.0,-4.0,15.0,6.0,-9.0,13.0,8.0,-73.0,0.0
-29.0,-7.0,12.0,4.0,19.0,0.0,-19.0,7.0,-26.0,-33.0,0.0
-30.0,-6.0,98.0,17.0,31.0,10.0,-10.0,6.0,-57.0,-42.0,0.0
-17.0,0.0,178.0,25.0,34.0,12.0,-8.0,14.0,-42.0,-30.0,0.0
10.0,13.0,263.0,11.0,31.0,7.0,-25.0,4.0,-37.0,6.0,0.0
35.0,12.0,303.0,10.0,37.0,10.0,-35.0,-14.0,-57.0,59.0,0.0
25.0,11.0,272.0,6.0,40.0,1.0,-41.0,-12.0,-63.0,71.0,0.0
4.0,9.0,267.0,8.0,33.0,-8.0,-25.0,-3.0,-45.0,29.0,0.0
-8.0,2.0,195.0,6.0,28.0,-13.0,-10.0,2.0,-32.0,-5.0,0.0
-6.0,0.0,75.0,1.0,22.0,-8.0,-15.0,10.0,-26.0,-4.0,0.0
-9.0,-1.0,-13.0,0.0,19.0,-1.0,-24.0,1.0,-25.0,-8.0,0.0
-7.0,0.0,-104.0,-3.0,24.0,2.0,13.0,-4.0,-20.0,-17.0,0.0
-6.0,2.0,-148.0,1.0,18.0,-9.0,42.0,3.0,-10.0,-20.0,0.0
4.0,14.0,-172.0,9.0,-2.0,-21.0,37.0,21.0,-5.0,-16.0,0.0
24.0,6.0,-186.0,-3.0,-6.0,-21.0,33.0,22.0,0.0,-6.0,0.0
3.0,-2.0,-187.0,-8.0,0.0,-20.0,18.0,13.0,-14.0,-21.0,0.0
-11.0,13.0,-125.0,-12.0,-6.0,-9.0,27.0,12.0,-6.0,-26.0,0.0
-23.0,21.0,-45.0,-7.0,1.0,1.0,25.0,11.0,4.0,-26.0,0.0
-35.0,13.0,26.0,-9.0,12.0,7.0,29.0,15.0,4.0,-32.0,0.0
-23.0,14.0,106.0,-10.0,9.0,-2.0,16.0,15.0,10.0,-17.0,0.0
18.0,29.0,203.0,-17.0,-5.0,-11.0,-2.0,-2.0,23.0,11.0,0.0
32.0,16.0,301.0,-14.0,-20.0,-17.0,3.0,-8.0,24.0,25.0,0.0
-6.0,-3.0,336.0,-11.0,-10.0,-2.0,2.0,-4.0,8.0,-3.0,0.0
-32.0,-1.0,326.0,-8.0,-4.0,-3.0,-9.0,0.0,-8.0,-19.0,0.0
-12.0,22.0,262.0,-9.0,-7.0,-5.0,-25.0,-5.0,0.0,-7.0,0.0
11.0,22.0,133.0,0.0,-7.0,-11.0,-29.0,-9.0,-11.0,0.0,0.0
11.0,9.0,21.0,-4.0,-12.0,0.0,-12.0,-1.0,-15.0,-19.0,0.0
6.0,6.0,-43.0,-2.0,-15.0,10.0,-9.0,0.0,-39.0,-31.0,0.0
2.0,-1.0,-113.0,1.0,-2.0,0.0,-27.0,5.0,-35.0,-32.0,0.0
4.0,12.0,-190.0,-8.0,23.0,-5.0,-41.0,7.0,-5.0,-33.0,0.0
-1.0,16.0,-217.0,-4.0,37.0,5.0,-49.0,7.0,27.0,-33.0,0.0
5.0,7.0,-209.0,-4.0,33.0,12.0,-37.0,10.0,65.0,-26.0,0.0
3.0,-7.0,-178.0,-5.0,39.0,11.0,-16.0,11.0,61.0,-30.0,0.0
-7.0,-11.0,-120.0,-5.0,40.0,22.0,1.0,-5.0,28.0,-49.0,0.0
-8.0,-10.0,-35.0,4.0,38.0,26.0,-2.0,-15.0,14.0,-50.0,0.0
29.0,-3.0,29.0,14.0,38.0,37.0,-15.0,-15.0,5.0,-8.0,0.0
54.0,-2.0,112.0,11.0,37.0,34.0,-9.0,-17.0,-25.0,21.0,0.0
19.0,-16.0,248.0,5.0,36.0,25.0,4.0,-9.0,-26.0,1.0,0.0
1.0,-34.0,299.0,11.0,18.0,27.0,10.0,-7.0,-15.0,-3.0,0.0
13.0,-24.0,314.0,2.0,-7.0,23.0,22.0,-9.0,-1.0,7.0,0.0
6.0,-5.0,302.0,4.0,-17.0,3.0,23.0,-4.0,8.0,19.0,0.0
13.0,-2.0,245.0,-10.0,-9.0,-14.0,8.0,0.0,11.0,34.0,0.0
12.0,-2.0,150.0,-16.0,4.0,-8.0,15.0,-5.0,17.0,43.0,0.0
9.0,-6.0,50.0,-18.0,5.0,-6.0,31.0,3.0,17.0,27.0,0.0
8.0,-1.0,-44.0,-26.0,-2.0,6.0,29.0,12.0,2.0,8.0,0.0
-2.0,22.0,-142.0,-21.0,-3.0,9.0,40.0,10.0,0.0,0.0,0.0
8.0,32.0,-213.0,-32.0,-7.0,-4.0,62.0,11.0,12.0,-4.0,0.0
4.0,18.0,-237.0,-34.0,-17.0,-4.0,43.0,3.0,3.0,-12.0,0.0
-11.0,1.0,-206.0,-34.0,-9.0,1.0,23.0,-6.0,-8.0,-8.0,0.0
-20.0,-34.0,-167.0,-30.0,-4.0,-9.0,43.0,-2.0,-8.0,-2.0,0.0
-16.0,-50.0,-144.0,-16.0,-5.0,-10.0,36.0,-5.0,3.0,2.0,0.0
7.0,-25.0,-44.0,0.0,-2.0,-15.0,25.0,-20.0,1.0,31.0,0.0
7.0,-31.0,87.0,10.0,2.0,-17.0,20.0,-20.0,-11.0,44.0,0.0
-17.0,-58.0,152.0,-6.0,-5.0,-17.0,25.0,3.0,-18.0,18.0,0.0
-8.0,-46.0,214.0,-14.0,-8.0,-11.0,25.0,10.0,-23.0,9.0,0.0
26.0,-33.0,264.0,-23.0,-12.0,-12.0,19.0,10.0,-22.0,36.0,0.0
22.0,-28.0,299.0,-16.0,-1.0,4.0,15.0,15.0,-21.0,21.0,0.0
-3.0,-38.0,272.0,-17.0,1.0,6.0,25.0,15.0,-19.0,-18.0,0.0
-37.0,-49.0,166.0,-19.0,0.0,-5.0,22.0,10.0,-32.0,-44.0,0.0
-50.0,-34.0,9.0,-16.0,-1.0,-12.0,24.0,1.0,-34.0,-54.0,0.0
-43.0,-6.0,-74.0,-14.0,4.0,-11.0,13.0,-10.0,-32.0,-52.0,0.0
-40.0,16.0,-98.0,-18.0,0.0,-12.0,2.0,-12.0,-26.0,-45.0,0.0
-36.0,12.0,-151.0,-16.0,2.0,-10.0,-28.0,-9.0,-28.0,-46.0,0.0
-42.0,2.0,-181.0,-8.0,9.0,2.0,-30.0,-10.0,-12.0,-30.0,0.0
-32.0,2.0,-186.0,-9.0,4.0,0.0,-29.0,-9.0,1.0,-1.0,0.0
-11.0,7.0,-150.0,-6.0,10.0,0.0,-50.0,-3.0,-13.0,28.0,0.0
4.0,13.0,-89.0,13.0,23.0,0.0,-47.0,2.0,-29.0,40.0,0.0
4.0,27.0,-77.0,21.0,28.0,14.0,-24.0,0.0,-25.0,26.0,0.0
-7.0,29.0,14.0,15.0,16.0,23.0,-22.0,-2.0,-38.0,7.0,0.0
-22.0,22.0,137.0,11.0,8.0,25.0,-17.0,-7.0,-47.0,-5.0,0.0
-29.0,21.0,216.0,20.0,0.0,32.0,-3.0,-7.0,-50.0,-18.0,0.0
-21.0,31.0,262.0,16.0,3.0,32.0,-6.0,-6.0,-51.0,-4.0,0.0
-20.0,17.0,276.0,25.0,1.0,20.0,-29.0,-9.0,-50.0,-4.0,0.0
-34.0,-5.0,212.0,20.0,-5.0,12.0,-1.0,-4.0,-51.0,-22.0,0.0
-1.0,-2.0,180.0,11.0,-20.0,5.0,3.0,-3.0,-31.0,-21.0,0.0
21.0,3.0,164.0,0.0,-30.0,-4.0,-11.0,-1.0,3.0,0.0,0.0
18.0,-5.0,59.0,-14.0,-26.0,-4.0,5.0,6.0,24.0,16.0,0.0
27.0,-6.0,-58.0,-9.0,-27.0,1.0,-11.0,9.0,41.0,38.0,0.0
48.0,1.0,-84.0,2.0,-19.0,0.0,-30.0,0.0,78.0,86.0,0.0
64.0,1.0,-137.0,9.0,-3.0,-7.0,-8.0,0.0,104.0,100.0,0.0
40.0,0.0,-182.0,11.0,8.0,2.0,-6.0,12.0,107.0,77.0,0.0
3.0,-6.0,-187.0,13.0,6.0,6.0,0.0,12.0,81.0,44.0,0.0
-12.0,-19.0,-148.0,18.0,8.0,9.0,20.0,20.0,53.0,11.0,0.0
9.0,-16.0,-72.0,15.0,7.0,14.0,9.0,4.0,21.0,8.0,0.0
49.0,7.0,8.0,12.0,9.0,15.0,-15.0,-2.0,-33.0,40.0,0.0
71.0,24.0,121.0,16.0,6.0,11.0,-21.0,-8.0,-39.0,70.0,0.0
60.0,18.0,217.0,19.0,-8.0,4.0,-17.0,0.0,-40.0,74.0,0.0
31.0,4.0,288.0,15.0,-26.0,8.0,-17.0,6.0,-34.0,40.0,0.0
15.0,-1.0,282.0,7.0,-23.0,4.0,-1.0,4.0,-42.0,16.0,0.0
-3.0,-2.0,241.0,3.0,-7.0,2.0,-5.0,12.0,-35.0,15.0,0.0
-10.0,19.0,189.0,9.0,-1.0,5.0,-23.0,13.0,-33.0,26.0,0.0
23.0,49.0,129.0,7.0,-9.0,-9.0,-30.0,1.0,-18.0,43.0,0.0
32.0,46.0,93.0,-3.0,-11.0,-12.0,-46.0,-7.0,6.0,47.0,0.0
7.0,24.0,53.0,-3.0,-10.0,-10.0,-47.0,5.0,8.0,33.0,0.0
-15.0,-2.0,-37.0,-5.0,-7.0,-9.0,-10.0,15.0,10.0,10.0,0.0
-21.0,-2.0,-129.0,-6.0,2.0,-1.0,10.0,16.0,20.0,-4.0,0.0
-16.0,16.0,-187.0,-2.0,-2.0,-13.0,30.0,19.0,32.0,-15.0,0.0
-5.0,23.0,-199.0,-2.0,-11.0,-15.0,18.0,19.0,19.0,-21.0,0.0
14.0,28.0,-214.0,5.0,-10.0,-15.0,-26.0,18.0,-11.0,-12.0,0.0
9.0,25.0,-108.0,13.0,-17.0,-11.0,-39.0,12.0,-24.0,-20.0,0.0
-43.0,3.0,-38.0,4.0,-11.0,-4.0,-33.0,12.0,-45.0,-64.0,0.0
-75.0,-22.0,-46.0,-9.0,-3.0,-1.0,-21.0,20.0,-54.0,-90.0,0.0
-93.0,-20.0,69.0,-6.0,0.0,-4.0,-16.0,18.0,-37.0,-97.0,0.0
-82.0,-10.0,182.0,-1.0,0.0,-1.0,-32.0,16.0,-36.0,-74.0,0.0
-41.0,-1.0,250.0,-4.0,-13.0,8.0,-45.0,10.0,-29.0,-44.0,0.0
-14.0,-6.0,290.0,-4.0,-24.0,4.0,-51.0,11.0,-6.0,0.0,0.0
-6.0,-16.0,298.0,-8.0,-15.0,4.0,-46.0,4.0,7.0,17.0,0.0
9.0,-19.0,275.0,-12.0,-3.0,10.0,-32.0,-11.0,5.0,35.0,0.0
17.0,-13.0,206.0,-16.0,0.0,9.0,-9.0,-10.0,36.0,40.0,0.0
1.0,-8.0,114.0,-21.0,0.0,10.0,-10.0,-5.0,43.0,25.0,0.0
-3.0,-1.0,16.0,-21.0,-2.0,6.0,-17.0,3.0,37.0,21.0,0.0
0.0,-5.0,-69.0,1.0,-6.0,0.0,-14.0,11.0,24.0,10.0,0.0
1.0,-8.0,-134.0,16.0,-7.0,6.0,0.0,8.0,-4.0,2.0,0.0
0.0,-4.0,-153.0,18.0,10.0,11.0,38.0,0.0,-24.0,2.0,0.0
-7.0,3.0,-158.0,24.0,5.0,6.0,43.0,6.0,-32.0,2.0,0.0
-7.0,8.0,-131.0,11.0,-7.0,-1.0,51.0,9.0,-12.0,9.0,0.0
-3.0,-2.0,-79.0,6.0,-20.0,-8.0,43.0,0.0,-3.0,13.0,0.0
-4.0,-11.0,-26.0,3.0,-30.0,1.0,1.0,1.0,-1.0,7.0,0.0
-1.0,-15.0,52.0,0.0,-27.0,7.0,2.0,-3.0,-1.0,18.0,0.0
-1.0,-13.0,117.0,2.0,-29.0,10.0,11.0,-6.0,-7.0,22.0,0.0
-1.0,-11.0,216.0,1.0,-20.0,7.0,-5.0,-12.0,-13.0,29.0,0.0
-4.0,-13.0,272.0,4.0,-5.0,4.0,-22.0,-17.0,-14.0,8.0,0.0
-16.0,-17.0,281.0,2.0,0.0,-6.0,-28.0,-14.0,-17.0,-14.0,0.0
-28.0,-22.0,270.0,-2.0,0.0,-4.0,14.0,-14.0,-15.0,-13.0,0.0
-25.0,-11.0,214.0,0.0,-3.0,5.0,44.0,-5.0,0.0,-9.0,0.0
-10.0,-1.0,92.0,7.0,-10.0,4.0,39.0,-6.0,-11.0,-12.0,0.0
17.0,29.0,15.0,2.0,-5.0,5.0,7.0,-4.0,-11.0,-9.0,0.0
16.0,51.0,-70.0,2.0,11.0,3.0,3.0,2.0,2.0,-25.0,0.0
9.0,66.0,-184.0,4.0,21.0,-2.0,30.0,11.0,12.0,-20.0,0.0
7.0,72.0,-214.0,15.0,18.0,-11.0,34.0,19.0,28.0,-13.0,0.0
4.0,37.0,-250.0,18.0,8.0,0.0,24.0,11.0,14.0,-3.0,0.0
8.0,-4.0,-207.0,14.0,-4.0,4.0,26.0,0.0,0.0,-3.0,0.0
-22.0,-15.0,-144.0,21.0,-3.0,6.0,29.0,5.0,0.0,-9.0,0.0
-42.0,-33.0,-89.0,21.0,6.0,6.0,26.0,16.0,6.0,-10.0,0.0
-59.0,-63.0,-19.0,24.0,18.0,-2.0,33.0,10.0,-3.0,-46.0,0.0
-89.0,-65.0,54.0,11.0,24.0,-6.0,42.0,4.0,0.0,-64.0,0.0
-94.0,-67.0,102.0,5.0,21.0,0.0,43.0,9.0,2.0,-65.0,0.0
-78.0,-44.0,174.0,4.0,33.0,4.0,39.0,12.0,-10.0,-58.0,0.0
-52.0,-22.0,253.0,9.0,39.0,4.0,17.0,11.0,5.0,-41.0,0.0
-42.0,-26.0,289.0,13.0,24.0,4.0,5.0,23.0,25.0,-38.0,0.0
-30.0,-17.0,246.0,11.0,22.0,-2.0,0.0,24.0,24.0,-30.0,0.0
-10.0,12.0,153.0,0.0,18.0,-17.0,-1.0,2.0,14.0,-2.0,0.0
-13.0,18.0,20.0,6.0,4.0,-5.0,5.0,1.0,6.0,3.0,0.0
-19.0,15.0,-85.0,4.0,6.0,0.0,15.0,4.0,10.0,-2.0,0.0
0.0,11.0,-183.0,1.0,2.0,-6.0,-10.0,2.0,13.0,-10.0,0.0
2.0,5.0,-258.0,-2.0,-4.0,-8.0,-16.0,3.0,16.0,-11.0,0.0
1.0,9.0,-250.0,0.0,-10.0,-16.0,3.0,0.0,5.0,-15.0,0.0
10.0,6.0,-213.0,10.0,0.0,-8.0,-41.0,-3.0,-7.0,-27.0,0.0
2.0,-1.0,-177.0,31.0,17.0,13.0,-56.0,0.0,-11.0,-38.0,0.0
5.0,3.0,-124.0,26.0,22.0,16.0,-24.0,4.0,-15.0,-38.0,0.0
17.0,3.0,-35.0,11.0,12.0,3.0,-8.0,-1.0,-15.0,-26.0,0.0
51.0,15.0,54.0,0.0,0.0,0.0,-36.0,-9.0,-27.0,5.0,0.0
72.0,32.0,126.0,3.0,-16.0,-5.0,-59.0,-4.0,-32.0,40.0,0.0
50.0,43.0,191.0,-7.0,-13.0,-8.0,-51.0,-9.0,-25.0,65.0,0.0
24.0,33.0,211.0,-15.0,-17.0,-2.0,-32.0,-8.0,-6.0,91.0,0.0
22.0,27.0,265.0,-6.0,-18.0,-13.0,-22.0,-1.0,12.0,106.0,0.0
10.0,23.0,283.0,-18.0,-19.0,-8.0,-7.0,0.0,3.0,76.0,0.0
-5.0,18.0,206.0,-18.0,-12.0,8.0,-7.0,-2.0,8.0,38.0,0.0
-4.0,15.0,91.0,-8.0,-12.0,10.0,-6.0,-2.0,5.0,17.0,0.0
-20.0,2.0,-25.0,-4.0,-21.0,-4.0,11.0,6.0,4.0,-9.0,0.0
-24.0,-3.0,-113.0,-13.0,-27.0,-16.0,6.0,-2.0,27.0,-23.0,0.0
-19.0,1.0,-175.0,-21.0,-38.0,-24.0,-8.0,-15.0,50.0,-6.0,0.0
-17.0,9.0,-244.0,-22.0,-41.0,-31.0,-20.0,-14.0,56.0,2.0,0.0
16.0,22.0,-285.0,-21.0,-40.0,-35.0,-5.0,-19.0,48.0,20.0,0.0
50.0,27.0,-270.0,-32.0,-25.0,-18.0,2.0,-18.0,46.0,45.0,0.0
60.0,31.0,-221.0,-29.0,-23.0,-9.0,-8.0,-9.0,67.0,60.0,0.0
57.0,24.0,-158.0,-24.0,-15.0,-12.0,-6.0,2.0,84.0,64.0,0.0
44.0,34.0,-60.0,-25.0,-1.0,-11.0,13.0,6.0,88.0,63.0,0.0
17.0,24.0,16.0,-21.0,7.0,4.0,0.0,7.0,82.0,24.0,0.0
25.0,17.0,83.0,-5.0,17.0,5.0,-33.0,11.0,57.0,3.0,0.0
29.0,20.0,140.0,3.0,18.0,13.0,-35.0,19.0,12.0,-11.0,0.0
-17.0,2.0,172.0,9.0,17.0,32.0,-16.0,24.0,-19.0,-36.0,0.0
-32.0,-23.0,190.0,3.0,14.0,32.0,19.0,32.0,-24.0,-69.0,0.0
29.0,5.0,204.0,5.0,4.0,19.0,23.0,27.0,-1.0,-4.0,0.0
80.0,31.0,159.0,16.0,-6.0,6.0,-14.0,10.0,1.0,75.0,0.0
50.0,22.0,40.0,20.0,-13.0,-7.0,-31.0,10.0,-5.0,42.0,0.0
0.0,7.0,-95.0,24.0,-10.0,-12.0,-8.0,8.0,-8.0,1.0,0.0
-10.0,-3.0,-166.0,14.0,-7.0,-16.0,15.0,5.0,-24.0,-23.0,0.0
-2.0,-5.0,-220.0,3.0,-18.0,-14.0,13.0,1.0,-25.0,-19.0,0.0
-3.0,0.0,-252.0,0.0,-20.0,-4.0,7.0,0.0,-13.0,-4.0,0.0
-9.0,-10.0,-278.0,-1.0,-18.0,14.0,7.0,9.0,-23.0,-4.0,0.0
-18.0,-18.0,-257.0,6.0,-17.0,17.0,-14.0,3.0,-21.0,-18.0,0.0
-24.0,-15.0,-206.0,6.0,-11.0,14.0,-44.0,-5.0,-27.0,-20.0,0.0
-14.0,-13.0,-118.0,-3.0,7.0,12.0,-46.0,-14.0,-33.0,-14.0,0.0
-12.0,-14.0,-43.0,-5.0,0.0,11.0,-50.0,-13.0,-29.0,-13.0,0.0
-12.0,-19.0,40.0,-1.0,5.0,10.0,-46.0,-17.0,-26.0,-12.0,0.0
-9.0,-14.0,134.0,2.0,12.0,9.0,-37.0,-21.0,-20.0,-1.0,0.0
-16.0,-9.0,206.0,10.0,15.0,3.0,-13.0,-19.0,-15.0,-5.0,0.0
-9.0,-5.0,237.0,18.0,18.0,8.0,14.0,-8.0,-13.0,-17.0,0.0
-15.0,0.0,220.0,32.0,16.0,15.0,20.0,3.0,-22.0,-32.0,0.0
-26.0,-6.0,175.0,13.0,20.0,13.0,14.0,3.0,-27.0,-44.0,0.0
-19.0,-14.0,64.0,3.0,11.0,3.0,0.0,3.0,-24.0,-37.0,0.0
-16.0,-19.0,-88.0,16.0,4.0,-11.0,8.0,-2.0,-16.0,-28.0,0.0
-27.0,-21.0,-224.0,13.0,0.0,0.0,24.0,-4.0,-21.0,-26.0,0.0
-29.0,-18.0,-235.0,4.0,-10.0,-1.0,18.0,4.0,-30.0,-10.0,0.0
-4.0,-18.0,-249.0,-6.0,-15.0,-4.0,30.0,18.0,-13.0,0.0,0.0
10.0,-29.0,-271.0,-18.0,-19.0,-12.0,14.0,20.0,-9.0,6.0,0.0
9.0,-36.0,-258.0,-14.0,-16.0,-13.0,-9.0,12.0,-13.0,13.0,0.0
18.0,-27.0,-220.0,-5.0,-17.0,-22.0,-14.0,8.0,4.0,31.0,0.0
24.0,-7.0,-141.0,-5.0,-33.0,-22.0,17.0,14.0,21.0,35.0,0.0
16.0,0.0,-35.0,-4.0,-28.0,-20.0,49.0,13.0,34.0,30.0,0.0
10.0,-4.0,48.0,-18.0,-16.0,-10.0,48.0,11.0,40.0,39.0,0.0
6.0,-14.0,113.0,-14.0,-5.0,-12.0,49.0,6.0,37.0,41.0,0.0
10.0,-1.0,125.0,0.0,4.0,-16.0,41.0,-12.0,30.0,40.0,0.0
8.0,9.0,101.0,10.0,9.0,-5.0,43.0,-21.0,13.0,35.0,0.0
7.0,15.0,152.0,3.0,7.0,-12.0,27.0,-8.0,9.0,42.0,0.0
10.0,20.0,211.0,-7.0,-4.0,-24.0,16.0,-3.0,35.0,43.0,0.0
4.0,12.0,148.0,-4.0,-3.0,-15.0,21.0,-7.0,12.0,20.0,0.0
-7.0,2.0,36.0,-1.0,2.0,-13.0,24.0,-12.0,-14.0,-3.0,0.0
-18.0,-2.0,-68.0,4.0,6.0,-12.0,17.0,-15.0,-20.0,-11.0,0.0
-22.0,5.0,-138.0,16.0,2.0,-17.0,0.0,-14.0,-17.0,-15.0,0.0
-25.0,8.0,-194.0,31.0,-6.0,-13.0,-2.0,-17.0,-17.0,-21.0,0.0
-22.0,14.0,-250.0,9.0,6.0,-1.0,-5.0,-15.0,-26.0,-25.0,0.0
10.0,36.0,-267.0,-4.0,15.0,-5.0,-12.0,-10.0,-31.0,-3.0,0.0
21.0,60.0,-248.0,-7.0,0.0,-7.0,-30.0,-24.0,-18.0,7.0,0.0
13.0,62.0,-210.0,-13.0,-20.0,-9.0,-31.0,-25.0,-4.0,-7.0,0.0
7.0,55.0,-135.0,-11.0,-31.0,-10.0,-25.0,-24.0,0.0,-26.0,0.0
-17.0,35.0,-86.0,-5.0,-14.0,-2.0,-13.0,-9.0,6.0,-45.0,0.0
-52.0,3.0,-16.0,3.0,0.0,7.0,-7.0,-10.0,-9.0,-68.0,0.0
-56.0,-12.0,78.0,1.0,5.0,7.0,-21.0,-10.0,-14.0,-56.0,0.0
-65.0,-31.0,70.0,3.0,19.0,11.0,-36.0,-2.0,-5.0,-54.0,0.0
-66.0,-55.0,78.0,-15.0,13.0,9.0,-31.0,-1.0,6.0,-51.0,0.0
-17.0,-43.0,116.0,-19.0,-2.0,-2.0,-19.0,3.0,19.0,12.0,0.0
7.0,-39.0,151.0,-26.0,-9.0,-18.0,-2.0,8.0,34.0,59.0,0.0
1.0,-41.0,116.0,-26.0,-11.0,-20.0,-26.0,9.0,37.0,76.0,0.0
17.0,-38.0,18.0,-19.0,-6.0,-13.0,-56.0,2.0,25.0,96.0,0.0
36.0,-27.0,-74.0,2.0,8.0,-12.0,-53.0,-6.0,23.0,122.0,0.0
46.0,-30.0,-201.0,23.0,17.0,-4.0,-48.0,-9.0,35.0,105.0,0.0
49.0,-13.0,-301.0,32.0,25.0,6.0,-35.0,-13.0,58.0,97.0,0.0
24.0,0.0,-284.0,31.0,60.0,25.0,-31.0,-19.0,36.0,74.0,0.0
10.0,-2.0,-229.0,23.0,74.0,27.0,-23.0,-31.0,15.0,44.0,0.0
9.0,-2.0,-189.0,28.0,64.0,33.0,2.0,-33.0,0.0,19.0,0.0
12.0,-6.0,-133.0,46.0,55.0,32.0,23.0,-17.0,-18.0,7.0,0.0
4.0,-12.0,-70.0,56.0,44.0,25.0,17.0,-11.0,-28.0,-6.0,0.0
4.0,-9.0,-7.0,59.0,62.0,30.0,14.0,-29.0,-33.0,-40.0,0.0
-5.0,-24.0,45.0,46.0,75.0,40.0,25.0,-34.0,-56.0,-62.0,0.0
-26.0,-34.0,116.0,24.0,42.0,38.0,47.0,-21.0,-62.0,-61.0,0.0
-11.0,-25.0,173.0,-13.0,-3.0,25.0,43.0,-13.0,-50.0,-34.0,0.0
20.0,-11.0,210.0,-35.0,-31.0,9.0,44.0,-10.0,-39.0,2.0,0.0
24.0,-13.0,230.0,-54.0,-66.0,-10.0,18.0,-3.0,-30.0,15.0,0.0
15.0,-8.0,195.0,-73.0,-90.0,-31.0,2.0,-13.0,-16.0,15.0,0.0
12.0,-13.0,78.0,-80.0,-89.0,-25.0,16.0,-17.0,-6.0,19.0,0.0
13.0,-5.0,-38.0,-58.0,-69.0,-22.0,8.0,-6.0,2.0,19.0,0.0
6.0,-14.0,-135.0,-61.0,-65.0,-20.0,-24.0,0.0,21.0,-2.0,0.0
-1.0,-10.0,-230.0,-54.0,-74.0,-13.0,-49.0,11.0,38.0,-21.0,0.0
0.0,-1.0,-300.0,-33.0,-69.0,-20.0,-47.0,29.0,36.0,-32.0,0.0
14.0,10.0,-302.0,-10.0,-42.0,-30.0,-51.0,13.0,12.0,-25.0,0.0
8.0,9.0,-280.0,-12.0,-25.0,-32.0,-57.0,10.0,3.0,-28.0,0.0
25.0,18.0,-236.0,-11.0,-21.0,-21.0,-58.0,5.0,7.0,-8.0,0.0
55.0,39.0,-144.0,-5.0,-16.0,-10.0,-52.0,-17.0,5.0,54.0,0.0
27.0,39.0,-126.0,-2.0,-15.0,-1.0,-35.0,-14.0,16.0,37.0,0.0
21.0,32.0,-97.0,-2.0,-16.0,4.0,-35.0,5.0,35.0,36.0,0.0
31.0,14.0,61.0,-6.0,-17.0,24.0,-34.0,13.0,34.0,41.0,0.0
7.0,-5.0,176.0,-11.0,-17.0,23.0,-9.0,9.0,15.0,9.0,0.0
-10.0,-16.0,243.0,-6.0,-16.0,20.0,28.0,9.0,-1.0,-21.0,0.0
-25.0,-20.0,269.0,-15.0,-11.0,17.0,42.0,2.0,-31.0,-39.0,0.0
-50.0,-16.0,239.0,-2.0,-8.0,21.0,29.0,-18.0,-83.0,-61.0,0.0
-63.0,-18.0,134.0,0.0,0.0,25.0,24.0,-24.0,-95.0,-74.0,0.0
-54.0,-22.0,-39.0,0.0,-4.0,16.0,20.0,-16.0,-54.0,-51.0,0.0
-42.0,-5.0,-151.0,2.0,-14.0,13.0,13.0,-6.0,-3.0,-17.0,0.0
-10.0,9.0,-198.0,-4.0,-16.0,13.0,14.0,-5.0,15.0,19.0,0.0
14.0,13.0,-199.0,-2.0,-11.0,9.0,31.0,3.0,22.0,38.0,0.0
4.0,-10.0,-237.0,-16.0,-4.0,8.0,37.0,-3.0,19.0,6.0,0.0
-29.0,-29.0,-267.0,-18.0,9.0,9.0,11.0,-1.0,0.0,-32.0,0.0
-53.0,-20.0,-249.0,4.0,8.0,12.0,-5.0,-6.0,-18.0,-46.0,0.0
-52.0,-18.0,-180.0,15.0,3.0,10.0,12.0,-14.0,-25.0,-61.0,0.0
-47.0,-19.0,-112.0,27.0,6.0,12.0,27.0,-13.0,-43.0,-74.0,0.0
-47.0,-1.0,-36.0,30.0,-3.0,16.0,24.0,-8.0,-60.0,-69.0,0.0
-74.0,7.0,12.0,27.0,-3.0,11.0,20.0,-2.0,-46.0,-68.0,0.0
-76.0,-2.0,65.0,23.0,4.0,4.0,13.0,9.0,-31.0,-52.0,0.0
-51.0,-30.0,183.0,23.0,9.0,0.0,2.0,-5.0,-21.0,-22.0,0.0
-20.0,-46.0,250.0,33.0,10.0,7.0,-5.0,-20.0,-17.0,5.0,0.0
18.0,-36.0,286.0,35.0,6.0,14.0,1.0,-12.0,0.0,31.0,0.0
48.0,-1.0,264.0,38.0,6.0,6.0,4.0,-3.0,19.0,69.0,0.0
46.0,7.0,155.0,55.0,7.0,3.0,-4.0,0.0,29.0,65.0,0.0
62.0,-8.0,28.0,38.0,14.0,0.0,-11.0,15.0,41.0,52.0,0.0
57.0,-10.0,-101.0,19.0,13.0,-14.0,-11.0,17.0,57.0,41.0,0.0
53.0,25.0,-183.0,27.0,2.0,-11.0,-3.0,22.0,67.0,48.0,0.0
61.0,51.0,-236.0,9.0,-9.0,-13.0,22.0,36.0,75.0,52.0,0.0
48.0,38.0,-283.0,-26.0,-14.0,-17.0,10.0,38.0,62.0,48.0,0.0
35.0,10.0,-281.0,-45.0,-14.0,-14.0,-8.0,20.0,37.0,44.0,0.0
17.0,-11.0,-252.0,-48.0,-16.0,0.0,-4.0,14.0,34.0,33.0,0.0
6.0,-27.0,-196.0,-48.0,-7.0,2.0,25.0,7.0,29.0,21.0,0.0
-8.0,-32.0,-117.0,-32.0,9.0,0.0,20.0,10.0,37.0,5.0,0.0
-18.0,-51.0,-25.0,-9.0,17.0,-10.0,24.0,1.0,15.0,0.0,0.0
3.0,-49.0,65.0,0.0,27.0,0.0,53.0,-3.0,-1.0,9.0,0.0
9.0,-40.0,102.0,-3.0,15.0,6.0,50.0,-11.0,-10.0,8.0,0.0
4.0,-23.0,124.0,-4.0,17.0,-1.0,65.0,-6.0,-19.0,-9.0,0.0
-10.0,-29.0,191.0,-8.0,17.0,0.0,42.0,-6.0,-31.0,-16.0,0.0
-14.0,-26.0,200.0,0.0,24.0,1.0,25.0,-1.0,-29.0,-21.0,0.0
0.0,-13.0,147.0,4.0,29.0,4.0,19.0,-1.0,-15.0,-18.0,0.0
-14.0,-21.0,52.0,-5.0,36.0,14.0,28.0,-9.0,-4.0,-29.0,0.0
-27.0,-23.0,-42.0,-8.0,39.0,18.0,33.0,-15.0,0.0,-48.0,0.0
-41.0,-17.0,-124.0,6.0,41.0,13.0,26.0,-14.0,3.0,-59.0,0.0
-62.0,-19.0,-242.0,15.0,58.0,12.0,54.0,-20.0,-4.0,-81.0,0.0
-68.0,-28.0,-284.0,13.0,65.0,10.0,79.0,-14.0,-19.0,-104.0,0.0
-62.0,-28.0,-324.0,17.0,58.0,2.0,73.0,-13.0,-27.0,-98.0,0.0
-36.0,-8.0,-294.0,9.0,51.0,1.0,57.0,-16.0,-38.0,-57.0,0.0
-16.0,2.0,-234.0,-1.0,24.0,-8.0,43.0,-15.0,-17.0,-16.0,0.0
-1.0,0.0,-157.0,-14.0,-20.0,-26.0,53.0,-12.0,3.0,1.0,0.0
12.0,-1.0,-63.0,-29.0,-62.0,-35.0,45.0,-3.0,19.0,-2.0,0.0
-11.0,-11.0,18.0,-14.0,-50.0,-29.0,24.0,-4.0,24.0,-21.0,0.0
-33.0,-16.0,87.0,0.0,-21.0,-21.0,12.0,-19.0,21.0,-51.0,0.0
-37.0,-12.0,167.0,-7.0,-11.0,-14.0,17.0,-25.0,36.0,-63.0,0.0
-31.0,-6.0,214.0,5.0,3.0,-13.0,13.0,-21.0,44.0,-38.0,0.0
-26.0,7.0,231.0,33.0,40.0,-1.0,-18.0,-27.0,27.0,-9.0,0.0
-12.0,4.0,212.0,45.0,56.0,9.0,-34.0,-37.0,-16.0,-10.0,0.0
-4.0,-1.0,142.0,41.0,59.0,19.0,-26.0,-42.0,-40.0,-28.0,0.0
-10.0,-3.0,27.0,23.0,55.0,20.0,-27.0,-48.0,-36.0,-51.0,0.0
-24.0,-28.0,-68.0,0.0,48.0,21.0,-13.0,-33.0,-47.0,-47.0,0.0
-44.0,-56.0,-139.0,-9.0,44.0,35.0,2.0,-15.0,-40.0,-44.0,0.0
-70.0,-58.0,-219.0,-8.0,65.0,61.0,8.0,-7.0,-32.0,-40.0,0.0
-63.0,-37.0,-276.0,-23.0,39.0,61.0,33.0,14.0,0.0,-13.0,0.0
-30.0,1.0,-286.0,-49.0,-28.0,39.0,43.0,36.0,27.0,19.0,0.0
6.0,35.0,-273.0,-48.0,-80.0,9.0,29.0,45.0,32.0,33.0,0.0
18.0,43.0,-194.0,-18.0,-72.0,-4.0,-6.0,31.0,23.0,41.0,0.0
-2.0,28.0,-118.0,11.0,-40.0,-11.0,-39.0,5.0,4.0,25.0,0.0
-21.0,23.0,-37.0,28.0,-28.0,-18.0,-55.0,5.0,1.0,3.0,0.0
15.0,25.0,58.0,36.0,-32.0,-25.0,-70.0,1.0,-5.0,10.0,0.0
74.0,14.0,168.0,28.0,-33.0,-38.0,-89.0,-23.0,-24.0,56.0,0.0
93.0,19.0,244.0,9.0,-33.0,-36.0,-84.0,-20.0,-35.0,104.0,0.0
75.0,27.0,269.0,0.0,-24.0,-26.0,-76.0,-14.0,-41.0,95.0,0.0
43.0,5.0,236.0,-6.0,-7.0,-7.0,-70.0,-4.0,-36.0,53.0,0.0
-1.0,-13.0,181.0,-5.0,6.0,13.0,-69.0,-5.0,-50.0,-1.0,0.0
6.0,0.0,89.0,-1.0,12.0,13.0,-69.0,-12.0,-42.0,-4.0,0.0
73.0,11.0,22.0,2.0,13.0,5.0,-43.0,-13.0,-11.0,59.0,0.0
99.0,11.0,-50.0,1.0,2.0,5.0,9.0,11.0,32.0,88.0,0.0
82.0,15.0,-116.0,21.0,-3.0,4.0,7.0,26.0,45.0,73.0,0.0
66.0,21.0,-165.0,33.0,-19.0,-12.0,-7.0,34.0,35.0,62.0,0.0
60.0,19.0,-180.0,23.0,-39.0,-31.0,-5.0,22.0,36.0,56.0,0.0
57.0,26.0,-188.0,40.0,-36.0,-36.0,2.0,19.0,61.0,58.0,0.0
47.0,27.0,-187.0,41.0,-27.0,-22.0,-3.0,29.0,65.0,49.0,0.0
23.0,26.0,-157.0,24.0,-11.0,-5.0,-6.0,29.0,74.0,34.0,0.0
3.0,28.0,-96.0,24.0,-6.0,-2.0,7.0,20.0,67.0,6.0,0.0
0.0,8.0,-13.0,2.0,-19.0,0.0,16.0,15.0,78.0,2.0,0.0
14.0,-2.0,77.0,-10.0,-18.0,9.0,7.0,9.0,84.0,33.0,0.0
19.0,12.0,130.0,-11.0,-7.0,11.0,4.0,3.0,62.0,56.0,0.0
17.0,23.0,174.0,-19.0,-5.0,11.0,5.0,15.0,50.0,30.0,0.0
5.0,9.0,235.0,-34.0,-1.0,12.0,-9.0,22.0,9.0,-7.0,0.0
-17.0,0.0,220.0,-19.0,0.0,23.0,0.0,13.0,-32.0,-36.0,0.0
-38.0,0.0,157.0,-8.0,3.0,41.0,14.0,16.0,-42.0,-60.0,0.0
-47.0,-7.0,60.0,10.0,15.0,31.0,15.0,19.0,-46.0,-84.0,0.0
-33.0,-7.0,-52.0,15.0,22.0,23.0,-12.0,5.0,-39.0,-66.0,0.0
-6.0,0.0,-136.0,23.0,50.0,15.0,-11.0,-11.0,-36.0,-37.0,0.0
-24.0,1.0,-220.0,25.0,61.0,23.0,-6.0,-10.0,-35.0,-54.0,0.0
-50.0,-4.0,-256.0,34.0,67.0,24.0,-9.0,-9.0,-32.0,-72.0,0.0
-43.0,-14.0,-287.0,43.0,61.0,27.0,-33.0,-4.0,-42.0,-59.0,0.0
-25.0,-16.0,-264.0,51.0,67.0,16.0,-71.0,-18.0,-59.0,-28.0,0.0
-34.0,-22.0,-210.0,54.0,63.0,19.0,-62.0,-31.0,-66.0,-32.0,0.0
-41.0,-14.0,-149.0,58.0,55.0,24.0,-48.0,-33.0,-63.0,-30.0,0.0
-10.0,-8.0,-58.0,55.0,46.0,25.0,-37.0,-18.0,-37.0,-8.0,0.0
5.0,5.0,50.0,49.0,11.0,20.0,0.0,0.0,-13.0,19.0,0.0
2.0,21.0,145.0,26.0,-16.0,7.0,20.0,13.0,13.0,29.0,0.0
25.0,41.0,219.0,-4.0,-52.0,-12.0,-12.0,27.0,18.0,35.0,0.0
36.0,49.0,268.0,-22.0,-62.0,-20.0,-29.0,17.0,15.0,36.0,0.0
43.0,56.0,310.0,-37.0,-52.0,-25.0,-7.0,8.0,22.0,32.0,0.0
54.0,60.0,284.0,-37.0,-45.0,-22.0,23.0,9.0,22.0,19.0,0.0
31.0,43.0,168.0,-27.0,-29.0,-7.0,25.0,3.0,2.0,-1.0,0.0
14.0,33.0,45.0,-23.0,-22.0,-10.0,-7.0,0.0,-28.0,-5.0,0.0
9.0,17.0,-48.0,-5.0,-23.0,-8.0,-36.0,5.0,-43.0,-15.0,0.0
4.0,18.0,-133.0,-6.0,-23.0,-2.0,-33.0,2.0,-50.0,-31.0,0.0
-3.0,25.0,-206.0,-11.0,-20.0,-4.0,-19.0,-5.0,-41.0,-25.0,0.0
18.0,37.0,-229.0,-3.0,-22.0,-4.0,-14.0,-23.0,-16.0,0.0,0.0
44.0,55.0,-233.0,-12.0,-19.0,-5.0,-16.0,-24.0,11.0,19.0,0.0
51.0,49.0,-211.0,-18.0,-18.0,-21.0,-26.0,-16.0,22.0,14.0,0.0
30.0,33.0,-155.0,-13.0,-2.0,-13.0,-32.0,1.0,26.0,0.0,0.0
26.0,27.0,-75.0,-6.0,1.0,-9.0,-31.0,2.0,32.0,-8.0,0.0
35.0,39.0,-31.0,-11.0,3.0,-10.0,-21.0,-3.0,34.0,-17.0,0.0
36.0,52.0,21.0,-7.0,-4.0,-14.0,-20.0,-6.0,31.0,-5.0,0.0
33.0,52.0,157.0,4.0,-8.0,-1.0,-23.0,-13.0,16.0,0.0,0.0
25.0,54.0,245.0,10.0,5.0,8.0,-16.0,-15.0,3.0,-20.0,0.0
23.0,52.0,287.0,19.0,5.0,8.0,-14.0,-1.0,-12.0,-43.0,0.0
17.0,47.0,250.0,15.0,3.0,17.0,-8.0,9.0,-23.0,-33.0,0.0
-1.0,27.0,178.0,4.0,-4.0,16.0,-7.0,23.0,-15.0,-11.0,0.0
-15.0,5.0,73.0,-12.0,-6.0,19.0,3.0,28.0,-13.0,-4.0,0.0
-6.0,-6.0,-10.0,-12.0,0.0,16.0,13.0,30.0,-12.0,11.0,0.0
14.0,8.0,-64.0,-1.0,2.0,1.0,6.0,22.0,-14.0,50.0,0.0
24.0,16.0,-191.0,9.0,2.0,1.0,-9.0,8.0,-17.0,81.0,0.0
19.0,15.0,-246.0,14.0,3.0,-2.0,-8.0,13.0,-15.0,79.0,0.0
-6.0,-6.0,-224.0,16.0,10.0,0.0,2.0,8.0,-8.0,58.0,0.0
-23.0,-34.0,-239.0,16.0,14.0,-1.0,34.0,10.0,-11.0,30.0,0.0
-12.0,-29.0,-201.0,19.0,9.0,-6.0,37.0,13.0,-6.0,23.0,0.0
-11.0,-18.0,-113.0,3.0,25.0,-12.0,0.0,0.0,-15.0,6.0,0.0
-25.0,-18.0,-42.0,-7.0,34.0,-7.0,-3.0,0.0,-18.0,-26.0,0.0
-29.0,-28.0,33.0,-23.0,42.0,-5.0,-7.0,0.0,-11.0,-31.0,0.0
-27.0,-32.0,104.0,-38.0,31.0,-5.0,-4.0,-1.0,-1.0,-27.0,0.0
-38.0,-21.0,183.0,-50.0,17.0,-21.0,13.0,6.0,23.0,-35.0,0.0
-52.0,-10.0,221.0,-33.0,8.0,-27.0,10.0,15.0,47.0,-50.0,0.0
-63.0,-13.0,246.0,-29.0,12.0,-22.0,10.0,13.0,34.0,-37.0,0.0
-54.0,-25.0,237.0,-15.0,27.0,-1.0,12.0,5.0,-4.0,-29.0,0.0
-47.0,-29.0,118.0,-2.0,47.0,5.0,16.0,6.0,-12.0,-29.0,0.0
-30.0,-12.0,-42.0,-15.0,39.0,-8.0,12.0,13.0,0.0,-3.0,0.0
14.0,11.0,-101.0,-16.0,21.0,-19.0,-9.0,8.0,7.0,48.0,0.0
51.0,22.0,-102.0,0.0,11.0,-11.0,-16.0,-3.0,1.0,66.0,0.0
42.0,12.0,-173.0,0.0,5.0,-10.0,-17.0,-5.0,-16.0,28.0,0.0
6.0,-1.0,-287.0,-6.0,12.0,-8.0,-15.0,-3.0,-20.0,-6.0,0.0
-3.0,-11.0,-277.0,-13.0,26.0,0.0,-7.0,15.0,-16.0,-10.0,0.0
-29.0,-29.0,-175.0,-13.0,21.0,8.0,9.0,11.0,-18.0,-8.0,0.0
-31.0,-26.0,-100.0,-12.0,9.0,9.0,2.0,-1.0,-14.0,10.0,0.0
0.0,-3.0,-24.0,0.0,19.0,0.0,-13.0,4.0,4.0,32.0,0.0
12.0,13.0,53.0,0.0,7.0,-10.0,-15.0,10.0,22.0,56.0,0.0
14.0,11.0,122.0,-10.0,-2.0,-11.0,-10.0,3.0,34.0,62.0,0.0
-6.0,1.0,177.0,-17.0,-6.0,5.0,-19.0,3.0,40.0,60.0,0.0
-20.0,5.0,207.0,0.0,-3.0,1.0,-1.0,10.0,36.0,48.0,0.0
-29.0,10.0,245.0,0.0,5.0,0.0,42.0,25.0,51.0,37.0,0.0
-27.0,20.0,264.0,-5.0,11.0,1.0,40.0,19.0,63.0,40.0,0.0
-38.0,20.0,238.0,-10.0,10.0,-2.0,33.0,15.0,62.0,31.0,0.0
-43.0,21.0,127.0,1.0,3.0,-14.0,59.0,18.0,66.0,4.0,0.0
-32.0,14.0,23.0,14.0,8.0,-3.0,78.0,9.0,39.0,-20.0,0.0
-33.0,0.0,-52.0,22.0,8.0,14.0,89.0,5.0,9.0,-56.0,0.0
-34.0,-18.0,-133.0,19.0,6.0,19.0,80.0,8.0,-25.0,-70.0,0.0
-36.0,-32.0,-210.0,12.0,23.0,23.0,77.0,5.0,-52.0,-64.0,0.0
-35.0,-14.0,-244.0,20.0,22.0,28.0,67.0,12.0,-80.0,-48.0,0.0
-21.0,-3.0,-231.0,25.0,12.0,36.0,67.0,7.0,-97.0,-46.0,0.0
-32.0,-4.0,-197.0,20.0,8.0,32.0,63.0,10.0,-78.0,-34.0,0.0
-64.0,-24.0,-131.0,16.0,-1.0,17.0,63.0,14.0,-61.0,-57.0,0.0
-58.0,-35.0,-58.0,14.0,-10.0,12.0,50.0,15.0,-39.0,-80.0,0.0
-50.0,-31.0,17.0,16.0,-9.0,19.0,23.0,13.0,-20.0,-68.0,0.0
-38.0,-25.0,90.0,3.0,-5.0,18.0,10.0,5.0,-15.0,-65.0,0.0
-7.0,-8.0,170.0,-5.0,-7.0,13.0,0.0,-2.0,-9.0,-46.0,0.0
17.0,5.0,234.0,-11.0,-3.0,6.0,-19.0,-17.0,-6.0,-2.0,0.0
16.0,13.0,227.0,-13.0,1.0,-1.0,-15.0,-21.0,-9.0,2.0,0.0
12.0,0.0,234.0,-13.0,-1.0,-3.0,-13.0,-19.0,-1.0,-13.0,0.0
-28.0,-24.0,157.0,-21.0,-12.0,-6.0,-9.0,-11.0,-9.0,-30.0,0.0
-39.0,-44.0,43.0,-18.0,0.0,-7.0,34.0,-5.0,-11.0,-45.0,0.0
-14.0,-25.0,-61.0,-10.0,15.0,0.0,37.0,-10.0,-3.0,-20.0,0.0
6.0,-1.0,-141.0,-2.0,7.0,12.0,24.0,-23.0,4.0,30.0,0.0
-7.0,7.0,-187.0,9.0,9.0,12.0,14.0,-13.0,37.0,33.0,0.0
-32.0,-8.0,-248.0,0.0,19.0,6.0,9.0,-10.0,63.0,-10.0,0.0
-28.0,-21.0,-304.0,-22.0,17.0,14.0,31.0,-10.0,57.0,-39.0,0.0
1.0,-13.0,-239.0,-23.0,4.0,0.0,27.0,-18.0,51.0,-15.0,0.0
37.0,4.0,-155.0,-23.0,-2.0,-7.0,37.0,-16.0,55.0,21.0,0.0
37.0,10.0,-76.0,-18.0,11.0,4.0,24.0,-17.0,42.0,-1.0,0.0
14.0,-7.0,-16.0,-2.0,16.0,22.0,11.0,-18.0,21.0,-26.0,0.0
-3.0,-35.0,51.0,-5.0,23.0,27.0,13.0,-20.0,-5.0,-25.0,0.0
-4.0,-44.0,143.0,-21.0,24.0,23.0,29.0,-6.0,0.0,0.0,0.0
-13.0,-50.0,232.0,-31.0,10.0,18.0,11.0,21.0,39.0,16.0,0.0
-5.0,-42.0,278.0,-24.0,-2.0,12.0,30.0,21.0,38.0,32.0,0.0
12.0,-27.0,294.0,-23.0,-7.0,12.0,13.0,4.0,34.0,40.0,0.0
28.0,-12.0,270.0,-12.0,-5.0,13.0,17.0,-4.0,61.0,48.0,0.0
33.0,9.0,178.0,-4.0,-9.0,14.0,23.0,7.0,50.0,55.0,0.0
34.0,12.0,71.0,2.0,-10.0,14.0,27.0,15.0,35.0,46.0,0.0
31.0,23.0,-25.0,2.0,-12.0,7.0,9.0,13.0,21.0,29.0,0.0
36.0,34.0,-106.0,1.0,-8.0,-4.0,4.0,12.0,29.0,10.0,0.0
30.0,39.0,-180.0,-2.0,-7.0,3.0,-16.0,13.0,38.0,7.0,0.0
15.0,53.0,-220.0,-1.0,-17.0,-1.0,-1.0,8.0,32.0,-4.0,0.0
-5.0,38.0,-257.0,9.0,-3.0,-2.0,0.0,6.0,26.0,-19.0,0.0
-18.0,16.0,-243.0,19.0,8.0,9.0,6.0,16.0,11.0,-27.0,0.0
-26.0,2.0,-167.0,25.0,-5.0,21.0,7.0,13.0,2.0,-31.0,0.0
-24.0,-10.0,-86.0,34.0,-9.0,15.0,-5.0,10.0,-1.0,-38.0,0.0
-1.0,-14.0,4.0,21.0,-4.0,-7.0,-25.0,6.0,-11.0,-34.0,0.0
-2.0,-21.0,78.0,7.0,-3.0,-12.0,-40.0,-4.0,-17.0,-40.0,0.0
9.0,-20.0,152.0,7.0,-6.0,0.0,-4.0,-4.0,-18.0,-27.0,0.0
0.0,-22.0,182.0,10.0,-8.0,-3.0,5.0,-12.0,-23.0,-19.0,0.0
-10.0,-28.0,181.0,6.0,-17.0,-18.0,-2.0,-7.0,-22.0,-26.0,0.0
-8.0,-16.0,127.0,4.0,-13.0,-20.0,10.0,3.0,-12.0,-35.0,0.0
-27.0,-5.0,90.0,3.0,-6.0,-8.0,-17.0,9.0,-15.0,-42.0,0.0
-35.0,-4.0,75.0,11.0,-16.0,3.0,-16.0,5.0,-5.0,-40.0,0.0
-4.0,3.0,15.0,25.0,-18.0,-2.0,-16.0,-9.0,-2.0,-8.0,0.0
32.0,15.0,-62.0,24.0,-15.0,2.0,-37.0,-11.0,-3.0,42.0,0.0
27.0,6.0,-123.0,26.0,-9.0,5.0,-31.0,-8.0,6.0,59.0,0.0
15.0,-8.0,-195.0,20.0,-3.0,-6.0,-23.0,-5.0,3.0,44.0,0.0
6.0,-7.0,-234.0,10.0,-13.0,-18.0,-37.0,-9.0,-2.0,44.0,0.0
11.0,-3.0,-268.0,17.0,-15.0,-17.0,-40.0,-10.0,-16.0,43.0,0.0
26.0,15.0,-202.0,18.0,-18.0,-14.0,-27.0,-7.0,-11.0,27.0,0.0
17.0,11.0,-102.0,17.0,-13.0,-6.0,-18.0,-5.0,-3.0,0.0,0.0
7.0,1.0,-52.0,2.0,-13.0,8.0,-35.0,-4.0,-14.0,-14.0,0.0
10.0,-11.0,-28.0,-5.0,-17.0,5.0,-43.0,-7.0,-20.0,-21.0,0.0
0.0,-7.0,81.0,-6.0,-22.0,-11.0,-14.0,-18.0,-26.0,-26.0,0.0
-9.0,-3.0,193.0,-5.0,-25.0,-13.0,14.0,-13.0,-14.0,-26.0,0.0
-11.0,-1.0,235.0,2.0,-20.0,-13.0,16.0,0.0,11.0,-18.0,0.0
-9.0,-6.0,298.0,-4.0,-16.0,-13.0,18.0,-1.0,35.0,-23.0,0.0
-9.0,-7.0,285.0,-8.0,-20.0,-13.0,4.0,-1.0,31.0,-21.0,0.0
-2.0,-3.0,220.0,-14.0,-18.0,-17.0,10.0,-2.0,20.0,7.0,0.0
27.0,2.0,139.0,-7.0,-17.0,-23.0,-2.0,2.0,25.0,54.0,0.0
28.0,3.0,59.0,-7.0,-10.0,-22.0,-37.0,4.0,33.0,61.0,0.0
9.0,13.0,-16.0,-4.0,-1.0,-13.0,-17.0,-4.0,32.0,54.0,0.0
8.0,21.0,-95.0,7.0,5.0,-7.0,20.0,-10.0,10.0,41.0,0.0
-6.0,23.0,-154.0,27.0,18.0,0.0,17.0,-9.0,-4.0,20.0,0.0
-15.0,22.0,-175.0,31.0,17.0,-2.0,20.0,-10.0,-2.0,-10.0,0.0
-15.0,19.0,-157.0,16.0,2.0,-7.0,23.0,-1.0,-12.0,-9.0,0.0
-29.0,14.0,-126.0,0.0,-9.0,-9.0,23.0,10.0,-13.0,-29.0,0.0
-53.0,8.0,-71.0,-4.0,-7.0,-5.0,18.0,2.0,-23.0,-59.0,0.0
-43.0,21.0,24.0,4.0,-5.0,0.0,4.0,-4.0,-23.0,-54.0,0.0
-18.0,21.0,116.0,3.0,-5.0,-4.0,6.0,-11.0,-7.0,-47.0,0.0
-23.0,15.0,197.0,-3.0,-23.0,-8.0,-13.0,-13.0,-1.0,-64.0,0.0
9.0,4.0,282.0,-3.0,-40.0,-22.0,-27.0,-10.0,2.0,-5.0,0.0
19.0,-12.0,317.0,0.0,-31.0,-23.0,-21.0,-1.0,11.0,48.0,0.0
4.0,-24.0,309.0,-1.0,-25.0,-15.0,-38.0,-3.0,14.0,31.0,0.0
-20.0,-34.0,250.0,-19.0,-23.0,-16.0,-54.0,0.0,29.0,11.0,0.0
-33.0,-32.0,155.0,-14.0,-21.0,-13.0,-55.0,0.0,53.0,4.0,0.0
-35.0,-22.0,50.0,-18.0,-11.0,-20.0,-55.0,-1.0,62.0,5.0,0.0
-48.0,-33.0,-84.0,-14.0,-2.0,-15.0,-52.0,0.0,55.0,-5.0,0.0
-35.0,-31.0,-139.0,-20.0,-6.0,-5.0,-16.0,-1.0,37.0,7.0,0.0
8.0,-4.0,-200.0,-5.0,1.0,-12.0,4.0,-20.0,20.0,37.0,0.0
19.0,13.0,-213.0,0.0,5.0,-6.0,-12.0,-15.0,17.0,29.0,0.0
15.0,18.0,-207.0,9.0,-3.0,4.0,0.0,-3.0,14.0,12.0,0.0
20.0,16.0,-174.0,15.0,-6.0,7.0,12.0,3.0,11.0,-3.0,0.0
17.0,11.0,-110.0,11.0,-4.0,8.0,7.0,11.0,0.0,-11.0,0.0
7.0,4.0,-77.0,16.0,-2.0,5.0,-10.0,0.0,-3.0,-24.0,0.0
-3.0,-1.0,9.0,12.0,3.0,9.0,4.0,-3.0,-6.0,-43.0,0.0
-10.0,-6.0,88.0,12.0,9.0,-2.0,7.0,-6.0,-3.0,-33.0,0.0
-7.0,-23.0,156.0,9.0,1.0,-11.0,21.0,-13.0,0.0,-37.0,0.0
8.0,-25.0,172.0,10.0,1.0,-14.0,14.0,-21.0,-10.0,-15.0,0.0
11.0,-15.0,195.0,5.0,9.0,-2.0,-3.0,-18.0,-7.0,-11.0,0.0
-12.0,-31.0,212.0,-10.0,4.0,-5.0,-2.0,-8.0,-18.0,-42.0,0.0
-35.0,-38.0,208.0,-8.0,-1.0,-14.0,13.0,-11.0,-48.0,-62.0,0.0
-45.0,-27.0,130.0,-13.0,-9.0,-5.0,0.0,-13.0,-66.0,-68.0,0.0
-55.0,-28.0,34.0,-19.0,1.0,-2.0,0.0,-12.0,-70.0,-73.0,0.0
-40.0,-10.0,-61.0,-20.0,8.0,-6.0,13.0,-26.0,-55.0,-46.0,0.0
10.0,23.0,-110.0,-17.0,4.0,-14.0,-5.0,-35.0,-17.0,32.0,0.0
49.0,25.0,-158.0,-12.0,0.0,-26.0,-38.0,-35.0,20.0,81.0,0.0
45.0,4.0,-184.0,-13.0,6.0,-34.0,-29.0,-19.0,56.0,73.0,0.0
34.0,4.0,-176.0,1.0,20.0,-33.0,11.0,-21.0,71.0,53.0,0.0
23.0,9.0,-137.0,6.0,19.0,-22.0,11.0,-23.0,56.0,36.0,0.0
14.0,13.0,-69.0,1.0,6.0,-29.0,9.0,-9.0,52.0,18.0,0.0
5.0,1.0,12.0,5.0,8.0,-24.0,26.0,-3.0,21.0,7.0,0.0
-16.0,-19.0,85.0,9.0,24.0,-5.0,26.0,4.0,-24.0,10.0,0.0
-10.0,-5.0,153.0,-3.0,19.0,0.0,9.0,7.0,-33.0,2.0,0.0
18.0,1.0,236.0,-19.0,15.0,0.0,-19.0,-4.0,-19.0,1.0,0.0
23.0,-1.0,289.0,-14.0,5.0,-11.0,-46.0,-13.0,-9.0,11.0,0.0
12.0,-3.0,302.0,-7.0,1.0,-15.0,-56.0,-7.0,-6.0,14.0,0.0
11.0,-6.0,249.0,15.0,5.0,-15.0,-55.0,-8.0,-11.0,22.0,0.0
30.0,0.0,159.0,20.0,1.0,-8.0,-54.0,-11.0,-7.0,38.0,0.0
42.0,4.0,60.0,18.0,5.0,-5.0,-48.0,-8.0,-10.0,30.0,0.0
23.0,-11.0,-35.0,19.0,13.0,-2.0,-48.0,-8.0,-23.0,13.0,0.0
10.0,-11.0,-163.0,14.0,9.0,9.0,-46.0,-4.0,-36.0,0.0,0.0
33.0,-19.0,-238.0,10.0,7.0,10.0,-32.0,-8.0,-27.0,-1.0,0.0
28.0,-15.0,-211.0,3.0,5.0,3.0,4.0,-9.0,-10.0,-1.0,0.0
5.0,-1.0,-214.0,6.0,6.0,7.0,25.0,-4.0,-10.0,2.0,0.0
8.0,17.0,-196.0,-1.0,20.0,4.0,11.0,-17.0,-6.0,0.0,0.0
21.0,42.0,-146.0,7.0,27.0,-2.0,21.0,-18.0,11.0,2.0,0.0
9.0,40.0,-83.0,19.0,24.0,1.0,25.0,-9.0,6.0,5.0,0.0
0.0,41.0,-20.0,31.0,19.0,-2.0,17.0,-6.0,-3.0,12.0,0.0
8.0,46.0,86.0,17.0,12.0,4.0,24.0,-20.0,-6.0,25.0,0.0
48.0,35.0,187.0,8.0,13.0,0.0,10.0,-31.0,0.0,60.0,0.0
58.0,8.0,249.0,13.0,10.0,7.0,3.0,-24.0,0.0,51.0,0.0
27.0,-17.0,273.0,4.0,0.0,21.0,26.0,-19.0,8.0,19.0,0.0
3.0,-30.0,265.0,-6.0,-15.0,22.0,32.0,-5.0,18.0,-2.0,0.0
-29.0,-41.0,236.0,-23.0,-24.0,24.0,28.0,5.0,5.0,-26.0,0.0
-51.0,-70.0,142.0,-32.0,-10.0,18.0,7.0,5.0,-4.0,-49.0,0.0
-31.0,-63.0,33.0,-27.0,-1.0,12.0,-13.0,-2.0,-12.0,-32.0,0.0
-2.0,-27.0,-32.0,-32.0,-4.0,8.0,-30.0,-13.0,4.0,3.0,0.0
11.0,-15.0,-120.0,-30.0,0.0,9.0,-45.0,-14.0,-11.0,12.0,0.0
38.0,2.0,-220.0,-15.0,-3.0,1.0,-49.0,-13.0,-4.0,27.0,0.0
32.0,-6.0,-234.0,-10.0,-3.0,-6.0,-51.0,-13.0,-1.0,22.0,0.0
27.0,-15.0,-182.0,5.0,3.0,-1.0,-50.0,-3.0,7.0,36.0,0.0
30.0,2.0,-155.0,6.0,-3.0,-10.0,-41.0,-12.0,10.0,71.0,0.0
28.0,9.0,-121.0,-1.0,3.0,-3.0,-28.0,-15.0,16.0,74.0,0.0
18.0,3.0,-58.0,-6.0,10.0,-7.0,-13.0,-13.0,10.0,49.0,0.0
33.0,15.0,28.0,-14.0,3.0,-10.0,-8.0,-19.0,1.0,59.0,0.0
51.0,17.0,114.0,-21.0,-10.0,-11.0,-3.0,-18.0,15.0,76.0,0.0
68.0,4.0,199.0,-34.0,-18.0,-15.0,-26.0,-14.0,13.0,59.0,0.0
76.0,-4.0,262.0,-35.0,-19.0,-21.0,-28.0,-20.0,-4.0,48.0,0.0
68.0,-4.0,307.0,-25.0,-16.0,-12.0,-16.0,-20.0,-5.0,47.0,0.0
53.0,-13.0,290.0,-27.0,-10.0,-5.0,-25.0,-24.0,-14.0,41.0,0.0
27.0,-35.0,206.0,-28.0,-12.0,-7.0,-44.0,-8.0,-19.0,29.0,0.0
10.0,-35.0,109.0,-24.0,-20.0,-24.0,-42.0,1.0,-21.0,24.0,0.0
13.0,-27.0,39.0,-9.0,-18.0,-21.0,-40.0,4.0,-11.0,18.0,0.0
6.0,-20.0,-51.0,-7.0,-19.0,-10.0,-17.0,5.0,-19.0,9.0,0.0
-8.0,-22.0,-164.0,5.0,-7.0,-7.0,7.0,13.0,-23.0,3.0,0.0
-21.0,-27.0,-188.0,15.0,-4.0,-2.0,-1.0,18.0,0.0,-2.0,0.0
-32.0,-30.0,-192.0,11.0,-7.0,7.0,14.0,15.0,27.0,-10.0,0.0
-33.0,-27.0,-167.0,12.0,0.0,1.0,15.0,11.0,53.0,-7.0,0.0
-35.0,-13.0,-119.0,21.0,-5.0,-13.0,6.0,13.0,68.0,-10.0,0.0
-33.0,-12.0,-51.0,20.0,-6.0,-18.0,38.0,11.0,60.0,-19.0,0.0
-30.0,-16.0,17.0,9.0,4.0,-8.0,53.0,13.0,36.0,-14.0,0.0
-25.0,4.0,94.0,16.0,3.0,-3.0,31.0,10.0,6.0,-15.0,0.0
-14.0,13.0,186.0,16.0,5.0,9.0,16.0,9.0,-13.0,-21.0,0.0
2.0,9.0,233.0,17.0,7.0,26.0,44.0,13.0,-22.0,-29.0,0.0
10.0,21.0,274.0,26.0,3.0,27.0,53.0,7.0,-34.0,-35.0,0.0
3.0,24.0,310.0,33.0,1.0,24.0,52.0,3.0,-42.0,-40.0,0.0
-21.0,4.0,227.0,27.0,-7.0,20.0,51.0,13.0,-62.0,-61.0,0.0
-54.0,-16.0,135.0,21.0,-15.0,16.0,48.0,25.0,-49.0,-79.0,0.0
-70.0,-27.0,35.0,11.0,-11.0,19.0,47.0,26.0,-17.0,-87.0,0.0
-80.0,-32.0,-67.0,2.0,0.0,20.0,28.0,28.0,3.0,-100.0,0.0
-83.0,-15.0,-132.0,-3.0,19.0,26.0,13.0,34.0,-11.0,-109.0,0.0
-45.0,0.0,-154.0,15.0,29.0,23.0,9.0,19.0,-25.0,-58.0,0.0
7.0,21.0,-169.0,24.0,34.0,14.0,14.0,-9.0,-29.0,26.0,0.0
47.0,45.0,-176.0,25.0,29.0,7.0,30.0,-5.0,-28.0,63.0,0.0
50.0,43.0,-174.0,19.0,23.0,0.0,33.0,6.0,-19.0,50.0,0.0
29.0,22.0,-125.0,8.0,16.0,-1.0,14.0,13.0,-17.0,36.0,0.0
27.0,16.0,-42.0,14.0,8.0,-7.0,-3.0,10.0,-9.0,17.0,0.0
33.0,25.0,50.0,16.0,5.0,-15.0,-6.0,-6.0,-15.0,16.0,0.0
28.0,27.0,135.0,17.0,9.0,-12.0,-11.0,-4.0,-22.0,18.0,0.0
14.0,0.0,207.0,27.0,11.0,-12.0,-17.0,-1.0,-37.0,2.0,0.0
-3.0,-12.0,240.0,12.0,0.0,-8.0,-2.0,0.0,-33.0,-19.0,0.0
-28.0,-22.0,243.0,4.0,-9.0,-7.0,12.0,0.0,-25.0,-31.0,0.0
-39.0,-38.0,232.0,-8.0,-24.0,-1.0,-9.0,0.0,-16.0,-35.0,0.0
-46.0,-27.0,165.0,-22.0,-40.0,-2.0,-15.0,0.0,-17.0,-35.0,0.0
-40.0,-13.0,46.0,-40.0,-49.0,-9.0,-4.0,0.0,2.0,-23.0,0.0
-16.0,-1.0,-30.0,-63.0,-36.0,-20.0,7.0,1.0,36.0,2.0,0.0
28.0,7.0,-82.0,-61.0,-23.0,-16.0,14.0,9.0,63.0,25.0,0.0
49.0,-16.0,-142.0,-43.0,-27.0,-7.0,17.0,13.0,94.0,52.0,0.0
47.0,-11.0,-223.0,-28.0,-22.0,-7.0,8.0,15.0,95.0,33.0,0.0
74.0,18.0,-222.0,-7.0,-17.0,-14.0,-7.0,16.0,72.0,33.0,0.0
76.0,29.0,-161.0,4.0,-12.0,-17.0,-6.0,16.0,47.0,40.0,0.0
67.0,20.0,-116.0,11.0,6.0,-6.0,-2.0,8.0,-7.0,27.0,0.0
47.0,7.0,-48.0,24.0,30.0,-3.0,-19.0,1.0,-52.0,7.0,0.0
32.0,17.0,39.0,18.0,39.0,-4.0,-37.0,-11.0,-79.0,-16.0,0.0
34.0,19.0,99.0,9.0,41.0,-18.0,-34.0,-17.0,-58.0,-7.0,0.0
25.0,5.0,178.0,-4.0,29.0,-19.0,-34.0,-27.0,-39.0,7.0,0.0
17.0,-2.0,263.0,-16.0,7.0,-16.0,-41.0,-28.0,-44.0,10.0,0.0
7.0,-5.0,306.0,-13.0,-2.0,-12.0,-40.0,-19.0,-43.0,16.0,0.0
-1.0,-15.0,297.0,-18.0,-2.0,-5.0,-26.0,3.0,-23.0,21.0,0.0
-16.0,-19.0,254.0,-17.0,0.0,0.0,-6.0,17.0,3.0,14.0,0.0
-27.0,-3.0,159.0,-4.0,-8.0,6.0,0.0,24.0,19.0,22.0,0.0
-8.0,7.0,55.0,-5.0,-23.0,15.0,-16.0,36.0,26.0,32.0,0.0
0.0,17.0,-34.0,-10.0,-24.0,7.0,-20.0,41.0,23.0,38.0,0.0
19.0,23.0,-121.0,-8.0,-31.0,-1.0,-8.0,48.0,26.0,42.0,0.0
33.0,7.0,-190.0,-7.0,-27.0,-12.0,3.0,48.0,29.0,48.0,0.0
24.0,0.0,-235.0,-7.0,-8.0,-9.0,5.0,38.0,25.0,44.0,0.0
28.0,0.0,-257.0,1.0,-6.0,-2.0,-11.0,30.0,14.0,30.0,0.0
24.0,2.0,-226.0,-2.0,-4.0,3.0,-21.0,27.0,1.0,5.0,0.0
16.0,-1.0,-150.0,-12.0,1.0,9.0,-30.0,22.0,-2.0,8.0,0.0
16.0,0.0,-92.0,-19.0,3.0,7.0,-23.0,18.0,1.0,12.0,0.0
19.0,12.0,-36.0,-23.0,8.0,15.0,-19.0,13.0,1.0,27.0,0.0
26.0,17.0,35.0,-5.0,2.0,9.0,7.0,0.0,-3.0,22.0,0.0
9.0,9.0,110.0,4.0,1.0,10.0,19.0,0.0,-20.0,11.0,0.0
-13.0,10.0,164.0,7.0,11.0,14.0,15.0,13.0,-14.0,0.0,0.0
-20.0,42.0,199.0,13.0,9.0,5.0,40.0,21.0,5.0,-4.0,0.0
-39.0,43.0,228.0,0.0,5.0,-1.0,45.0,18.0,-6.0,-5.0,0.0
24.0,4.0,-161.0,11.0,1.0,-17.0,-15.0,0.0,-31.0,-9.0,0.0
36.0,11.0,-224.0,12.0,10.0,-24.0,-15.0,-9.0,-36.0,16.0,0.0
33.0,14.0,-264.0,3.0,2.0,-29.0,-9.0,-3.0,-41.0,15.0,0.0
22.0,8.0,-276.0,-7.0,-16.0,-17.0,5.0,-2.0,-31.0,-5.0,0.0
13.0,5.0,-247.0,-14.0,-5.0,-21.0,7.0,4.0,-31.0,-21.0,0.0
14.0,20.0,-167.0,-25.0,1.0,-27.0,-10.0,16.0,-16.0,-20.0,0.0
1.0,20.0,-106.0,-21.0,-8.0,-36.0,-21.0,22.0,1.0,-17.0,0.0
-16.0,4.0,-96.0,-17.0,-18.0,-33.0,-24.0,19.0,11.0,-22.0,0.0
-27.0,0.0,-23.0,-18.0,-11.0,-34.0,-17.0,11.0,21.0,-24.0,0.0
-25.0,-3.0,125.0,-20.0,-5.0,-42.0,3.0,5.0,45.0,-21.0,0.0
-18.0,2.0,194.0,-22.0,0.0,-32.0,10.0,8.0,63.0,-18.0,0.0
-19.0,1.0,226.0,-16.0,3.0,-13.0,1.0,5.0,81.0,-10.0,0.0
-13.0,-14.0,233.0,-7.0,8.0,-2.0,0.0,1.0,87.0,2.0,0.0
-10.0,-15.0,137.0,5.0,11.0,4.0,9.0,-2.0,59.0,-1.0,0.0
-9.0,-8.0,-24.0,12.0,13.0,15.0,34.0,11.0,31.0,-7.0,0.0
-19.0,-12.0,-85.0,9.0,7.0,19.0,32.0,23.0,13.0,-22.0,0.0
-13.0,-21.0,-133.0,8.0,8.0,33.0,49.0,21.0,0.0,-15.0,0.0
-15.0,-18.0,-191.0,3.0,14.0,32.0,34.0,11.0,-24.0,-7.0,0.0
-22.0,-27.0,-245.0,7.0,15.0,14.0,14.0,-1.0,-20.0,-14.0,0.0
-17.0,-17.0,-228.0,15.0,23.0,18.0,29.0,-10.0,-37.0,-5.0,0.0
10.0,5.0,-186.0,23.0,33.0,27.0,20.0,-11.0,-55.0,1.0,0.0
15.0,17.0,-140.0,16.0,45.0,11.0,1.0,-8.0,-36.0,7.0,0.0
7.0,23.0,-66.0,20.0,46.0,3.0,12.0,-4.0,-20.0,13.0,0.0
4.0,10.0,-20.0,14.0,45.0,11.0,12.0,1.0,-12.0,-5.0,0.0
-23.0,8.0,37.0,14.0,42.0,21.0,3.0,-7.0,-14.0,-29.0,0.0
-11.0,4.0,112.0,19.0,31.0,15.0,21.0,-4.0,-11.0,-22.0,0.0
-2.0,0.0,151.0,21.0,19.0,11.0,35.0,-2.0,8.0,-24.0,0.0
-24.0,0.0,212.0,18.0,27.0,13.0,48.0,10.0,13.0,-43.0,0.0
-50.0,4.0,235.0,11.0,28.0,4.0,51.0,11.0,2.0,-49.0,0.0
-40.0,14.0,222.0,23.0,32.0,9.0,42.0,10.0,-26.0,-34.0,0.0
-35.0,5.0,142.0,41.0,33.0,21.0,57.0,8.0,-41.0,-36.0,0.0
-7.0,6.0,42.0,29.0,24.0,18.0,53.0,-6.0,-42.0,-5.0,0.0
8.0,18.0,-41.0,17.0,17.0,7.0,34.0,-8.0,-35.0,4.0,0.0
-12.0,18.0,-95.0,12.0,-5.0,5.0,11.0,-9.0,-29.0,-19.0,0.0
-21.0,11.0,-154.0,13.0,-11.0,-2.0,-4.0,-1.0,-23.0,-31.0,0.0
-16.0,19.0,-206.0,18.0,3.0,-6.0,-17.0,5.0,-21.0,-27.0,0.0
-22.0,20.0,-225.0,5.0,-4.0,-9.0,-25.0,14.0,-16.0,-34.0,0.0
-48.0,3.0,-221.0,4.0,-9.0,-8.0,-21.0,11.0,-4.0,-55.0,0.0
-56.0,12.0,-170.0,2.0,-14.0,3.0,-5.0,16.0,-9.0,-31.0,0.0
-7.0,26.0,-95.0,0.0,-25.0,-2.0,-19.0,6.0,-17.0,25.0,0.0
15.0,35.0,-13.0,14.0,-19.0,-1.0,-28.0,-1.0,-2.0,41.0,0.0
1.0,11.0,101.0,22.0,-19.0,0.0,-18.0,-3.0,-10.0,12.0,0.0
-10.0,-12.0,172.0,12.0,-25.0,1.0,0.0,-2.0,-24.0,-4.0,0.0
-1.0,-7.0,203.0,12.0,-25.0,3.0,26.0,2.0,-18.0,-11.0,0.0
14.0,0.0,247.0,15.0,-24.0,0.0,49.0,-1.0,-16.0,-5.0,0.0
19.0,1.0,262.0,8.0,-13.0,0.0,42.0,0.0,-11.0,-17.0,0.0
16.0,0.0,193.0,14.0,-6.0,3.0,44.0,-2.0,-5.0,-31.0,0.0
-2.0,-14.0,91.0,10.0,-2.0,11.0,34.0,4.0,-14.0,-32.0,0.0
-23.0,-21.0,-10.0,14.0,-9.0,9.0,23.0,6.0,-17.0,-19.0,0.0
17.0,-15.0,-112.0,19.0,-14.0,0.0,-6.0,4.0,-5.0,4.0,0.0
40.0,-22.0,-167.0,25.0,-21.0,1.0,-11.0,2.0,-12.0,13.0,0.0
33.0,-10.0,-296.0,22.0,-25.0,-3.0,4.0,2.0,-7.0,9.0,0.0
35.0,10.0,-348.0,26.0,-28.0,-6.0,13.0,-6.0,15.0,22.0,0.0
63.0,51.0,-274.0,32.0,-32.0,-4.0,41.0,-17.0,33.0,42.0,0.0
61.0,59.0,-178.0,21.0,-29.0,-5.0,41.0,-22.0,43.0,41.0,0.0
52.0,48.0,-117.0,7.0,-31.0,-6.0,31.0,-21.0,57.0,30.0,0.0
30.0,41.0,20.0,-4.0,-25.0,2.0,17.0,-16.0,66.0,19.0,0.0
15.0,30.0,96.0,-9.0,-24.0,6.0,5.0,-9.0,47.0,14.0,0.0
15.0,14.0,173.0,-5.0,-9.0,11.0,-1.0,-7.0,17.0,10.0,0.0
22.0,-10.0,251.0,2.0,0.0,21.0,11.0,-11.0,-12.0,15.0,0.0
8.0,-33.0,301.0,19.0,-4.0,18.0,4.0,-15.0,-35.0,24.0,0.0
-5.0,-32.0,293.0,20.0,-8.0,15.0,4.0,-17.0,-43.0,9.0,0.0
-18.0,-36.0,261.0,6.0,0.0,12.0,-4.0,-19.0,-25.0,-16.0,0.0
-20.0,-44.0,201.0,-16.0,-14.0,1.0,-12.0,-1.0,-9.0,-17.0,0.0
-40.0,-62.0,94.0,-24.0,-14.0,0.0,2.0,10.0,-11.0,-11.0,0.0
-54.0,-75.0,2.0,-15.0,-11.0,0.0,-8.0,-2.0,-20.0,13.0,0.0
-34.0,-42.0,-69.0,-9.0,-5.0,-3.0,-14.0,-13.0,-39.0,33.0,0.0
-26.0,-29.0,-154.0,-23.0,-7.0,-3.0,-3.0,-15.0,-37.0,46.0,0.0
-1.0,-7.0,-218.0,-20.0,-2.0,-15.0,-11.0,-14.0,-6.0,80.0,0.0
0.0,12.0,-214.0,-7.0,1.0,-17.0,-7.0,-2.0,24.0,88.0,0.0
-2.0,13.0,-168.0,-10.0,6.0,-15.0,-8.0,12.0,49.0,57.0,0.0
27.0,18.0,-97.0,-15.0,6.0,-13.0,-20.0,8.0,67.0,60.0,0.0
44.0,41.0,-26.0,-9.0,7.0,-13.0,-11.0,7.0,78.0,63.0,0.0
45.0,37.0,48.0,0.0,15.0,0.0,-10.0,8.0,87.0,47.0,0.0
43.0,28.0,125.0,0.0,16.0,19.0,-19.0,17.0,76.0,46.0,0.0
56.0,32.0,189.0,0.0,5.0,17.0,-19.0,28.0,48.0,53.0,0.0
57.0,28.0,250.0,-6.0,6.0,9.0,-3.0,30.0,27.0,34.0,0.0
20.0,4.0,277.0,-18.0,22.0,17.0,-20.0,31.0,-6.0,0.0,0.0
9.0,-13.0,267.0,-22.0,24.0,14.0,-26.0,26.0,-24.0,-17.0,0.0
11.0,-10.0,211.0,-13.0,9.0,8.0,-9.0,12.0,-19.0,-23.0,0.0
-6.0,-17.0,79.0,-18.0,8.0,13.0,-13.0,4.0,-35.0,-37.0,0.0
-22.0,-32.0,-40.0,-22.0,16.0,8.0,-12.0,4.0,-50.0,-42.0,0.0
-16.0,-38.0,-67.0,-9.0,16.0,-2.0,22.0,8.0,-47.0,-45.0,0.0
-10.0,-26.0,-143.0,-17.0,10.0,-5.0,33.0,5.0,-37.0,-34.0,0.0
-10.0,-32.0,-229.0,-22.0,1.0,-14.0,19.0,3.0,-30.0,-43.0,0.0
0.0,-19.0,-263.0,-21.0,7.0,-16.0,24.0,6.0,-15.0,-41.0,0.0
4.0,-10.0,-234.0,-23.0,19.0,-1.0,24.0,1.0,-1.0,-25.0,0.0
-17.0,-25.0,-204.0,-17.0,23.0,-3.0,0.0,7.0,9.0,-44.0,0.0
-33.0,-25.0,-153.0,-8.0,23.0,-5.0,-10.0,2.0,4.0,-63.0,0.0
-19.0,-21.0,-77.0,-2.0,19.0,1.0,0.0,1.0,-3.0,-52.0,0.0
0.0,-12.0,21.0,-3.0,24.0,-2.0,-6.0,4.0,1.0,-21.0,0.0
6.0,-8.0,109.0,-11.0,34.0,-5.0,-14.0,-2.0,-17.0,1.0,0.0
-4.0,-17.0,178.0,-20.0,28.0,13.0,21.0,-4.0,-42.0,-20.0,0.0
-17.0,-31.0,254.0,-21.0,9.0,16.0,63.0,-6.0,-36.0,-32.0,0.0
-24.0,-36.0,278.0,-22.0,2.0,5.0,71.0,7.0,-15.0,-25.0,0.0
-34.0,-33.0,266.0,-30.0,1.0,-2.0,61.0,5.0,-8.0,-16.0,0.0
-2.0,-15.0,201.0,-26.0,0.0,-14.0,53.0,-5.0,-8.0,23.0,0.0
29.0,0.0,127.0,-32.0,0.0,-16.0,50.0,-9.0,6.0,35.0,0.0
19.0,-4.0,43.0,-27.0,3.0,-17.0,33.0,-5.0,19.0,6.0,0.0
-6.0,-9.0,-46.0,-20.0,0.0,-9.0,2.0,-4.0,0.0,-5.0,0.0
-11.0,-8.0,-132.0,-9.0,-3.0,-8.0,0.0,-4.0,-4.0,9.0,0.0
12.0,0.0,-182.0,-6.0,4.0,-8.0,-9.0,-13.0,-13.0,48.0,0.0
18.0,4.0,-194.0,-2.0,8.0,-4.0,-12.0,-19.0,-10.0,48.0,0.0
9.0,-14.0,-184.0,-6.0,4.0,-3.0,-6.0,-15.0,-8.0,25.0,0.0
2.0,-12.0,-150.0,-5.0,4.0,-2.0,-19.0,5.0,-2.0,17.0,0.0
0.0,17.0,-66.0,3.0,3.0,-4.0,-1.0,14.0,8.0,27.0,0.0
-1.0,20.0,23.0,15.0,-4.0,-16.0,-5.0,5.0,21.0,35.0,0.0
-2.0,8.0,89.0,5.0,-14.0,-19.0,-8.0,0.0,10.0,28.0,0.0
-12.0,-4.0,120.0,-15.0,-18.0,-11.0,21.0,-1.0,-14.0,16.0,0.0
-12.0,-10.0,169.0,-13.0,-12.0,10.0,37.0,-8.0,-24.0,-3.0,0.0
-6.0,-16.0,261.0,-5.0,3.0,17.0,12.0,-6.0,-18.0,-30.0,0.0
3.0,-13.0,330.0,-11.0,8.0,3.0,0.0,0.0,-4.0,-31.0,0.0
0.0,-9.0,300.0,-12.0,4.0,-3.0,-13.0,8.0,13.0,-22.0,0.0
-7.0,-6.0,202.0,-2.0,13.0,2.0,-14.0,-6.0,14.0,-23.0,0.0
-9.0,7.0,129.0,10.0,22.0,3.0,-9.0,-13.0,24.0,-8.0,0.0
-22.0,5.0,17.0,5.0,11.0,1.0,-9.0,-5.0,15.0,-6.0,0.0
-29.0,5.0,-39.0,-1.0,-4.0,-2.0,-4.0,6.0,8.0,-19.0,0.0
-11.0,21.0,-97.0,-2.0,4.0,-2.0,-36.0,7.0,5.0,-33.0,0.0
27.0,22.0,-126.0,-11.0,14.0,-5.0,-52.0,16.0,2.0,-7.0,0.0
59.0,14.0,-123.0,-39.0,1.0,-8.0,-43.0,15.0,11.0,3.0,0.0
41.0,17.0,-112.0,-32.0,-13.0,-15.0,-44.0,16.0,1.0,-23.0,0.0
23.0,21.0,-83.0,-18.0,-9.0,-20.0,-49.0,7.0,-10.0,-9.0,0.0
38.0,48.0,-9.0,-6.0,4.0,-16.0,-53.0,-8.0,2.0,21.0,0.0
14.0,30.0,53.0,-3.0,0.0,1.0,-33.0,-12.0,14.0,6.0,0.0
-10.0,1.0,106.0,-12.0,-7.0,7.0,-18.0,-20.0,4.0,-13.0,0.0
-27.0,-16.0,185.0,-11.0,-4.0,12.0,-21.0,-16.0,-27.0,-20.0,0.0
-37.0,-9.0,255.0,-17.0,-4.0,12.0,-14.0,-10.0,-23.0,-4.0,0.0
-35.0,-2.0,294.0,-7.0,-15.0,11.0,14.0,-15.0,-22.0,-5.0,0.0
-42.0,-7.0,300.0,-8.0,-9.0,1.0,10.0,-12.0,-9.0,-23.0,0.0
-27.0,-4.0,249.0,-18.0,-6.0,0.0,12.0,-1.0,13.0,-27.0,0.0
-3.0,13.0,133.0,-7.0,-7.0,-1.0,7.0,6.0,21.0,0.0,0.0
8.0,11.0,40.0,7.0,-7.0,-2.0,-2.0,16.0,10.0,19.0,0.0
-2.0,0.0,-16.0,7.0,8.0,0.0,8.0,12.0,-3.0,2.0,0.0
5.0,9.0,-93.0,2.0,14.0,15.0,-10.0,0.0,-23.0,-19.0,0.0
-2.0,10.0,-152.0,1.0,16.0,18.0,-20.0,-8.0,-26.0,-37.0,0.0
-1.0,20.0,-188.0,11.0,25.0,15.0,-17.0,-14.0,-5.0,-37.0,0.0
0.0,28.0,-193.0,10.0,17.0,15.0,-22.0,-15.0,-6.0,-42.0,0.0
-6.0,24.0,-158.0,16.0,19.0,12.0,-36.0,-9.0,-28.0,-46.0,0.0
-9.0,20.0,-79.0,12.0,25.0,10.0,-32.0,3.0,-35.0,-36.0,0.0
15.0,24.0,28.0,14.0,7.0,-4.0,-11.0,1.0,-35.0,-13.0,0.0
36.0,40.0,123.0,20.0,0.0,0.0,-13.0,12.0,-15.0,8.0,0.0
22.0,29.0,176.0,-1.0,-6.0,-1.0,-32.0,14.0,-9.0,0.0,0.0
8.0,3.0,220.0,-9.0,-14.0,-10.0,-26.0,8.0,-13.0,-9.0,0.0
-8.0,-11.0,268.0,-9.0,-20.0,-13.0,-1.0,-3.0,-8.0,-18.0,0.0
-21.0,-23.0,282.0,-14.0,-27.0,-17.0,-7.0,-3.0,-6.0,-29.0,0.0
-40.0,-35.0,258.0,-14.0,-27.0,-24.0,-23.0,-14.0,-2.0,-31.0,0.0
-49.0,-49.0,180.0,-19.0,-26.0,-29.0,-20.0,-24.0,7.0,-22.0,0.0
-30.0,-52.0,74.0,-24.0,-34.0,-34.0,-9.0,-31.0,35.0,3.0,0.0
-8.0,-27.0,-17.0,-19.0,-27.0,-30.0,-13.0,-30.0,74.0,26.0,0.0
5.0,-12.0,-83.0,-18.0,-19.0,-26.0,1.0,-19.0,116.0,30.0,0.0
-7.0,-23.0,-178.0,-13.0,-10.0,-20.0,38.0,-10.0,118.0,8.0,0.0
-19.0,-17.0,-260.0,1.0,-6.0,-10.0,42.0,-14.0,77.0,-3.0,0.0
-23.0,-19.0,-286.0,4.0,-6.0,0.0,42.0,-12.0,36.0,-4.0,0.0
-13.0,-14.0,-257.0,16.0,8.0,24.0,34.0,-11.0,8.0,-8.0,0.0
4.0,0.0,-229.0,26.0,17.0,34.0,23.0,-3.0,-31.0,-1.0,0.0
1.0,-1.0,-142.0,31.0,22.0,40.0,37.0,-5.0,-55.0,-12.0,0.0
-29.0,-16.0,-76.0,22.0,29.0,32.0,45.0,-17.0,-59.0,-33.0,0.0
-28.0,-8.0,-44.0,18.0,24.0,22.0,32.0,-15.0,-40.0,-17.0,0.0
-15.0,-7.0,44.0,15.0,9.0,18.0,23.0,-8.0,3.0,9.0,0.0
-12.0,0.0,118.0,4.0,13.0,13.0,16.0,-1.0,16.0,0.0,0.0
-21.0,10.0,139.0,-1.0,20.0,6.0,11.0,0.0,0.0,-17.0,0.0
-39.0,-8.0,205.0,-4.0,16.0,0.0,10.0,7.0,-3.0,-25.0,0.0
-42.0,-17.0,218.0,-9.0,14.0,0.0,-18.0,5.0,-17.0,-30.0,0.0
-32.0,-1.0,146.0,-13.0,9.0,-1.0,-35.0,1.0,-13.0,-12.0,0.0
3.0,1.0,46.0,-20.0,9.0,-17.0,-37.0,2.0,-6.0,17.0,0.0
24.0,14.0,-60.0,-20.0,3.0,-29.0,-35.0,0.0,-2.0,30.0,0.0
14.0,26.0,-123.0,-6.0,14.0,-12.0,-48.0,0.0,-14.0,32.0,0.0
20.0,41.0,-190.0,5.0,10.0,-6.0,-59.0,-6.0,-26.0,25.0,0.0
12.0,43.0,-224.0,11.0,9.0,-7.0,-60.0,-2.0,-14.0,33.0,0.0
6.0,24.0,-240.0,26.0,9.0,-14.0,-51.0,-10.0,8.0,45.0,0.0
-1.0,11.0,-221.0,21.0,5.0,-15.0,-12.0,-15.0,26.0,39.0,0.0
0.0,19.0,-158.0,13.0,4.0,-19.0,9.0,-2.0,43.0,36.0,0.0
0.0,29.0,-79.0,14.0,3.0,-17.0,0.0,5.0,42.0,29.0,0.0
7.0,26.0,-12.0,9.0,3.0,-12.0,13.0,3.0,35.0,17.0,0.0
8.0,23.0,78.0,16.0,-4.0,-18.0,12.0,8.0,24.0,8.0,0.0
0.0,19.0,169.0,14.0,0.0,-15.0,14.0,9.0,17.0,1.0,0.0
-13.0,16.0,179.0,25.0,6.0,-8.0,30.0,8.0,6.0,-14.0,0.0
-40.0,8.0,170.0,44.0,21.0,0.0,27.0,6.0,0.0,-25.0,0.0
-62.0,-15.0,218.0,39.0,39.0,6.0,33.0,12.0,-17.0,-54.0,0.0
-43.0,-32.0,164.0,42.0,38.0,0.0,23.0,3.0,-24.0,-42.0,0.0
20.0,-29.0,76.0,42.0,28.0,-15.0,-4.0,-3.0,-22.0,28.0,0.0
41.0,-31.0,13.0,14.0,15.0,-20.0,-11.0,0.0,-26.0,52.0,0.0
-8.0,-44.0,-98.0,1.0,8.0,-13.0,-31.0,6.0,-19.0,18.0,0.0
-40.0,-51.0,-190.0,9.0,0.0,-16.0,-33.0,18.0,-17.0,-17.0,0.0
-14.0,-26.0,-239.0,1.0,-10.0,-17.0,-54.0,13.0,2.0,20.0,0.0
21.0,-2.0,-245.0,-4.0,-31.0,-10.0,-58.0,-4.0,5.0,42.0,0.0
23.0,-2.0,-237.0,-28.0,-57.0,-16.0,-19.0,0.0,9.0,23.0,0.0
17.0,4.0,-203.0,-37.0,-74.0,-2.0,25.0,13.0,29.0,14.0,0.0
17.0,28.0,-128.0,-29.0,-82.0,-11.0,35.0,15.0,32.0,8.0,0.0
23.0,43.0,-67.0,-24.0,-71.0,-18.0,32.0,10.0,32.0,0.0,0.0
16.0,48.0,-19.0,-12.0,-48.0,-6.0,22.0,11.0,26.0,-1.0,0.0
-2.0,37.0,89.0,-8.0,-46.0,-7.0,-7.0,5.0,25.0,-7.0,0.0
-18.0,36.0,203.0,0.0,-34.0,-15.0,-16.0,2.0,36.0,-18.0,0.0
-17.0,43.0,263.0,-6.0,-21.0,-19.0,-22.0,2.0,32.0,-29.0,0.0
-41.0,35.0,276.0,-12.0,-18.0,-10.0,-19.0,12.0,28.0,-55.0,0.0
-74.0,12.0,230.0,-17.0,-7.0,5.0,-11.0,18.0,17.0,-75.0,0.0
-69.0,11.0,147.0,-10.0,0.0,10.0,-2.0,13.0,6.0,-46.0,0.0
-8.0,50.0,76.0,-8.0,5.0,7.0,2.0,-6.0,-9.0,20.0,0.0
28.0,60.0,13.0,-20.0,3.0,10.0,3.0,-16.0,-33.0,28.0,0.0
47.0,50.0,-61.0,-28.0,4.0,14.0,22.0,-18.0,-30.0,20.0,0.0
61.0,35.0,-120.0,-16.0,8.0,8.0,21.0,-27.0,-23.0,37.0,0.0
30.0,9.0,-172.0,-4.0,13.0,3.0,15.0,-25.0,0.0,17.0,0.0
3.0,5.0,-184.0,3.0,19.0,1.0,23.0,-14.0,8.0,-1.0,0.0
-8.0,2.0,-172.0,7.0,25.0,1.0,21.0,-8.0,-5.0,-8.0,0.0
-15.0,-8.0,-140.0,11.0,25.0,5.0,18.0,-2.0,-11.0,-20.0,0.0
-17.0,-22.0,-76.0,12.0,14.0,13.0,8.0,-8.0,0.0,-16.0,0.0
-17.0,-30.0,2.0,7.0,3.0,13.0,10.0,-10.0,6.0,-7.0,0.0
-6.0,-24.0,85.0,-11.0,-9.0,5.0,19.0,-6.0,7.0,1.0,0.0
3.0,-28.0,172.0,-22.0,-26.0,1.0,9.0,-3.0,14.0,8.0,0.0
9.0,-18.0,253.0,-29.0,-25.0,-3.0,2.0,-5.0,0.0,20.0,0.0
8.0,-5.0,288.0,-9.0,-19.0,0.0,14.0,-8.0,-9.0,42.0,0.0
-3.0,-12.0,274.0,5.0,-16.0,1.0,-2.0,-8.0,-6.0,59.0,0.0
-2.0,-24.0,200.0,3.0,-21.0,-4.0,6.0,8.0,4.0,57.0,0.0
-3.0,-36.0,63.0,8.0,-14.0,-15.0,-3.0,20.0,18.0,47.0,0.0
-9.0,-51.0,-35.0,11.0,-9.0,-14.0,-21.0,18.0,39.0,38.0,0.0
-5.0,-53.0,-104.0,8.0,-5.0,-4.0,-22.0,10.0,70.0,30.0,0.0
-10.0,-47.0,-222.0,19.0,10.0,2.0,-1.0,7.0,55.0,14.0,0.0
-2.0,-36.0,-233.0,15.0,23.0,3.0,-2.0,7.0,17.0,2.0,0.0
6.0,-28.0,-236.0,14.0,23.0,0.0,1.0,9.0,-2.0,10.0,0.0
14.0,-18.0,-225.0,16.0,29.0,13.0,17.0,11.0,-15.0,2.0,0.0
14.0,-2.0,-214.0,0.0,34.0,15.0,7.0,-2.0,-14.0,-7.0,0.0
15.0,10.0,-140.0,-2.0,29.0,13.0,22.0,-2.0,-4.0,0.0,0.0
15.0,8.0,-107.0,3.0,30.0,14.0,12.0,5.0,-10.0,-4.0,0.0
23.0,4.0,-32.0,-5.0,34.0,14.0,-4.0,0.0,-27.0,-12.0,0.0
20.0,10.0,74.0,-4.0,29.0,7.0,2.0,-4.0,-28.0,-4.0,0.0
22.0,15.0,154.0,0.0,14.0,-3.0,0.0,0.0,-27.0,-3.0,0.0
24.0,29.0,227.0,2.0,10.0,-8.0,-7.0,3.0,-1.0,0.0,0.0
20.0,27.0,261.0,16.0,14.0,-7.0,-10.0,1.0,2.0,8.0,0.0
5.0,5.0,240.0,27.0,19.0,-5.0,-10.0,-15.0,-16.0,-10.0,0.0
-12.0,15.0,150.0,27.0,6.0,-2.0,-22.0,-21.0,-12.0,-35.0,0.0
-33.0,13.0,31.0,15.0,5.0,-11.0,-5.0,-27.0,-30.0,-50.0,0.0
-25.0,6.0,-70.0,9.0,12.0,-11.0,-4.0,-16.0,-11.0,-37.0,0.0
2.0,18.0,-155.0,0.0,-3.0,-17.0,-18.0,1.0,41.0,-4.0,0.0
28.0,40.0,-218.0,-10.0,-23.0,-20.0,-7.0,18.0,83.0,20.0,0.0
11.0,25.0,-277.0,-10.0,-24.0,-11.0,39.0,23.0,91.0,22.0,0.0
-11.0,12.0,-322.0,-16.0,-8.0,-5.0,47.0,27.0,95.0,1.0,0.0
-27.0,8.0,-285.0,-22.0,-14.0,-4.0,37.0,18.0,65.0,-10.0,0.0
-35.0,5.0,-220.0,-9.0,-17.0,8.0,-1.0,9.0,34.0,-13.0,0.0
-10.0,-18.0,-142.0,1.0,-17.0,19.0,8.0,3.0,-8.0,-3.0,0.0
20.0,-30.0,-61.0,2.0,-11.0,14.0,26.0,4.0,-41.0,-3.0,0.0
37.0,-18.0,2.0,2.0,-7.0,3.0,23.0,9.0,-34.0,18.0,0.0
27.0,2.0,10.0,-2.0,-9.0,14.0,40.0,14.0,-15.0,34.0,0.0
0.0,2.0,79.0,0.0,0.0,11.0,50.0,30.0,-13.0,39.0,0.0
-4.0,10.0,189.0,7.0,6.0,4.0,51.0,26.0,1.0,49.0,0.0
-8.0,1.0,219.0,1.0,13.0,4.0,54.0,16.0,-2.0,33.0,0.0
-15.0,-4.0,134.0,8.0,7.0,-7.0,34.0,13.0,0.0,20.0,0.0
-8.0,-12.0,45.0,1.0,6.0,-15.0,34.0,19.0,-5.0,24.0,0.0
-23.0,-6.0,7.0,0.0,13.0,-9.0,36.0,19.0,-15.0,8.0,0.0
-39.0,-8.0,-64.0,0.0,9.0,-4.0,28.0,7.0,-8.0,-6.0,0.0
-45.0,-14.0,-146.0,-1.0,2.0,1.0,28.0,8.0,11.0,-2.0,0.0
-23.0,-14.0,-190.0,-3.0,-1.0,-10.0,24.0,2.0,26.0,21.0,0.0
-16.0,-7.0,-238.0,-4.0,-4.0,-11.0,28.0,0.0,22.0,27.0,0.0
-16.0,8.0,-251.0,-3.0,9.0,-3.0,27.0,11.0,13.0,12.0,0.0
-8.0,17.0,-227.0,5.0,17.0,-5.0,29.0,11.0,14.0,4.0,0.0
-11.0,3.0,-157.0,18.0,10.0,-8.0,27.0,0.0,12.0,3.0,0.0
-21.0,-1.0,-76.0,21.0,-2.0,-9.0,13.0,-3.0,-4.0,-12.0,0.0
-10.0,0.0,21.0,14.0,-4.0,-6.0,9.0,-3.0,-15.0,-27.0,0.0
-9.0,0.0,78.0,-3.0,0.0,-11.0,8.0,-6.0,0.0,-34.0,0.0
-22.0,-19.0,73.0,-12.0,2.0,-12.0,0.0,-14.0,-12.0,-39.0,0.0
-39.0,-27.0,144.0,-15.0,-2.0,-5.0,-19.0,-16.0,-36.0,-48.0,0.0
-36.0,-19.0,196.0,-10.0,-7.0,-7.0,-12.0,0.0,-42.0,-31.0,0.0
-17.0,-14.0,221.0,4.0,1.0,1.0,-30.0,0.0,-29.0,-23.0,0.0
-20.0,-2.0,177.0,8.0,2.0,5.0,-52.0,-2.0,-15.0,-29.0,0.0
-31.0,7.0,77.0,13.0,-3.0,7.0,-27.0,-11.0,7.0,-36.0,0.0
-43.0,8.0,-10.0,13.0,-11.0,7.0,7.0,-4.0,26.0,-45.0,0.0
-35.0,7.0,-91.0,3.0,-8.0,0.0,29.0,-1.0,37.0,-46.0,0.0
-28.0,1.0,-183.0,5.0,-5.0,-1.0,18.0,4.0,41.0,-49.0,0.0
-32.0,-7.0,-295.0,1.0,-18.0,1.0,18.0,9.0,25.0,-57.0,0.0
-49.0,-26.0,-301.0,-3.0,-20.0,5.0,66.0,12.0,7.0,-67.0,0.0
-43.0,-34.0,-302.0,8.0,-16.0,17.0,81.0,10.0,-11.0,-41.0,0.0
1.0,12.0,-242.0,22.0,-12.0,20.0,69.0,2.0,-34.0,-5.0,0.0
10.0,36.0,-142.0,24.0,-16.0,16.0,66.0,-4.0,-24.0,1.0,0.0
-15.0,4.0,-61.0,15.0,-24.0,-2.0,59.0,0.0,-20.0,-7.0,0.0
-4.0,-9.0,14.0,6.0,-31.0,1.0,47.0,7.0,-13.0,11.0,0.0
13.0,-1.0,86.0,11.0,-26.0,0.0,26.0,4.0,-11.0,32.0,0.0
18.0,-1.0,153.0,12.0,-10.0,-2.0,1.0,-10.0,-13.0,33.0,0.0
18.0,2.0,181.0,8.0,-5.0,0.0,-8.0,-7.0,4.0,29.0,0.0
19.0,15.0,207.0,13.0,-2.0,0.0,-14.0,6.0,15.0,34.0,0.0
8.0,14.0,196.0,11.0,-2.0,-9.0,-3.0,1.0,9.0,10.0,0.0
-4.0,12.0,115.0,6.0,-5.0,-22.0,3.0,1.0,12.0,2.0,0.0
-14.0,-9.0,9.0,9.0,0.0,-28.0,0.0,4.0,28.0,-16.0,0.0
-21.0,-3.0,-68.0,8.0,-2.0,-22.0,3.0,1.0,30.0,-31.0,0.0
-17.0,18.0,-147.0,18.0,2.0,-11.0,11.0,-15.0,-6.0,-10.0,0.0
-15.0,27.0,-261.0,21.0,8.0,-10.0,7.0,-23.0,-49.0,-17.0,0.0
20.0,39.0,-289.0,17.0,3.0,-14.0,-5.0,-33.0,-45.0,-13.0,0.0
35.0,47.0,-278.0,18.0,9.0,-9.0,22.0,-34.0,-47.0,2.0,0.0
23.0,39.0,-303.0,5.0,10.0,-3.0,37.0,-17.0,-46.0,-15.0,0.0
20.0,20.0,-276.0,-11.0,2.0,-6.0,35.0,-4.0,-42.0,-19.0,0.0
38.0,27.0,-128.0,-7.0,-5.0,-15.0,24.0,-12.0,-46.0,15.0,0.0
46.0,25.0,-23.0,-1.0,-6.0,-15.0,4.0,-22.0,-43.0,22.0,0.0
19.0,5.0,44.0,6.0,-8.0,-4.0,8.0,-34.0,-43.0,0.0,0.0
34.0,9.0,111.0,-1.0,-10.0,-7.0,2.0,-35.0,-23.0,3.0,0.0
31.0,21.0,199.0,-6.0,-22.0,-21.0,-11.0,-29.0,9.0,23.0,0.0
0.0,-10.0,257.0,-4.0,-20.0,-3.0,-23.0,-21.0,14.0,11.0,0.0
-22.0,-65.0,267.0,-13.0,0.0,10.0,-24.0,-7.0,10.0,-16.0,0.0
-22.0,-63.0,204.0,-41.0,-3.0,9.0,-24.0,-3.0,41.0,-19.0,0.0
-25.0,-55.0,104.0,-37.0,-14.0,11.0,-31.0,7.0,59.0,-28.0,0.0
-45.0,-54.0,2.0,-23.0,-12.0,22.0,-18.0,15.0,63.0,-54.0,0.0
-54.0,-54.0,-101.0,-15.0,-2.0,32.0,-11.0,28.0,47.0,-67.0,0.0
-50.0,-44.0,-182.0,4.0,5.0,41.0,-16.0,43.0,28.0,-53.0,0.0
-41.0,-28.0,-243.0,9.0,3.0,38.0,-27.0,58.0,14.0,-27.0,0.0
-18.0,-35.0,-262.0,7.0,-4.0,21.0,-32.0,52.0,18.0,-4.0,0.0
12.0,-39.0,-252.0,5.0,7.0,18.0,-22.0,25.0,10.0,20.0,0.0
25.0,-31.0,-242.0,-9.0,15.0,15.0,2.0,14.0,-8.0,6.0,0.0
17.0,2.0,-174.0,-7.0,9.0,18.0,5.0,11.0,-18.0,-18.0,0.0
30.0,21.0,-75.0,24.0,10.0,12.0,-5.0,16.0,-12.0,-14.0,0.0
48.0,33.0,16.0,37.0,15.0,1.0,-16.0,14.0,2.0,4.0,0.0
30.0,27.0,97.0,35.0,19.0,1.0,-32.0,15.0,-15.0,0.0,0.0
0.0,21.0,180.0,33.0,23.0,18.0,-28.0,13.0,-28.0,-22.0,0.0
-16.0,9.0,230.0,29.0,23.0,6.0,-17.0,15.0,-20.0,-33.0,0.0
-17.0,-17.0,251.0,18.0,14.0,3.0,-18.0,11.0,-13.0,-37.0,0.0
0.0,-22.0,254.0,11.0,2.0,14.0,-21.0,16.0,6.0,12.0,0.0
41.0,10.0,200.0,2.0,0.0,17.0,-42.0,16.0,37.0,71.0,0.0
64.0,30.0,91.0,1.0,-2.0,8.0,-45.0,7.0,61.0,74.0,0.0
58.0,25.0,-6.0,-7.0,-6.0,5.0,-32.0,-3.0,21.0,47.0,0.0
52.0,22.0,-100.0,-17.0,-10.0,-5.0,-25.0,-10.0,-10.0,39.0,0.0
57.0,22.0,-171.0,-3.0,-7.0,-5.0,-27.0,-7.0,-18.0,43.0,0.0
60.0,9.0,-207.0,5.0,-1.0,3.0,-55.0,-5.0,-23.0,46.0,0.0
51.0,5.0,-222.0,12.0,2.0,12.0,-53.0,-6.0,-27.0,39.0,0.0
43.0,-6.0,-218.0,14.0,3.0,9.0,-36.0,-11.0,-29.0,18.0,0.0
28.0,-14.0,-198.0,-1.0,-9.0,4.0,-25.0,-18.0,-28.0,-3.0,0.0
24.0,-9.0,-142.0,-4.0,-30.0,-10.0,-35.0,-23.0,-27.0,-6.0,0.0
13.0,-7.0,-48.0,-13.0,-38.0,0.0,-36.0,-29.0,-1.0,-6.0,0.0
9.0,-17.0,53.0,-18.0,-36.0,-3.0,-22.0,-37.0,9.0,-1.0,0.0
2.0,-14.0,118.0,-12.0,-37.0,-3.0,-29.0,-23.0,19.0,-1.0,0.0
12.0,-5.0,183.0,-5.0,-39.0,-1.0,-28.0,-12.0,34.0,15.0,0.0
52.0,18.0,241.0,-7.0,-26.0,-1.0,-20.0,-22.0,33.0,68.0,0.0
76.0,36.0,257.0,-7.0,-18.0,3.0,-19.0,-44.0,45.0,93.0,0.0
62.0,23.0,246.0,-6.0,-16.0,5.0,-37.0,-39.0,44.0,91.0,0.0
24.0,11.0,163.0,-4.0,-7.0,10.0,-23.0,-29.0,36.0,59.0,0.0
8.0,22.0,50.0,-11.0,-6.0,23.0,6.0,-20.0,59.0,30.0,0.0
3.0,24.0,-59.0,-8.0,1.0,27.0,-1.0,0.0,61.0,14.0,0.0
3.0,12.0,-147.0,-17.0,4.0,26.0,5.0,0.0,38.0,7.0,0.0
4.0,17.0,-197.0,-22.0,7.0,25.0,0.0,-3.0,17.0,3.0,0.0
5.0,20.0,-237.0,-13.0,3.0,7.0,-11.0,-8.0,-25.0,-19.0,0.0
11.0,18.0,-229.0,-9.0,2.0,-3.0,16.0,-4.0,-64.0,-32.0,0.0
28.0,15.0,-196.0,-5.0,0.0,4.0,43.0,5.0,-77.0,-28.0,0.0
15.0,0.0,-150.0,-7.0,-3.0,8.0,25.0,5.0,-61.0,-26.0,0.0
-3.0,-8.0,-105.0,-9.0,-11.0,2.0,-8.0,2.0,-55.0,-33.0,0.0
-3.0,-12.0,-67.0,-16.0,-4.0,5.0,0.0,2.0,-40.0,-31.0,0.0
0.0,-9.0,6.0,-26.0,8.0,6.0,-7.0,1.0,-1.0,-18.0,0.0
3.0,-1.0,148.0,-14.0,20.0,5.0,-12.0,9.0,18.0,-12.0,0.0
3.0,-10.0,227.0,-17.0,13.0,-3.0,-1.0,8.0,34.0,1.0,0.0
-17.0,-24.0,266.0,-25.0,2.0,0.0,-16.0,4.0,38.0,-1.0,0.0
-36.0,-42.0,264.0,-26.0,8.0,8.0,-10.0,4.0,25.0,-39.0,0.0
-13.0,-43.0,205.0,-26.0,19.0,3.0,16.0,-5.0,8.0,-37.0,0.0
0.0,-28.0,104.0,-32.0,20.0,7.0,8.0,-3.0,9.0,-21.0,0.0
12.0,-33.0,-9.0,-24.0,9.0,22.0,21.0,8.0,-7.0,-10.0,0.0
6.0,-32.0,-119.0,-20.0,16.0,14.0,6.0,9.0,-27.0,-18.0,0.0
5.0,-34.0,-168.0,-16.0,21.0,3.0,14.0,1.0,-38.0,-24.0,0.0
-2.0,-44.0,-274.0,-18.0,23.0,10.0,11.0,-1.0,-46.0,-36.0,0.0
1.0,-42.0,-274.0,-21.0,15.0,14.0,0.0,1.0,-41.0,-41.0,0.0
2.0,-41.0,-229.0,-13.0,15.0,-2.0,1.0,-4.0,-30.0,-39.0,0.0
0.0,-38.0,-222.0,-16.0,9.0,-8.0,19.0,-8.0,-22.0,-35.0,0.0
4.0,-40.0,-156.0,-13.0,-6.0,-9.0,35.0,-13.0,4.0,-28.0,0.0
0.0,-41.0,-56.0,-5.0,-8.0,-15.0,14.0,-9.0,11.0,-23.0,0.0
-17.0,-48.0,16.0,0.0,-11.0,-15.0,-7.0,-8.0,6.0,-34.0,0.0
-24.0,-43.0,81.0,8.0,-12.0,-16.0,-22.0,-17.0,2.0,-24.0,0.0
16.0,-21.0,150.0,14.0,-17.0,-11.0,-1.0,-24.0,-10.0,23.0,0.0
34.0,3.0,205.0,5.0,-15.0,3.0,32.0,-23.0,-12.0,40.0,0.0
29.0,11.0,226.0,7.0,-16.0,13.0,36.0,-19.0,2.0,52.0,0.0
25.0,21.0,183.0,1.0,-9.0,0.0,42.0,-17.0,30.0,53.0,0.0
13.0,18.0,138.0,0.0,-2.0,8.0,40.0,-8.0,18.0,17.0,0.0
2.0,8.0,12.0,2.0,-1.0,9.0,31.0,-9.0,-15.0,-9.0,0.0
2.0,4.0,-107.0,11.0,-3.0,2.0,21.0,-12.0,-40.0,0.0,0.0
7.0,18.0,-173.0,11.0,1.0,2.0,8.0,-14.0,-59.0,10.0,0.0
0.0,24.0,-170.0,-5.0,-2.0,3.0,1.0,-17.0,-58.0,9.0,0.0
1.0,17.0,-169.0,-23.0,-2.0,-6.0,-36.0,-15.0,-41.0,20.0,0.0
-3.0,6.0,-176.0,-19.0,2.0,-17.0,-44.0,-9.0,-1.0,30.0,0.0
-12.0,11.0,-160.0,-3.0,2.0,-7.0,-40.0,-6.0,41.0,33.0,0.0
-7.0,12.0,-108.0,3.0,0.0,-4.0,-47.0,3.0,62.0,34.0,0.0
0.0,14.0,-40.0,2.0,4.0,-1.0,-28.0,17.0,73.0,38.0,0.0
-2.0,29.0,55.0,0.0,-7.0,6.0,-20.0,25.0,67.0,23.0,0.0
-10.0,29.0,141.0,9.0,-6.0,16.0,-41.0,30.0,35.0,2.0,0.0
-11.0,26.0,205.0,8.0,-2.0,27.0,-37.0,25.0,15.0,0.0,0.0
-20.0,30.0,252.0,-6.0,1.0,27.0,-20.0,25.0,12.0,0.0,0.0
-29.0,24.0,288.0,-11.0,0.0,17.0,-11.0,27.0,-1.0,-18.0,0.0
-25.0,12.0,291.0,-21.0,3.0,16.0,-16.0,26.0,-18.0,-20.0,0.0
-29.0,-3.0,234.0,-11.0,7.0,21.0,-17.0,19.0,-21.0,-8.0,0.0
-34.0,-2.0,160.0,-14.0,14.0,18.0,-31.0,24.0,-14.0,-3.0,0.0
-55.0,-11.0,62.0,-2.0,19.0,15.0,-30.0,21.0,-22.0,-20.0,0.0
-41.0,-25.0,-70.0,-3.0,18.0,2.0,-25.0,14.0,-35.0,-21.0,0.0
10.0,-21.0,-129.0,-17.0,10.0,-9.0,-14.0,11.0,-42.0,23.0,0.0
30.0,-20.0,-125.0,-14.0,9.0,-8.0,-21.0,11.0,-37.0,58.0,0.0
12.0,-22.0,-153.0,-15.0,7.0,-4.0,-32.0,9.0,-29.0,40.0,0.0
23.0,-17.0,-149.0,-10.0,-15.0,2.0,-21.0,19.0,1.0,51.0,0.0
50.0,1.0,-100.0,-5.0,-21.0,-12.0,-8.0,30.0,26.0,75.0,0.0
27.0,5.0,-61.0,-7.0,-10.0,-14.0,-3.0,19.0,16.0,73.0,0.0
-1.0,9.0,-9.0,-4.0,-4.0,5.0,1.0,2.0,11.0,47.0,0.0
-31.0,11.0,48.0,-8.0,-11.0,17.0,10.0,3.0,-4.0,23.0,0.0
-21.0,16.0,113.0,-11.0,-15.0,11.0,-12.0,-1.0,1.0,26.0,0.0
2.0,16.0,222.0,-4.0,-14.0,10.0,-25.0,-2.0,-6.0,34.0,0.0
5.0,28.0,284.0,-1.0,-11.0,7.0,-3.0,9.0,-1.0,23.0,0.0
-21.0,24.0,293.0,-3.0,0.0,9.0,6.0,0.0,-18.0,14.0,0.0
-37.0,24.0,243.0,-12.0,17.0,7.0,0.0,-9.0,-24.0,12.0,0.0
-23.0,17.0,134.0,-25.0,9.0,0.0,36.0,-8.0,-12.0,-4.0,0.0
-16.0,24.0,57.0,-14.0,-4.0,1.0,37.0,-9.0,-16.0,-17.0,0.0
-9.0,34.0,9.0,-13.0,-4.0,5.0,26.0,-12.0,-10.0,-18.0,0.0
-24.0,32.0,-77.0,-11.0,2.0,11.0,17.0,-8.0,-6.0,-25.0,0.0
-22.0,12.0,-159.0,-13.0,4.0,6.0,-19.0,-2.0,-1.0,-17.0,0.0
-16.0,15.0,-200.0,1.0,6.0,-4.0,-20.0,-10.0,1.0,5.0,0.0
-11.0,29.0,-203.0,14.0,4.0,1.0,-17.0,-5.0,-11.0,-1.0,0.0
-28.0,27.0,-193.0,12.0,17.0,10.0,-12.0,0.0,-26.0,-28.0,0.0
-24.0,25.0,-139.0,4.0,20.0,12.0,-7.0,-3.0,-17.0,-35.0,0.0
14.0,35.0,-64.0,18.0,14.0,10.0,-14.0,-8.0,-2.0,-9.0,0.0
34.0,31.0,6.0,21.0,12.0,5.0,-6.0,-15.0,-9.0,3.0,0.0
7.0,18.0,59.0,14.0,18.0,-3.0,6.0,-11.0,-23.0,-10.0,0.0
-4.0,1.0,122.0,23.0,11.0,-10.0,23.0,-12.0,-16.0,-26.0,0.0
-13.0,-15.0,211.0,37.0,3.0,-6.0,4.0,-2.0,-20.0,-40.0,0.0
-14.0,-5.0,253.0,36.0,4.0,-12.0,5.0,1.0,-26.0,-41.0,0.0
-4.0,13.0,260.0,22.0,9.0,-7.0,9.0,2.0,-13.0,-31.0,0.0
-17.0,0.0,267.0,10.0,3.0,-5.0,1.0,6.0,-25.0,-22.0,0.0
-18.0,-19.0,168.0,7.0,-6.0,0.0,9.0,13.0,-36.0,-15.0,0.0
-17.0,-28.0,34.0,14.0,-8.0,9.0,-6.0,5.0,-51.0,-23.0,0.0
-11.0,-44.0,-32.0,16.0,4.0,15.0,-16.0,-1.0,-64.0,-42.0,0.0
-23.0,-54.0,-103.0,13.0,13.0,19.0,2.0,-6.0,-63.0,-44.0,0.0
-27.0,-56.0,-174.0,18.0,12.0,6.0,-8.0,-15.0,-51.0,-48.0,0.0
-24.0,-49.0,-233.0,18.0,17.0,-2.0,-40.0,-15.0,-46.0,-38.0,0.0
-8.0,-46.0,-246.0,18.0,12.0,-15.0,-50.0,-13.0,-28.0,4.0,0.0
-5.0,-46.0,-235.0,3.0,-5.0,-26.0,-25.0,-11.0,6.0,37.0,0.0
11.0,-22.0,-184.0,1.0,-5.0,-22.0,8.0,0.0,39.0,45.0,0.0
26.0,-14.0,-113.0,26.0,11.0,-11.0,6.0,8.0,63.0,72.0,0.0
28.0,1.0,-73.0,41.0,36.0,-4.0,4.0,2.0,77.0,85.0,0.0
32.0,5.0,51.0,40.0,54.0,-4.0,6.0,-1.0,80.0,72.0,0.0
20.0,-4.0,105.0,31.0,52.0,1.0,-20.0,0.0,54.0,63.0,0.0
13.0,-11.0,123.0,38.0,48.0,-1.0,-29.0,14.0,7.0,26.0,0.0
19.0,-2.0,187.0,60.0,41.0,2.0,17.0,5.0,-28.0,4.0,0.0
11.0,4.0,255.0,55.0,35.0,12.0,17.0,-10.0,-67.0,-37.0,0.0
-16.0,1.0,230.0,55.0,46.0,12.0,4.0,-16.0,-87.0,-66.0,0.0
-26.0,0.0,141.0,35.0,36.0,11.0,0.0,-15.0,-79.0,-61.0,0.0
-16.0,1.0,18.0,2.0,4.0,7.0,-16.0,-10.0,-49.0,-41.0,0.0
15.0,10.0,-66.0,-6.0,-21.0,-4.0,-26.0,-4.0,-26.0,-21.0,0.0
26.0,26.0,-117.0,1.0,-24.0,-12.0,-44.0,2.0,-21.0,7.0,0.0
23.0,32.0,-170.0,-16.0,-20.0,-21.0,-40.0,6.0,-18.0,0.0,0.0
16.0,37.0,-199.0,-26.0,-23.0,-26.0,-5.0,12.0,-1.0,-24.0,0.0
0.0,23.0,-201.0,-20.0,-20.0,-22.0,19.0,0.0,-14.0,-38.0,0.0
-18.0,-10.0,-192.0,-35.0,-22.0,-16.0,21.0,-16.0,-46.0,-60.0,0.0
-6.0,-14.0,-136.0,-53.0,-31.0,-11.0,23.0,-15.0,-30.0,-64.0,0.0
-9.0,-19.0,-52.0,-74.0,-41.0,-14.0,6.0,-17.0,-10.0,-45.0,0.0
-27.0,-8.0,46.0,-61.0,-30.0,-11.0,11.0,-17.0,-7.0,-30.0,0.0
-38.0,-11.0,110.0,-34.0,-15.0,3.0,25.0,-9.0,9.0,-38.0,0.0
-19.0,-15.0,195.0,-22.0,-15.0,16.0,24.0,2.0,44.0,-15.0,0.0
-5.0,-2.0,242.0,-12.0,-21.0,18.0,38.0,11.0,50.0,-2.0,0.0
-4.0,21.0,271.0,3.0,-23.0,4.0,46.0,13.0,32.0,13.0,0.0
9.0,39.0,261.0,16.0,0.0,-1.0,42.0,-1.0,17.0,53.0,0.0
13.0,28.0,158.0,14.0,3.0,9.0,26.0,2.0,12.0,67.0,0.0
23.0,14.0,72.0,15.0,-4.0,0.0,0.0,13.0,36.0,85.0,0.0
21.0,8.0,9.0,23.0,-13.0,-18.0,-16.0,18.0,52.0,86.0,0.0
-9.0,7.0,-87.0,28.0,-9.0,-21.0,-29.0,17.0,40.0,68.0,0.0
-25.0,20.0,-190.0,47.0,0.0,-30.0,-44.0,3.0,27.0,43.0,0.0
-18.0,27.0,-233.0,57.0,0.0,-22.0,-41.0,-13.0,10.0,19.0,0.0
8.0,31.0,-231.0,34.0,0.0,-8.0,-33.0,-16.0,4.0,19.0,0.0
53.0,34.0,-251.0,0.0,-7.0,-16.0,-26.0,-11.0,9.0,37.0,0.0
60.0,24.0,-236.0,-11.0,-8.0,-21.0,-28.0,-15.0,-8.0,38.0,0.0
37.0,28.0,-123.0,1.0,0.0,-23.0,-38.0,-7.0,-15.0,15.0,0.0
16.0,27.0,-32.0,0.0,16.0,-19.0,-34.0,3.0,-4.0,1.0,0.0
-2.0,13.0,39.0,1.0,16.0,-21.0,-15.0,5.0,0.0,-5.0,0.0
-14.0,-6.0,81.0,3.0,11.0,-15.0,-1.0,3.0,3.0,-20.0,0.0
-2.0,-14.0,154.0,5.0,4.0,-17.0,-28.0,-8.0,11.0,8.0,0.0
10.0,2.0,233.0,11.0,-4.0,-8.0,-46.0,-3.0,22.0,39.0,0.0
14.0,-1.0,264.0,8.0,-5.0,-4.0,-42.0,7.0,35.0,30.0,0.0
5.0,-2.0,245.0,4.0,-1.0,-7.0,-27.0,-1.0,34.0,9.0,0.0
6.0,15.0,160.0,13.0,-7.0,-4.0,-24.0,-8.0,38.0,7.0,0.0
19.0,27.0,64.0,14.0,-4.0,-5.0,-20.0,6.0,33.0,11.0,0.0
24.0,26.0,-42.0,20.0,0.0,-4.0,1.0,0.0,17.0,17.0,0.0
19.0,22.0,-113.0,29.0,4.0,4.0,-1.0,-9.0,1.0,7.0,0.0
8.0,15.0,-187.0,33.0,0.0,3.0,-12.0,-1.0,-22.0,-4.0,0.0
-4.0,10.0,-262.0,31.0,-5.0,5.0,21.0,4.0,-34.0,-11.0,0.0
-12.0,-17.0,-299.0,35.0,0.0,5.0,55.0,9.0,-14.0,-13.0,0.0
-29.0,-47.0,-291.0,30.0,11.0,5.0,55.0,8.0,8.0,-11.0,0.0
-25.0,-49.0,-246.0,19.0,1.0,10.0,63.0,18.0,16.0,-25.0,0.0
-28.0,-31.0,-126.0,23.0,5.0,9.0,57.0,20.0,19.0,-36.0,0.0
-16.0,-3.0,-51.0,32.0,20.0,25.0,64.0,12.0,8.0,-19.0,0.0
-9.0,1.0,12.0,25.0,13.0,33.0,61.0,22.0,-3.0,-17.0,0.0
3.0,-7.0,122.0,23.0,5.0,26.0,50.0,16.0,-13.0,-14.0,0.0
7.0,-6.0,186.0,23.0,3.0,22.0,34.0,5.0,-15.0,-20.0,0.0
1.0,-1.0,209.0,18.0,9.0,25.0,27.0,16.0,-15.0,-27.0,0.0
-14.0,1.0,232.0,12.0,12.0,22.0,1.0,28.0,-23.0,-30.0,0.0
-20.0,4.0,193.0,5.0,6.0,26.0,-24.0,14.0,-27.0,-29.0,0.0
-23.0,1.0,94.0,-2.0,12.0,23.0,-28.0,7.0,-24.0,-43.0,0.0
-19.0,-18.0,1.0,-7.0,24.0,23.0,-23.0,10.0,-18.0,-45.0,0.0
-24.0,-11.0,-82.0,-6.0,10.0,21.0,5.0,8.0,-5.0,-44.0,0.0
-8.0,-4.0,-153.0,1.0,0.0,21.0,20.0,10.0,-1.0,-8.0,0.0
31.0,13.0,-234.0,-12.0,-11.0,11.0,-10.0,12.0,-1.0,38.0,0.0
41.0,30.0,-250.0,-8.0,-17.0,5.0,-49.0,16.0,16.0,24.0,0.0
27.0,29.0,-264.0,-7.0,-17.0,-1.0,-49.0,18.0,21.0,-2.0,0.0
20.0,29.0,-221.0,-4.0,-27.0,0.0,-39.0,16.0,32.0,-15.0,0.0
6.0,23.0,-148.0,-15.0,-38.0,2.0,-3.0,10.0,30.0,-26.0,0.0
5.0,21.0,-79.0,-12.0,-38.0,2.0,7.0,19.0,27.0,-34.0,0.0
7.0,10.0,17.0,-7.0,-38.0,-4.0,29.0,10.0,33.0,-13.0,0.0
16.0,13.0,117.0,-3.0,-29.0,-3.0,26.0,-3.0,40.0,40.0,0.0
27.0,10.0,207.0,-4.0,-17.0,-2.0,16.0,-6.0,30.0,63.0,0.0
15.0,5.0,239.0,-5.0,-11.0,-1.0,21.0,0.0,13.0,40.0,0.0
5.0,1.0,245.0,-1.0,4.0,24.0,19.0,-2.0,-1.0,28.0,0.0
-14.0,-3.0,221.0,13.0,17.0,38.0,32.0,-8.0,-18.0,5.0,0.0
-34.0,-8.0,151.0,15.0,15.0,38.0,29.0,-18.0,-39.0,-32.0,0.0
-29.0,-16.0,3.0,6.0,13.0,37.0,21.0,-25.0,-39.0,-45.0,0.0
-31.0,-20.0,-148.0,14.0,10.0,28.0,12.0,-25.0,-47.0,-47.0,0.0
-34.0,-17.0,-186.0,15.0,3.0,22.0,-16.0,-15.0,-42.0,-51.0,0.0
-20.0,-22.0,-187.0,-1.0,4.0,19.0,-7.0,-2.0,-28.0,-34.0,0.0
3.0,-14.0,-216.0,-9.0,-2.0,17.0,4.0,-4.0,-32.0,-4.0,0.0
21.0,-10.0,-211.0,-18.0,-11.0,1.0,-22.0,-14.0,4.0,30.0,0.0
31.0,-17.0,-180.0,-16.0,-5.0,-7.0,-29.0,-9.0,28.0,53.0,0.0
15.0,-15.0,-119.0,-14.0,0.0,-16.0,6.0,-6.0,29.0,38.0,0.0
-19.0,-24.0,-65.0,-13.0,-4.0,-4.0,-5.0,-10.0,21.0,2.0,0.0
-58.0,-58.0,13.0,-12.0,9.0,3.0,-36.0,-11.0,19.0,-24.0,0.0
-74.0,-64.0,93.0,-5.0,23.0,6.0,-35.0,-11.0,15.0,-38.0,0.0
-49.0,-53.0,164.0,-4.0,20.0,20.0,-13.0,-2.0,31.0,-17.0,0.0
-17.0,-31.0,246.0,2.0,17.0,24.0,-5.0,8.0,41.0,13.0,0.0
-1.0,-1.0,278.0,22.0,6.0,18.0,-22.0,8.0,10.0,2.0,0.0
0.0,-5.0,269.0,29.0,16.0,12.0,-24.0,4.0,-19.0,-25.0,0.0
-2.0,-6.0,239.0,36.0,19.0,6.0,-16.0,-4.0,-11.0,-15.0,0.0
-2.0,-7.0,128.0,19.0,23.0,4.0,-6.0,-7.0,6.0,-2.0,0.0
-8.0,0.0,15.0,-6.0,0.0,-3.0,-16.0,-1.0,22.0,-2.0,0.0
28.0,28.0,-98.0,-22.0,-27.0,-3.0,-23.0,4.0,24.0,33.0,0.0
47.0,41.0,-155.0,-23.0,-37.0,-2.0,-16.0,-1.0,4.0,43.0,0.0
39.0,30.0,-199.0,-37.0,-38.0,-4.0,2.0,-8.0,3.0,29.0,0.0
21.0,15.0,-231.0,-39.0,-46.0,-5.0,-6.0,-5.0,17.0,19.0,0.0
18.0,5.0,-231.0,-28.0,-40.0,-1.0,-7.0,0.0,10.0,16.0,0.0
47.0,7.0,-165.0,-21.0,-31.0,0.0,3.0,-1.0,3.0,35.0,0.0
80.0,28.0,-70.0,-5.0,-21.0,-5.0,-4.0,-2.0,5.0,62.0,0.0
86.0,32.0,0.0,-15.0,-23.0,-7.0,-18.0,-18.0,4.0,61.0,0.0
64.0,19.0,59.0,-23.0,-33.0,-9.0,-24.0,-17.0,-13.0,33.0,0.0
30.0,-1.0,135.0,-12.0,-42.0,-5.0,-22.0,-17.0,-35.0,0.0,0.0
-2.0,-15.0,229.0,-19.0,-39.0,-14.0,-12.0,-25.0,-40.0,-32.0,0.0
-19.0,-19.0,254.0,-23.0,-38.0,-24.0,-7.0,-32.0,-33.0,-55.0,0.0
-32.0,-35.0,235.0,-15.0,-38.0,-30.0,-22.0,-36.0,-26.0,-56.0,0.0
-54.0,-46.0,241.0,-6.0,-29.0,-21.0,-24.0,-31.0,-25.0,-46.0,0.0
-59.0,-49.0,156.0,7.0,-14.0,-17.0,5.0,-30.0,-7.0,-36.0,0.0
-18.0,-32.0,83.0,16.0,-14.0,-12.0,29.0,-19.0,40.0,24.0,0.0
10.0,-13.0,46.0,12.0,-29.0,-22.0,29.0,-21.0,85.0,50.0,0.0
-4.0,-15.0,-68.0,5.0,-25.0,-28.0,38.0,-8.0,122.0,35.0,0.0
-21.0,-15.0,-145.0,-3.0,-24.0,-17.0,38.0,9.0,135.0,37.0,0.0
-2.0,-17.0,-187.0,7.0,-20.0,-8.0,7.0,12.0,112.0,32.0,0.0
15.0,-3.0,-195.0,28.0,4.0,0.0,6.0,23.0,83.0,22.0,0.0
8.0,11.0,-223.0,38.0,29.0,12.0,18.0,20.0,26.0,-11.0,0.0
7.0,28.0,-186.0,38.0,54.0,21.0,44.0,8.0,-45.0,-48.0,0.0
-2.0,31.0,-109.0,38.0,51.0,32.0,59.0,7.0,-96.0,-69.0,0.0
-14.0,22.0,-35.0,15.0,30.0,29.0,56.0,12.0,-75.0,-89.0,0.0
-17.0,23.0,45.0,1.0,22.0,9.0,53.0,11.0,-47.0,-78.0,0.0
-27.0,29.0,134.0,8.0,3.0,1.0,38.0,7.0,-32.0,-65.0,0.0
-33.0,35.0,194.0,1.0,-6.0,-13.0,46.0,-5.0,-22.0,-48.0,0.0
-23.0,29.0,233.0,-19.0,-10.0,-19.0,49.0,-15.0,-29.0,-48.0,0.0
-10.0,10.0,242.0,-20.0,-8.0,-6.0,48.0,1.0,-28.0,-52.0,0.0
-18.0,2.0,213.0,-9.0,-20.0,-8.0,35.0,15.0,-4.0,-40.0,0.0
-28.0,-5.0,130.0,-26.0,-33.0,-13.0,13.0,0.0,1.0,-36.0,0.0
-18.0,-12.0,14.0,-12.0,-23.0,-14.0,9.0,-7.0,1.0,-42.0,0.0
-2.0,-11.0,-78.0,1.0,-7.0,-26.0,3.0,-15.0,12.0,-19.0,0.0
5.0,-2.0,-139.0,3.0,-6.0,-22.0,0.0,-7.0,21.0,-3.0,0.0
7.0,17.0,-191.0,-6.0,-1.0,-22.0,-11.0,-2.0,40.0,11.0,0.0
19.0,35.0,-238.0,-15.0,-8.0,-28.0,-54.0,-2.0,48.0,36.0,0.0
27.0,37.0,-264.0,-17.0,-7.0,-24.0,-49.0,-2.0,36.0,46.0,0.0
32.0,39.0,-245.0,-22.0,-3.0,-23.0,-38.0,-3.0,16.0,30.0,0.0
46.0,64.0,-170.0,-18.0,7.0,-30.0,-38.0,-16.0,5.0,44.0,0.0
55.0,75.0,-73.0,-16.0,7.0,-26.0,-45.0,-15.0,15.0,63.0,0.0
31.0,66.0,-2.0,-17.0,-5.0,-21.0,-38.0,-9.0,6.0,38.0,0.0
16.0,53.0,63.0,0.0,-15.0,-19.0,-41.0,-6.0,-11.0,20.0,0.0
17.0,44.0,138.0,12.0,-11.0,-16.0,-46.0,-11.0,-18.0,16.0,0.0
8.0,29.0,189.0,5.0,5.0,-10.0,-30.0,-10.0,-19.0,-11.0,0.0
-7.0,-1.0,217.0,0.0,10.0,0.0,-16.0,4.0,-26.0,-36.0,0.0
3.0,-7.0,234.0,-1.0,0.0,-1.0,-12.0,7.0,-19.0,-2.0,0.0
10.0,-5.0,186.0,3.0,0.0,-3.0,-31.0,2.0,-4.0,28.0,0.0
11.0,-4.0,86.0,-2.0,-2.0,2.0,-11.0,8.0,17.0,28.0,0.0
-3.0,-18.0,-58.0,-1.0,7.0,0.0,32.0,4.0,12.0,2.0,0.0
-30.0,-20.0,-141.0,4.0,24.0,-2.0,33.0,0.0,-5.0,-38.0,0.0
-40.0,-27.0,-207.0,-3.0,29.0,0.0,40.0,4.0,-14.0,-57.0,0.0
-46.0,-35.0,-278.0,6.0,26.0,6.0,15.0,5.0,-15.0,-56.0,0.0
-30.0,-18.0,-312.0,8.0,36.0,9.0,3.0,1.0,-15.0,-35.0,0.0
-28.0,-14.0,-263.0,6.0,31.0,13.0,-8.0,-3.0,-17.0,-33.0,0.0
-21.0,-12.0,-222.0,6.0,26.0,4.0,-23.0,-5.0,8.0,-32.0,0.0
-5.0,-12.0,-135.0,6.0,6.0,-16.0,-43.0,-14.0,9.0,-3.0,0.0
-1.0,-21.0,-34.0,0.0,-5.0,-21.0,-52.0,-15.0,4.0,27.0,0.0
0.0,-36.0,27.0,-6.0,7.0,-21.0,-40.0,-17.0,4.0,28.0,0.0
-3.0,-41.0,102.0,-2.0,21.0,-18.0,-24.0,-6.0,0.0,17.0,0.0
-10.0,-28.0,182.0,13.0,16.0,-12.0,-13.0,-5.0,6.0,22.0,0.0
-11.0,-24.0,230.0,2.0,12.0,-11.0,-3.0,-5.0,0.0,17.0,0.0
-26.0,-19.0,239.0,2.0,30.0,0.0,-1.0,-7.0,-12.0,10.0,0.0
-34.0,-9.0,238.0,12.0,42.0,25.0,29.0,5.0,-14.0,0.0,0.0
-39.0,-8.0,170.0,22.0,33.0,28.0,58.0,-1.0,-4.0,-8.0,0.0
-72.0,-16.0,67.0,10.0,42.0,31.0,57.0,-4.0,-10.0,-28.0,0.0
-85.0,-23.0,-43.0,8.0,43.0,32.0,51.0,-12.0,-13.0,-48.0,0.0
-61.0,-13.0,-175.0,19.0,34.0,17.0,43.0,-9.0,-3.0,-43.0,0.0
-5.0,-15.0,-197.0,19.0,13.0,0.0,43.0,16.0,11.0,1.0,0.0
26.0,-22.0,-211.0,8.0,13.0,0.0,33.0,22.0,16.0,13.0,0.0
10.0,-25.0,-237.0,-1.0,19.0,11.0,35.0,14.0,1.0,-10.0,0.0
4.0,-25.0,-254.0,-6.0,15.0,1.0,21.0,4.0,-4.0,-8.0,0.0
27.0,-10.0,-197.0,-13.0,7.0,-6.0,17.0,-5.0,0.0,22.0,0.0
36.0,-16.0,-117.0,-10.0,2.0,-8.0,4.0,0.0,-1.0,24.0,0.0
34.0,-25.0,-8.0,-14.0,-2.0,0.0,0.0,8.0,-3.0,18.0,0.0
31.0,-14.0,65.0,-15.0,2.0,0.0,-8.0,9.0,-3.0,15.0,0.0
32.0,-12.0,135.0,-3.0,6.0,1.0,-34.0,14.0,15.0,26.0,0.0
40.0,6.0,206.0,-5.0,13.0,-2.0,-48.0,21.0,15.0,39.0,0.0
35.0,9.0,248.0,0.0,-1.0,9.0,-18.0,21.0,10.0,34.0,0.0
22.0,4.0,250.0,0.0,-7.0,12.0,-7.0,5.0,14.0,6.0,0.0
28.0,7.0,211.0,4.0,-6.0,3.0,-36.0,0.0,26.0,11.0,0.0
34.0,11.0,121.0,3.0,-3.0,4.0,-36.0,-1.0,18.0,18.0,0.0
25.0,0.0,5.0,-4.0,-1.0,5.0,0.0,-2.0,14.0,13.0,0.0
28.0,-11.0,-92.0,-8.0,5.0,1.0,5.0,-9.0,11.0,-5.0,0.0
22.0,-14.0,-155.0,-5.0,5.0,7.0,-34.0,-8.0,5.0,-14.0,0.0
8.0,-16.0,-206.0,-4.0,7.0,5.0,-44.0,0.0,-8.0,-29.0,0.0
0.0,-33.0,-251.0,-11.0,0.0,-1.0,-69.0,1.0,-15.0,-36.0,0.0
-2.0,-37.0,-279.0,-7.0,5.0,4.0,-63.0,-3.0,-10.0,-34.0,0.0
-18.0,-44.0,-258.0,-9.0,5.0,0.0,-46.0,-9.0,-6.0,-50.0,0.0
-17.0,-44.0,-191.0,-22.0,4.0,-8.0,-46.0,-6.0,6.0,-46.0,0.0
-20.0,-32.0,-116.0,-15.0,0.0,-11.0,-58.0,1.0,26.0,-5.0,0.0
-28.0,-33.0,-45.0,-12.0,-1.0,-10.0,-47.0,1.0,37.0,5.0,0.0
-2.0,-19.0,52.0,0.0,-6.0,-4.0,-30.0,-7.0,54.0,31.0,0.0
30.0,-2.0,157.0,-2.0,-10.0,-2.0,-20.0,-5.0,58.0,56.0,0.0
26.0,10.0,220.0,-12.0,-7.0,3.0,-11.0,0.0,62.0,41.0,0.0
27.0,17.0,245.0,-7.0,-7.0,1.0,-4.0,-9.0,56.0,30.0,0.0
37.0,20.0,245.0,13.0,1.0,7.0,-2.0,-12.0,26.0,10.0,0.0
29.0,19.0,200.0,27.0,17.0,20.0,2.0,-10.0,-22.0,-20.0,0.0
15.0,19.0,124.0,24.0,13.0,20.0,20.0,-11.0,-54.0,-36.0,0.0
4.0,-4.0,5.0,33.0,-5.0,20.0,25.0,-8.0,-52.0,-46.0,0.0
-2.0,-21.0,-125.0,27.0,-6.0,16.0,0.0,-1.0,-50.0,-38.0,0.0
-1.0,-23.0,-153.0,6.0,-12.0,13.0,-12.0,14.0,-47.0,-33.0,0.0
-13.0,-25.0,-192.0,7.0,-19.0,14.0,7.0,16.0,-36.0,-26.0,0.0
-15.0,-15.0,-217.0,0.0,-21.0,18.0,36.0,11.0,-15.0,-19.0,0.0
-31.0,-14.0,-242.0,-6.0,-24.0,22.0,45.0,22.0,-6.0,-30.0,0.0
-45.0,-13.0,-210.0,5.0,-22.0,25.0,41.0,11.0,-33.0,-33.0,0.0
-7.0,-1.0,-129.0,-1.0,-20.0,26.0,25.0,-18.0,-42.0,23.0,0.0
8.0,-4.0,-71.0,-8.0,-23.0,9.0,-3.0,-24.0,-35.0,56.0,0.0
-8.0,0.0,30.0,5.0,-28.0,3.0,-37.0,-18.0,-7.0,64.0,0.0
-2.0,10.0,113.0,14.0,-33.0,6.0,-48.0,-5.0,23.0,69.0,0.0
0.0,15.0,184.0,6.0,-28.0,-6.0,-31.0,3.0,57.0,67.0,0.0
11.0,39.0,242.0,-8.0,-23.0,-11.0,18.0,1.0,91.0,68.0,0.0
21.0,34.0,270.0,-17.0,-16.0,-5.0,28.0,-5.0,91.0,61.0,0.0
28.0,23.0,235.0,-18.0,-17.0,4.0,31.0,6.0,77.0,40.0,0.0
34.0,15.0,146.0,-14.0,-9.0,14.0,38.0,17.0,68.0,38.0,0.0
33.0,29.0,65.0,-2.0,-10.0,13.0,33.0,15.0,29.0,37.0,0.0
23.0,27.0,-29.0,3.0,-6.0,15.0,37.0,15.0,-6.0,24.0,0.0
-2.0,2.0,-133.0,0.0,3.0,20.0,38.0,18.0,-41.0,-8.0,0.0
-7.0,-13.0,-202.0,-16.0,4.0,21.0,28.0,23.0,-67.0,-16.0,0.0
3.0,-2.0,-230.0,-20.0,3.0,9.0,6.0,20.0,-46.0,11.0,0.0
12.0,1.0,-237.0,-32.0,-5.0,7.0,-20.0,14.0,-32.0,17.0,0.0
2.0,-10.0,-262.0,-43.0,-17.0,7.0,-22.0,6.0,-31.0,6.0,0.0
-21.0,-12.0,-215.0,-32.0,-20.0,3.0,-33.0,5.0,-23.0,0.0,0.0
-35.0,-23.0,-112.0,-22.0,-10.0,3.0,-31.0,11.0,-27.0,-22.0,0.0
-44.0,-13.0,-37.0,-18.0,-4.0,3.0,-1.0,7.0,-24.0,-35.0,0.0
-9.0,-14.0,13.0,-5.0,-6.0,8.0,30.0,6.0,-27.0,-6.0,0.0
25.0,-8.0,145.0,5.0,-1.0,0.0,42.0,-5.0,-33.0,36.0,0.0
20.0,27.0,227.0,25.0,-1.0,-3.0,43.0,-7.0,-32.0,19.0,0.0
-1.0,35.0,274.0,18.0,1.0,-5.0,30.0,8.0,-7.0,-1.0,0.0
-2.0,29.0,286.0,12.0,17.0,0.0,37.0,4.0,10.0,0.0,0.0
-14.0,17.0,217.0,11.0,31.0,2.0,29.0,0.0,-5.0,-9.0,0.0
-25.0,10.0,113.0,15.0,42.0,8.0,33.0,2.0,-20.0,-40.0,0.0
-22.0,-13.0,17.0,5.0,30.0,2.0,23.0,4.0,-20.0,-25.0,0.0
-6.0,-24.0,-60.0,2.0,29.0,-2.0,-16.0,3.0,-17.0,9.0,0.0
18.0,-14.0,-120.0,2.0,35.0,-7.0,-14.0,-7.0,-2.0,24.0,0.0
40.0,-14.0,-190.0,2.0,35.0,-2.0,-11.0,-3.0,23.0,38.0,0.0
41.0,-13.0,-245.0,0.0,17.0,2.0,-11.0,10.0,14.0,41.0,0.0
54.0,-6.0,-260.0,9.0,21.0,-3.0,-10.0,-5.0,-12.0,41.0,0.0
76.0,2.0,-175.0,27.0,30.0,-10.0,-6.0,-27.0,-33.0,63.0,0.0
53.0,7.0,-98.0,27.0,22.0,-11.0,0.0,-33.0,-41.0,53.0,0.0
31.0,4.0,-49.0,18.0,19.0,-4.0,-12.0,-27.0,-36.0,28.0,0.0
12.0,2.0,21.0,19.0,28.0,-6.0,-23.0,-9.0,-33.0,9.0,0.0
-9.0,-1.0,110.0,24.0,31.0,0.0,-20.0,-6.0,-21.0,-14.0,0.0
-14.0,-9.0,198.0,11.0,22.0,2.0,4.0,1.0,-8.0,-24.0,0.0
-20.0,-3.0,270.0,-1.0,6.0,0.0,-12.0,9.0,-13.0,-24.0,0.0
-25.0,-7.0,292.0,2.0,2.0,4.0,-8.0,3.0,-18.0,-18.0,0.0
-26.0,-15.0,264.0,-19.0,-6.0,4.0,19.0,-11.0,-10.0,-14.0,0.0
-25.0,-29.0,162.0,-33.0,-14.0,5.0,50.0,-3.0,0.0,-31.0,0.0
-23.0,-41.0,42.0,-33.0,-12.0,1.0,48.0,3.0,-7.0,-45.0,0.0
-6.0,-39.0,-48.0,-17.0,-1.0,-5.0,37.0,4.0,-25.0,-38.0,0.0
2.0,-25.0,-136.0,6.0,3.0,-10.0,6.0,2.0,-44.0,-28.0,0.0
8.0,-23.0,-198.0,10.0,6.0,-10.0,1.0,0.0,-42.0,4.0,0.0
25.0,-2.0,-227.0,9.0,14.0,0.0,-7.0,2.0,-36.0,46.0,0.0
22.0,7.0,-233.0,5.0,16.0,0.0,-14.0,1.0,-28.0,57.0,0.0
23.0,10.0,-234.0,-5.0,13.0,-2.0,-17.0,1.0,-21.0,48.0,0.0
36.0,27.0,-252.0,1.0,10.0,-9.0,9.0,6.0,-4.0,47.0,0.0
49.0,42.0,-159.0,8.0,-7.0,-20.0,29.0,26.0,30.0,50.0,0.0
48.0,45.0,-29.0,8.0,-13.0,-31.0,25.0,29.0,48.0,45.0,0.0
47.0,39.0,38.0,0.0,-8.0,-31.0,-14.0,26.0,54.0,48.0,0.0
31.0,35.0,77.0,-3.0,3.0,-17.0,-18.0,32.0,61.0,49.0,0.0
9.0,18.0,147.0,5.0,-3.0,-1.0,0.0,39.0,37.0,36.0,0.0
-8.0,-1.0,168.0,5.0,-8.0,6.0,3.0,35.0,9.0,12.0,0.0
-19.0,-9.0,129.0,-2.0,0.0,12.0,-4.0,35.0,-13.0,-26.0,0.0
-30.0,-10.0,113.0,7.0,9.0,10.0,11.0,24.0,-39.0,-71.0,0.0
-24.0,-9.0,93.0,9.0,-4.0,7.0,16.0,31.0,-51.0,-79.0,0.0
2.0,15.0,-4.0,22.0,-13.0,-1.0,-9.0,30.0,-32.0,-41.0,0.0
13.0,27.0,-71.0,14.0,-13.0,-13.0,-9.0,21.0,-8.0,-25.0,0.0
-4.0,15.0,-142.0,4.0,-14.0,-8.0,-6.0,24.0,18.0,-36.0,0.0
-14.0,3.0,-239.0,8.0,-17.0,-5.0,-3.0,32.0,27.0,-35.0,0.0
-15.0,-2.0,-289.0,-3.0,-21.0,-14.0,5.0,33.0,29.0,-29.0,0.0
-12.0,-10.0,-280.0,-16.0,-20.0,-22.0,12.0,30.0,27.0,-29.0,0.0
4.0,-15.0,-260.0,0.0,-15.0,-12.0,8.0,5.0,20.0,-7.0,0.0
18.0,-11.0,-205.0,20.0,-10.0,-7.0,10.0,-3.0,-4.0,5.0,0.0
-3.0,-14.0,-136.0,4.0,-2.0,-2.0,15.0,-12.0,-19.0,-25.0,0.0
0.0,-7.0,-62.0,-1.0,10.0,-5.0,30.0,-19.0,-33.0,-24.0,0.0
33.0,9.0,47.0,-9.0,21.0,-3.0,54.0,-24.0,-35.0,29.0,0.0
31.0,-4.0,116.0,3.0,22.0,3.0,62.0,-23.0,-25.0,46.0,0.0
0.0,-24.0,122.0,4.0,31.0,2.0,50.0,-26.0,-12.0,20.0,0.0
-10.0,-14.0,206.0,2.0,24.0,-12.0,38.0,-31.0,-6.0,9.0,0.0
-9.0,-16.0,238.0,-3.0,17.0,-21.0,28.0,-34.0,-7.0,8.0,0.0
-8.0,-12.0,174.0,-6.0,16.0,-24.0,39.0,-26.0,3.0,8.0,0.0
4.0,-5.0,64.0,-11.0,-8.0,-28.0,28.0,-14.0,-6.0,0.0,0.0
10.0,-5.0,-25.0,-16.0,-15.0,-41.0,20.0,-3.0,-16.0,-5.0,0.0
13.0,6.0,-99.0,-29.0,-19.0,-32.0,6.0,-7.0,-17.0,3.0,0.0
21.0,22.0,-149.0,-21.0,-23.0,-18.0,3.0,-15.0,-1.0,40.0,0.0
10.0,7.0,-207.0,-3.0,-19.0,-14.0,-32.0,-10.0,-16.0,43.0,0.0
-6.0,-11.0,-242.0,-6.0,-15.0,-17.0,-48.0,-3.0,-14.0,22.0,0.0
-17.0,-19.0,-267.0,4.0,-8.0,-11.0,-27.0,-6.0,-1.0,10.0,0.0
-19.0,-28.0,-233.0,1.0,5.0,-4.0,-32.0,-7.0,14.0,8.0,0.0
-13.0,-25.0,-146.0,-6.0,17.0,-3.0,-48.0,-12.0,45.0,18.0,0.0
-15.0,-32.0,-58.0,-2.0,18.0,-1.0,-56.0,-5.0,79.0,26.0,0.0
-10.0,-24.0,9.0,1.0,20.0,1.0,-43.0,10.0,75.0,16.0,0.0
-20.0,-17.0,105.0,-1.0,32.0,17.0,-8.0,11.0,62.0,-4.0,0.0
-25.0,8.0,207.0,3.0,30.0,20.0,-12.0,4.0,40.0,-11.0,0.0
14.0,18.0,281.0,3.0,23.0,13.0,-8.0,5.0,18.0,10.0,0.0
48.0,18.0,312.0,-7.0,19.0,7.0,3.0,-2.0,1.0,30.0,0.0
26.0,17.0,228.0,-7.0,17.0,11.0,-7.0,-2.0,0.0,12.0,0.0
-6.0,10.0,142.0,-5.0,2.0,8.0,-23.0,0.0,12.0,-5.0,0.0
-10.0,13.0,107.0,-2.0,-7.0,6.0,-13.0,0.0,37.0,16.0,0.0
6.0,28.0,21.0,0.0,-6.0,12.0,12.0,3.0,30.0,38.0,0.0
5.0,37.0,-67.0,4.0,3.0,20.0,17.0,12.0,16.0,16.0,0.0
-16.0,24.0,-136.0,3.0,5.0,23.0,12.0,11.0,22.0,-13.0,0.0
-19.0,14.0,-180.0,14.0,10.0,22.0,-12.0,-1.0,10.0,-15.0,0.0
-24.0,23.0,-204.0,12.0,24.0,19.0,-19.0,-9.0,-18.0,-13.0,0.0
-20.0,24.0,-203.0,25.0,37.0,13.0,-12.0,-10.0,-47.0,-35.0,0.0
7.0,27.0,-132.0,28.0,27.0,6.0,-18.0,-19.0,-45.0,-36.0,0.0
21.0,27.0,-55.0,26.0,29.0,-2.0,-29.0,-16.0,-28.0,-37.0,0.0
3.0,16.0,11.0,17.0,29.0,2.0,-27.0,-13.0,-21.0,-52.0,0.0
-2.0,26.0,85.0,8.0,18.0,0.0,-5.0,-11.0,4.0,-42.0,0.0
-10.0,25.0,175.0,-3.0,8.0,-11.0,0.0,-13.0,16.0,-25.0,0.0
-18.0,10.0,256.0,-7.0,0.0,-8.0,-24.0,-13.0,-1.0,-22.0,0.0
-38.0,2.0,298.0,-2.0,9.0,-2.0,-39.0,-15.0,-6.0,-25.0,0.0
-44.0,-1.0,300.0,7.0,14.0,9.0,-24.0,-11.0,-13.0,-35.0,0.0
-36.0,-8.0,251.0,10.0,7.0,10.0,-9.0,-1.0,-11.0,-35.0,0.0
-24.0,-21.0,133.0,-7.0,-1.0,-3.0,-9.0,3.0,-6.0,-29.0,0.0
-27.0,-14.0,43.0,-6.0,11.0,-2.0,-7.0,7.0,-6.0,-35.0,0.0
-32.0,-9.0,-42.0,-10.0,10.0,-2.0,1.0,11.0,-16.0,-42.0,0.0
1.0,3.0,-133.0,-12.0,-8.0,-14.0,-6.0,6.0,-6.0,-18.0,0.0
10.0,13.0,-212.0,-10.0,-23.0,-28.0,-10.0,10.0,-4.0,-3.0,0.0
1.0,13.0,-218.0,-12.0,-21.0,-26.0,-23.0,-2.0,-2.0,-12.0,0.0
-16.0,8.0,-214.0,-17.0,-22.0,-24.0,-25.0,-7.0,-8.0,-12.0,0.0
-25.0,0.0,-199.0,-13.0,-26.0,-29.0,-26.0,1.0,-12.0,-11.0,0.0
-17.0,-4.0,-113.0,-27.0,-20.0,-12.0,0.0,10.0,7.0,-4.0,0.0
0.0,8.0,-8.0,-31.0,-13.0,-2.0,3.0,4.0,17.0,16.0,0.0
5.0,19.0,65.0,-33.0,-7.0,4.0,-8.0,5.0,15.0,16.0,0.0
-8.0,0.0,138.0,-29.0,-9.0,0.0,1.0,9.0,21.0,-5.0,0.0
2.0,-7.0,208.0,-38.0,-14.0,-7.0,21.0,3.0,20.0,-1.0,0.0
8.0,0.0,268.0,-40.0,-3.0,-7.0,27.0,1.0,11.0,17.0,0.0
-2.0,-7.0,280.0,-48.0,4.0,-14.0,39.0,5.0,0.0,28.0,0.0
-9.0,-15.0,219.0,-38.0,-2.0,-10.0,26.0,-7.0,-6.0,13.0,0.0
0.0,2.0,147.0,-23.0,-12.0,-4.0,0.0,0.0,0.0,10.0,0.0
0.0,1.0,79.0,-15.0,-6.0,5.0,-5.0,3.0,-2.0,9.0,0.0
-1.0,-5.0,5.0,-15.0,0.0,9.0,-4.0,-11.0,-3.0,15.0,0.0
4.0,1.0,-41.0,-7.0,0.0,9.0,-16.0,-12.0,-5.0,23.0,0.0
14.0,11.0,-98.0,-1.0,4.0,6.0,-28.0,-11.0,-23.0,29.0,0.0
8.0,15.0,-146.0,-6.0,11.0,3.0,-34.0,-1.0,-16.0,31.0,0.0
0.0,8.0,-149.0,-3.0,8.0,0.0,-27.0,-9.0,-11.0,21.0,0.0
-3.0,12.0,-143.0,-18.0,0.0,-1.0,-18.0,-7.0,-26.0,6.0,0.0
11.0,15.0,-94.0,-15.0,-6.0,-3.0,-17.0,-3.0,-35.0,0.0,0.0
28.0,27.0,-30.0,-4.0,0.0,0.0,-21.0,-1.0,-26.0,12.0,0.0
38.0,28.0,9.0,3.0,7.0,-2.0,-20.0,-17.0,-9.0,18.0,0.0
22.0,7.0,88.0,3.0,8.0,11.0,-5.0,-27.0,-11.0,-21.0,0.0
-9.0,6.0,161.0,13.0,14.0,9.0,19.0,-17.0,-23.0,-57.0,0.0
-61.0,-3.0,235.0,19.0,8.0,12.0,17.0,-13.0,-28.0,-92.0,0.0
-68.0,-12.0,266.0,21.0,7.0,5.0,6.0,-24.0,-28.0,-103.0,0.0
-45.0,-11.0,274.0,27.0,3.0,-10.0,8.0,-29.0,-11.0,-86.0,0.0
-47.0,-20.0,260.0,22.0,-3.0,-14.0,9.0,-26.0,-30.0,-71.0,0.0
-71.0,-55.0,155.0,12.0,-4.0,-9.0,6.0,-30.0,-27.0,-68.0,0.0
-74.0,-49.0,51.0,-4.0,-4.0,-13.0,35.0,-24.0,2.0,-43.0,0.0
-51.0,-30.0,-25.0,-9.0,-3.0,-20.0,26.0,-14.0,27.0,-14.0,0.0
0.0,0.0,-96.0,-1.0,-17.0,-18.0,-16.0,-8.0,38.0,30.0,0.0
15.0,0.0,-162.0,-12.0,-23.0,-11.0,-5.0,-6.0,61.0,46.0,0.0
-2.0,-13.0,-213.0,-10.0,-22.0,-6.0,2.0,0.0,67.0,48.0,0.0
6.0,1.0,-208.0,-5.0,-10.0,-8.0,-4.0,-2.0,47.0,61.0,0.0
19.0,16.0,-203.0,0.0,0.0,-2.0,-5.0,-5.0,33.0,64.0,0.0
19.0,18.0,-152.0,-3.0,-2.0,0.0,3.0,-1.0,38.0,37.0,0.0
13.0,13.0,-64.0,0.0,0.0,3.0,26.0,0.0,42.0,23.0,0.0
16.0,20.0,13.0,7.0,-4.0,2.0,9.0,-1.0,31.0,22.0,0.0
26.0,30.0,91.0,3.0,-8.0,0.0,-31.0,1.0,15.0,19.0,0.0
26.0,34.0,172.0,11.0,8.0,1.0,-13.0,-4.0,-7.0,8.0,0.0
19.0,25.0,244.0,19.0,23.0,2.0,1.0,-5.0,-12.0,13.0,0.0
9.0,22.0,291.0,17.0,23.0,2.0,-19.0,-13.0,9.0,15.0,0.0
10.0,19.0,300.0,11.0,25.0,-5.0,-24.0,-13.0,7.0,16.0,0.0
36.0,29.0,260.0,12.0,18.0,-9.0,-20.0,-16.0,0.0,24.0,0.0
44.0,35.0,129.0,14.0,10.0,-8.0,-5.0,-13.0,-13.0,15.0,0.0
32.0,40.0,42.0,5.0,0.0,-4.0,2.0,0.0,-25.0,16.0,0.0
51.0,63.0,-26.0,15.0,-14.0,-11.0,-6.0,4.0,-17.0,52.0,0.0
76.0,62.0,-105.0,20.0,-18.0,-16.0,-16.0,6.0,-11.0,60.0,0.0
76.0,41.0,-174.0,21.0,-9.0,-6.0,-6.0,8.0,0.0,53.0,0.0
29.0,14.0,-200.0,9.0,-5.0,5.0,24.0,9.0,6.0,19.0,0.0
-13.0,-11.0,-202.0,11.0,-10.0,10.0,42.0,17.0,0.0,-26.0,0.0
-7.0,-23.0,-175.0,4.0,-18.0,20.0,42.0,17.0,2.0,-26.0,0.0
24.0,3.0,-102.0,-1.0,-17.0,29.0,45.0,3.0,15.0,19.0,0.0
0.0,13.0,-22.0,-2.0,-17.0,31.0,68.0,0.0,-1.0,14.0,0.0
-28.0,-2.0,66.0,-6.0,-12.0,29.0,68.0,-1.0,-27.0,2.0,0.0
-9.0,-8.0,141.0,2.0,-1.0,18.0,44.0,-7.0,-35.0,9.0,0.0
-10.0,-10.0,223.0,20.0,7.0,8.0,36.0,-17.0,-32.0,7.0,0.0
-21.0,-14.0,288.0,21.0,16.0,10.0,30.0,-7.0,-33.0,15.0,0.0
-31.0,-22.0,252.0,19.0,10.0,16.0,22.0,-8.0,-20.0,12.0,0.0
-33.0,-36.0,254.0,18.0,12.0,9.0,26.0,-1.0,-13.0,3.0,0.0
-29.0,-28.0,202.0,4.0,8.0,2.0,30.0,-2.0,-13.0,3.0,0.0
6.0,1.0,107.0,-6.0,11.0,9.0,24.0,0.0,-18.0,26.0,0.0
34.0,9.0,24.0,-13.0,5.0,2.0,19.0,-2.0,-22.0,37.0,0.0
30.0,4.0,-53.0,-9.0,-9.0,-7.0,14.0,-1.0,-12.0,33.0,0.0
5.0,-3.0,-135.0,-13.0,-24.0,-4.0,14.0,7.0,-9.0,30.0,0.0
-7.0,-10.0,-186.0,-22.0,-30.0,5.0,-22.0,17.0,-9.0,15.0,0.0
1.0,1.0,-195.0,-19.0,-47.0,15.0,-27.0,19.0,-1.0,17.0,0.0
0.0,16.0,-176.0,-23.0,-55.0,4.0,-14.0,18.0,11.0,19.0,0.0
-24.0,10.0,-127.0,-21.0,-40.0,-6.0,-11.0,7.0,31.0,3.0,0.0
-44.0,-6.0,-49.0,-34.0,-30.0,-10.0,-34.0,-5.0,12.0,-10.0,0.0
-48.0,-3.0,47.0,-26.0,-25.0,-17.0,-34.0,-13.0,4.0,-6.0,0.0
-39.0,-3.0,118.0,-25.0,-16.0,-17.0,-20.0,-16.0,15.0,-6.0,0.0
-29.0,9.0,166.0,-32.0,-15.0,-16.0,0.0,-7.0,21.0,-6.0,0.0
-15.0,7.0,222.0,-31.0,-19.0,-8.0,19.0,0.0,26.0,0.0,0.0
-19.0,0.0,246.0,-24.0,-19.0,-6.0,20.0,6.0,13.0,-1.0,0.0
-34.0,0.0,279.0,-24.0,-16.0,-7.0,-4.0,7.0,-1.0,-3.0,0.0
-27.0,-4.0,254.0,-36.0,-26.0,-20.0,-9.0,4.0,8.0,-6.0,0.0
-17.0,2.0,156.0,-36.0,-32.0,-21.0,-14.0,10.0,17.0,5.0,0.0
-15.0,-2.0,37.0,-13.0,-41.0,-20.0,-15.0,22.0,17.0,8.0,0.0
-10.0,0.0,-69.0,2.0,-35.0,-10.0,-22.0,25.0,20.0,15.0,0.0
-5.0,7.0,-123.0,12.0,-25.0,-5.0,-15.0,17.0,28.0,30.0,0.0
8.0,23.0,-153.0,30.0,-8.0,-6.0,-9.0,10.0,40.0,28.0,0.0
9.0,13.0,-191.0,32.0,-7.0,-2.0,4.0,17.0,58.0,22.0,0.0
-5.0,-2.0,-191.0,36.0,-1.0,12.0,49.0,31.0,69.0,20.0,0.0
-20.0,-13.0,-182.0,27.0,0.0,8.0,65.0,32.0,58.0,1.0,0.0
-11.0,-17.0,-131.0,24.0,7.0,6.0,66.0,26.0,43.0,-13.0,0.0
-4.0,-2.0,-44.0,29.0,13.0,17.0,67.0,13.0,21.0,-24.0,0.0
-8.0,4.0,7.0,36.0,19.0,24.0,58.0,16.0,-13.0,-46.0,0.0
5.0,2.0,93.0,38.0,13.0,23.0,42.0,16.0,-32.0,-36.0,0.0
33.0,-6.0,207.0,24.0,8.0,21.0,10.0,0.0,-31.0,-15.0,0.0
39.0,-25.0,254.0,13.0,0.0,17.0,-23.0,3.0,-19.0,-9.0,0.0
47.0,-15.0,274.0,17.0,-1.0,18.0,-30.0,7.0,-11.0,23.0,0.0
55.0,-3.0,287.0,23.0,-6.0,5.0,-43.0,10.0,6.0,34.0,0.0
27.0,-10.0,241.0,19.0,-14.0,-5.0,-34.0,2.0,5.0,10.0,0.0
22.0,1.0,150.0,13.0,-12.0,-4.0,-23.0,-1.0,-7.0,-4.0,0.0
17.0,16.0,26.0,4.0,-18.0,2.0,-15.0,1.0,-10.0,-14.0,0.0
-1.0,11.0,-131.0,0.0,-20.0,-1.0,-31.0,-8.0,-39.0,-29.0,0.0
-6.0,19.0,-173.0,6.0,-14.0,3.0,-9.0,-8.0,-64.0,-39.0,0.0
16.0,35.0,-185.0,10.0,-11.0,-1.0,9.0,-5.0,-52.0,-17.0,0.0
16.0,31.0,-202.0,24.0,-8.0,-4.0,-4.0,-10.0,-45.0,-5.0,0.0
4.0,7.0,-193.0,34.0,3.0,-6.0,10.0,-10.0,-53.0,-17.0,0.0
-10.0,-23.0,-155.0,39.0,34.0,14.0,-12.0,-4.0,-49.0,-31.0,0.0
-21.0,-33.0,-95.0,40.0,49.0,24.0,-29.0,-1.0,-36.0,-33.0,0.0
-21.0,-21.0,-59.0,27.0,41.0,22.0,-10.0,3.0,-17.0,-22.0,0.0
-11.0,-8.0,17.0,3.0,30.0,19.0,16.0,10.0,-15.0,-30.0,0.0
-16.0,-17.0,107.0,-3.0,26.0,21.0,-18.0,15.0,-33.0,-43.0,0.0
-39.0,-23.0,201.0,-3.0,32.0,19.0,-30.0,8.0,-26.0,-59.0,0.0
-42.0,-16.0,252.0,-7.0,27.0,14.0,-2.0,5.0,-30.0,-75.0,0.0
-34.0,-20.0,294.0,-9.0,6.0,10.0,-10.0,4.0,-36.0,-70.0,0.0
-35.0,-35.0,265.0,-11.0,0.0,8.0,-44.0,0.0,-33.0,-75.0,0.0
-44.0,-47.0,185.0,-19.0,-3.0,10.0,-53.0,6.0,-21.0,-78.0,0.0
-41.0,-49.0,74.0,-35.0,0.0,0.0,-36.0,14.0,-9.0,-66.0,0.0
-5.0,-37.0,-27.0,-35.0,8.0,-4.0,-28.0,14.0,-2.0,-37.0,0.0
39.0,-28.0,-124.0,-22.0,0.0,4.0,-38.0,3.0,33.0,22.0,0.0
57.0,-22.0,-201.0,-21.0,-8.0,5.0,-30.0,4.0,65.0,49.0,0.0
54.0,-2.0,-176.0,-1.0,5.0,0.0,11.0,-4.0,63.0,72.0,0.0
55.0,5.0,-133.0,22.0,15.0,-5.0,39.0,-8.0,75.0,78.0,0.0
32.0,9.0,-127.0,21.0,12.0,1.0,15.0,2.0,85.0,59.0,0.0
0.0,8.0,-82.0,15.0,17.0,7.0,14.0,11.0,50.0,53.0,0.0
-6.0,10.0,-3.0,21.0,37.0,14.0,24.0,15.0,20.0,44.0,0.0
16.0,0.0,41.0,33.0,36.0,17.0,-3.0,24.0,6.0,40.0,0.0
39.0,-11.0,131.0,34.0,27.0,12.0,19.0,24.0,-4.0,36.0,0.0
40.0,3.0,230.0,25.0,12.0,12.0,30.0,20.0,-20.0,26.0,0.0
12.0,-1.0,250.0,27.0,21.0,4.0,16.0,13.0,-38.0,17.0,0.0
0.0,-25.0,259.0,23.0,13.0,6.0,22.0,11.0,-36.0,0.0,0.0
0.0,-24.0,308.0,-9.0,-3.0,14.0,24.0,16.0,-33.0,-8.0,0.0
6.0,-30.0,268.0,-34.0,-24.0,4.0,7.0,7.0,-24.0,2.0,0.0
8.0,-32.0,132.0,-53.0,-45.0,0.0,0.0,3.0,-10.0,-1.0,0.0
6.0,-17.0,33.0,-64.0,-32.0,-2.0,18.0,-3.0,-23.0,-5.0,0.0
6.0,-10.0,-6.0,-43.0,-17.0,-8.0,6.0,1.0,-25.0,-7.0,0.0
12.0,1.0,-50.0,-15.0,-3.0,-7.0,-27.0,-3.0,-11.0,5.0,0.0
20.0,8.0,-116.0,-15.0,-1.0,-12.0,-34.0,-12.0,9.0,10.0,0.0
19.0,-4.0,-186.0,-17.0,-5.0,-21.0,-4.0,0.0,13.0,-1.0,0.0
4.0,-13.0,-237.0,-13.0,-12.0,-18.0,15.0,10.0,9.0,1.0,0.0
-34.0,-10.0,-198.0,-5.0,-13.0,-6.0,-11.0,20.0,-2.0,-17.0,0.0
-38.0,-8.0,-142.0,0.0,-8.0,8.0,-17.0,19.0,-6.0,-40.0,0.0
-42.0,2.0,-44.0,3.0,-4.0,11.0,13.0,10.0,-9.0,-50.0,0.0
-66.0,-23.0,72.0,-5.0,-2.0,4.0,40.0,10.0,-24.0,-80.0,0.0
-51.0,-29.0,138.0,0.0,-6.0,-7.0,24.0,0.0,-43.0,-78.0,0.0
7.0,5.0,233.0,11.0,-2.0,-2.0,-18.0,-20.0,-47.0,0.0,0.0
12.0,5.0,299.0,10.0,0.0,-8.0,-32.0,-30.0,-45.0,4.0,0.0
2.0,6.0,301.0,0.0,-9.0,-5.0,-30.0,-23.0,-50.0,-23.0,0.0
10.0,17.0,272.0,-14.0,-9.0,0.0,-27.0,-21.0,-50.0,-12.0,0.0
6.0,9.0,234.0,-3.0,-15.0,8.0,-28.0,-9.0,-37.0,-15.0,0.0
-8.0,0.0,174.0,-8.0,-23.0,10.0,-23.0,-5.0,-23.0,-21.0,0.0
-34.0,10.0,71.0,-11.0,-23.0,1.0,-17.0,2.0,-12.0,-28.0,0.0
-38.0,26.0,-33.0,-4.0,-19.0,-11.0,-2.0,4.0,11.0,-22.0,0.0
1.0,45.0,-101.0,4.0,-22.0,-13.0,5.0,3.0,48.0,8.0,0.0
12.0,39.0,-162.0,11.0,-37.0,-10.0,-2.0,12.0,35.0,14.0,0.0
-8.0,6.0,-231.0,9.0,-19.0,-11.0,5.0,24.0,15.0,-14.0,0.0
-9.0,6.0,-176.0,11.0,6.0,-12.0,31.0,14.0,25.0,0.0,0.0
14.0,17.0,-125.0,0.0,15.0,-15.0,8.0,5.0,21.0,44.0,0.0
10.0,-3.0,-63.0,-18.0,16.0,-11.0,-17.0,6.0,14.0,58.0,0.0
4.0,-17.0,20.0,-14.0,17.0,-21.0,-20.0,10.0,22.0,45.0,0.0
-6.0,-21.0,107.0,14.0,18.0,-22.0,-20.0,7.0,27.0,19.0,0.0
-19.0,-31.0,197.0,12.0,16.0,-16.0,-32.0,1.0,24.0,12.0,0.0
-6.0,-15.0,270.0,2.0,16.0,-4.0,-45.0,0.0,27.0,18.0,0.0
-8.0,-15.0,295.0,2.0,20.0,16.0,-32.0,-1.0,19.0,13.0,0.0
-12.0,-17.0,310.0,0.0,21.0,28.0,-4.0,-4.0,18.0,11.0,0.0
9.0,8.0,297.0,7.0,22.0,17.0,2.0,-6.0,8.0,21.0,0.0
12.0,20.0,216.0,16.0,28.0,10.0,5.0,-11.0,-10.0,-3.0,0.0
11.0,20.0,126.0,9.0,36.0,0.0,21.0,-8.0,-4.0,-20.0,0.0
15.0,25.0,17.0,-10.0,28.0,-4.0,8.0,-3.0,5.0,-6.0,0.0
11.0,22.0,-67.0,0.0,12.0,-2.0,-17.0,-9.0,-13.0,-10.0,0.0
13.0,21.0,-132.0,5.0,16.0,-10.0,-20.0,-11.0,-28.0,-9.0,0.0
25.0,26.0,-191.0,0.0,20.0,-13.0,-5.0,2.0,-28.0,-13.0,0.0
14.0,25.0,-225.0,-6.0,9.0,-20.0,1.0,6.0,-17.0,-23.0,0.0
17.0,17.0,-254.0,-11.0,1.0,-14.0,0.0,9.0,-17.0,-31.0,0.0
48.0,14.0,-168.0,-9.0,-6.0,-14.0,10.0,10.0,-17.0,-5.0,0.0
64.0,12.0,-34.0,-9.0,-5.0,-17.0,28.0,11.0,-10.0,20.0,0.0
36.0,-6.0,67.0,-1.0,-14.0,-23.0,22.0,6.0,-2.0,18.0,0.0
15.0,-8.0,138.0,-18.0,-31.0,-29.0,33.0,2.0,-8.0,21.0,0.0
17.0,3.0,191.0,-28.0,-27.0,-29.0,33.0,-1.0,5.0,25.0,0.0
5.0,-10.0,187.0,-31.0,-21.0,-27.0,4.0,-5.0,18.0,19.0,0.0
-24.0,-27.0,246.0,-14.0,-20.0,-18.0,21.0,3.0,44.0,15.0,0.0
-22.0,-34.0,283.0,4.0,-18.0,-14.0,15.0,10.0,78.0,26.0,0.0
-4.0,-35.0,205.0,4.0,-7.0,-3.0,7.0,8.0,94.0,33.0,0.0
-7.0,-18.0,86.0,4.0,-3.0,1.0,18.0,13.0,100.0,32.0,0.0
-29.0,-12.0,39.0,4.0,6.0,6.0,-9.0,21.0,130.0,31.0,0.0
-40.0,-17.0,-39.0,1.0,9.0,0.0,-13.0,39.0,136.0,37.0,0.0
-45.0,-22.0,-122.0,10.0,8.0,-6.0,-5.0,34.0,61.0,28.0,0.0
-29.0,-27.0,-191.0,7.0,18.0,-10.0,-1.0,27.0,13.0,9.0,0.0
-23.0,-21.0,-215.0,-2.0,20.0,-5.0,-12.0,22.0,-32.0,-6.0,0.0
-24.0,-10.0,-216.0,-3.0,10.0,-6.0,-31.0,16.0,-44.0,-12.0,0.0
-25.0,-19.0,-191.0,-10.0,8.0,-12.0,-21.0,6.0,-39.0,-15.0,0.0
-29.0,-2.0,-133.0,2.0,11.0,-6.0,-7.0,-9.0,-31.0,-24.0,0.0
-12.0,10.0,-91.0,10.0,4.0,-11.0,-15.0,-14.0,-13.0,-11.0,0.0
-12.0,22.0,-61.0,2.0,-2.0,-19.0,-17.0,-8.0,-4.0,-5.0,0.0
-4.0,24.0,49.0,2.0,6.0,-20.0,-11.0,-13.0,9.0,0.0,0.0
5.0,27.0,114.0,9.0,9.0,-15.0,-4.0,-7.0,21.0,6.0,0.0
-11.0,26.0,193.0,5.0,-7.0,0.0,-1.0,5.0,28.0,6.0,0.0
-20.0,13.0,233.0,0.0,-9.0,8.0,-18.0,-3.0,19.0,10.0,0.0
-36.0,8.0,221.0,3.0,-2.0,13.0,-19.0,-5.0,1.0,1.0,0.0
-38.0,6.0,149.0,7.0,2.0,14.0,13.0,-2.0,-10.0,-14.0,0.0
-27.0,4.0,63.0,15.0,3.0,13.0,7.0,0.0,-15.0,-28.0,0.0
-1.0,0.0,-20.0,20.0,7.0,1.0,-10.0,0.0,-14.0,-27.0,0.0
12.0,-12.0,-123.0,18.0,11.0,0.0,-4.0,5.0,0.0,-32.0,0.0
-9.0,-26.0,-221.0,12.0,13.0,2.0,10.0,1.0,-5.0,-42.0,0.0
-26.0,-31.0,-271.0,7.0,11.0,1.0,1.0,7.0,-13.0,-52.0,0.0
-18.0,-17.0,-260.0,8.0,14.0,-6.0,-10.0,10.0,-18.0,-47.0,0.0
-14.0,-22.0,-247.0,0.0,9.0,-4.0,4.0,6.0,-27.0,-38.0,0.0
10.0,-9.0,-190.0,-2.0,1.0,-3.0,6.0,-1.0,-24.0,-23.0,0.0
30.0,6.0,-97.0,1.0,0.0,-11.0,3.0,1.0,-15.0,-4.0,0.0
18.0,1.0,-30.0,-11.0,3.0,-13.0,-4.0,5.0,7.0,-12.0,0.0
0.0,-9.0,39.0,-19.0,6.0,-6.0,-4.0,8.0,30.0,-19.0,0.0
9.0,-2.0,119.0,-6.0,6.0,-2.0,0.0,7.0,46.0,-5.0,0.0
15.0,-16.0,172.0,0.0,14.0,-2.0,29.0,5.0,67.0,-10.0,0.0
5.0,-21.0,196.0,2.0,0.0,0.0,49.0,5.0,78.0,-24.0,0.0
21.0,-12.0,150.0,5.0,1.0,4.0,15.0,-2.0,72.0,-13.0,0.0
40.0,-8.0,151.0,-6.0,-3.0,-10.0,-7.0,5.0,68.0,11.0,0.0
37.0,10.0,117.0,-12.0,-3.0,-15.0,-2.0,15.0,56.0,10.0,0.0
29.0,11.0,27.0,0.0,0.0,-2.0,-17.0,9.0,29.0,0.0,0.0
43.0,9.0,-64.0,11.0,5.0,5.0,-30.0,-3.0,11.0,-2.0,0.0
49.0,20.0,-124.0,17.0,7.0,3.0,-20.0,-8.0,-18.0,21.0,0.0
53.0,27.0,-192.0,12.0,14.0,1.0,9.0,-4.0,-35.0,25.0,0.0
42.0,27.0,-233.0,3.0,14.0,1.0,7.0,-8.0,-36.0,28.0,0.0
38.0,25.0,-256.0,-2.0,16.0,-2.0,-12.0,-4.0,-32.0,18.0,0.0
38.0,36.0,-239.0,-5.0,12.0,-10.0,0.0,-1.0,-24.0,10.0,0.0
44.0,48.0,-158.0,-3.0,6.0,-10.0,21.0,0.0,-12.0,-8.0,0.0
28.0,48.0,-71.0,-5.0,8.0,-4.0,39.0,-4.0,-5.0,-15.0,0.0
10.0,40.0,-36.0,-7.0,14.0,-3.0,56.0,-10.0,7.0,-3.0,0.0
-4.0,44.0,28.0,-9.0,9.0,-6.0,54.0,-19.0,37.0,-8.0,0.0
-15.0,42.0,148.0,0.0,3.0,-3.0,24.0,-13.0,64.0,-29.0,0.0
-29.0,40.0,209.0,-18.0,-4.0,-3.0,5.0,-8.0,54.0,-26.0,0.0
-34.0,13.0,234.0,-23.0,-9.0,-2.0,9.0,-5.0,32.0,-14.0,0.0
-30.0,-11.0,227.0,-13.0,-3.0,1.0,25.0,-14.0,7.0,-5.0,0.0
-3.0,-9.0,168.0,-10.0,7.0,0.0,45.0,-15.0,-11.0,3.0,0.0
-1.0,-22.0,49.0,-8.0,10.0,2.0,51.0,-1.0,-7.0,-8.0,0.0
-3.0,-20.0,-48.0,0.0,0.0,5.0,38.0,4.0,17.0,0.0,0.0
-7.0,-20.0,-122.0,-2.0,-6.0,2.0,37.0,13.0,9.0,1.0,0.0
-45.0,-55.0,-212.0,-4.0,8.0,1.0,18.0,18.0,-15.0,-27.0,0.0
-61.0,-66.0,-287.0,0.0,16.0,2.0,12.0,10.0,0.0,-43.0,0.0
-42.0,-37.0,-301.0,-13.0,8.0,13.0,-13.0,-6.0,52.0,-26.0,0.0
-49.0,-28.0,-275.0,-21.0,8.0,13.0,-12.0,-9.0,26.0,-31.0,0.0
-50.0,-18.0,-225.0,-23.0,0.0,8.0,-1.0,-7.0,-4.0,-50.0,0.0
-21.0,6.0,-148.0,-18.0,-1.0,16.0,5.0,-9.0,-3.0,-23.0,0.0
6.0,25.0,-56.0,-13.0,-2.0,23.0,11.0,-13.0,-6.0,11.0,0.0
-6.0,27.0,34.0,-10.0,2.0,10.0,1.0,-19.0,-22.0,6.0,0.0
-2.0,20.0,105.0,-15.0,1.0,7.0,4.0,-17.0,-22.0,-23.0,0.0
0.0,12.0,155.0,-16.0,-7.0,-3.0,16.0,8.0,-12.0,-27.0,0.0
-27.0,-4.0,189.0,-21.0,-17.0,-2.0,10.0,17.0,-20.0,-34.0,0.0
-33.0,0.0,199.0,-19.0,-14.0,-2.0,-11.0,0.0,-26.0,-13.0,0.0
6.0,9.0,174.0,-10.0,-12.0,-11.0,-4.0,-12.0,-23.0,26.0,0.0
34.0,0.0,121.0,-8.0,-17.0,-16.0,14.0,-23.0,-20.0,48.0,0.0
27.0,-5.0,39.0,-21.0,-16.0,-7.0,-4.0,-25.0,-23.0,31.0,0.0
12.0,-7.0,-53.0,-24.0,-27.0,-9.0,-28.0,-18.0,-26.0,7.0,0.0
22.0,4.0,-132.0,-33.0,-33.0,-16.0,-29.0,-13.0,-27.0,9.0,0.0
25.0,21.0,-211.0,-21.0,-17.0,-1.0,-17.0,-15.0,-37.0,-2.0,0.0
11.0,26.0,-269.0,-8.0,4.0,22.0,-22.0,-8.0,-67.0,-33.0,0.0
8.0,30.0,-272.0,4.0,22.0,17.0,-27.0,-8.0,-65.0,-34.0,0.0
16.0,50.0,-231.0,0.0,6.0,0.0,-15.0,-9.0,-37.0,-15.0,0.0
21.0,47.0,-185.0,-6.0,0.0,4.0,-18.0,-13.0,-13.0,2.0,0.0
0.0,-2.0,-125.0,-10.0,2.0,3.0,-24.0,-24.0,2.0,-9.0,0.0
-28.0,-32.0,-51.0,-13.0,-9.0,-2.0,-14.0,-21.0,11.0,-40.0,0.0
-49.0,-34.0,32.0,-12.0,-15.0,10.0,-1.0,-13.0,27.0,-41.0,0.0
-64.0,-36.0,109.0,-13.0,-15.0,16.0,17.0,-5.0,25.0,-46.0,0.0
-52.0,-48.0,159.0,-17.0,-9.0,18.0,24.0,-1.0,26.0,-27.0,0.0
-15.0,-39.0,210.0,-6.0,-8.0,23.0,12.0,-3.0,12.0,28.0,0.0
2.0,-30.0,235.0,0.0,-12.0,32.0,22.0,3.0,-8.0,50.0,0.0
4.0,-19.0,192.0,-7.0,-15.0,32.0,-3.0,5.0,-15.0,55.0,0.0
-6.0,-20.0,86.0,-3.0,-14.0,22.0,-18.0,8.0,-18.0,31.0,0.0
-25.0,-32.0,-1.0,2.0,-17.0,27.0,-2.0,12.0,-18.0,6.0,0.0
-31.0,-44.0,-90.0,4.0,-15.0,27.0,13.0,9.0,-16.0,-8.0,0.0
-44.0,-50.0,-191.0,6.0,-8.0,26.0,-5.0,-6.0,-18.0,-15.0,0.0
-33.0,-43.0,-246.0,18.0,5.0,20.0,-13.0,-6.0,-4.0,-4.0,0.0
-12.0,-30.0,-273.0,28.0,3.0,9.0,-7.0,-5.0,11.0,6.0,0.0
-3.0,-14.0,-279.0,38.0,1.0,1.0,-12.0,1.0,29.0,5.0,0.0
16.0,-6.0,-268.0,49.0,-1.0,-5.0,1.0,9.0,28.0,12.0,0.0
29.0,11.0,-234.0,44.0,-6.0,-12.0,28.0,10.0,12.0,26.0,0.0
15.0,9.0,-99.0,29.0,1.0,-13.0,38.0,6.0,14.0,21.0,0.0
-2.0,0.0,-8.0,29.0,-1.0,-8.0,40.0,3.0,26.0,17.0,0.0
-18.0,8.0,55.0,28.0,3.0,-3.0,6.0,0.0,14.0,3.0,0.0
4.0,1.0,142.0,30.0,1.0,0.0,-8.0,-14.0,9.0,10.0,0.0
41.0,2.0,210.0,1.0,-10.0,6.0,-19.0,-16.0,10.0,29.0,0.0
38.0,6.0,236.0,-12.0,-11.0,0.0,-39.0,-24.0,-4.0,14.0,0.0
22.0,17.0,164.0,-16.0,2.0,6.0,-33.0,-22.0,-24.0,1.0,0.0
21.0,14.0,87.0,-11.0,1.0,3.0,-4.0,-16.0,-5.0,4.0,0.0
11.0,0.0,20.0,-5.0,-1.0,-4.0,1.0,-5.0,-13.0,-9.0,0.0
-5.0,-13.0,-86.0,-5.0,4.0,-4.0,23.0,3.0,-21.0,-18.0,0.0
-6.0,-11.0,-159.0,-11.0,10.0,-7.0,16.0,7.0,-21.0,-25.0,0.0
-10.0,7.0,-212.0,-11.0,10.0,-12.0,-10.0,10.0,-28.0,-33.0,0.0
-19.0,13.0,-257.0,0.0,10.0,-5.0,-11.0,6.0,-33.0,-47.0,0.0
-16.0,12.0,-267.0,-9.0,7.0,8.0,4.0,6.0,-35.0,-53.0,0.0
19.0,17.0,-235.0,3.0,-1.0,8.0,14.0,-7.0,-27.0,-20.0,0.0
34.0,25.0,-184.0,7.0,0.0,-4.0,17.0,-19.0,-21.0,11.0,0.0
23.0,11.0,-130.0,1.0,-3.0,-13.0,0.0,-16.0,10.0,2.0,0.0
11.0,6.0,-57.0,-9.0,-10.0,-10.0,-2.0,-20.0,9.0,-7.0,0.0
3.0,16.0,18.0,-20.0,-15.0,-8.0,18.0,-27.0,4.0,-6.0,0.0
-12.0,3.0,102.0,-24.0,-23.0,-9.0,37.0,-27.0,9.0,0.0,0.0
-12.0,-16.0,157.0,-30.0,-18.0,-7.0,35.0,-17.0,30.0,0.0,0.0
-21.0,-23.0,175.0,-25.0,-14.0,-5.0,25.0,-14.0,44.0,2.0,0.0
-17.0,-24.0,157.0,-20.0,-16.0,-6.0,19.0,-17.0,41.0,6.0,0.0
-4.0,-11.0,104.0,-18.0,-4.0,0.0,17.0,-16.0,35.0,29.0,0.0
19.0,0.0,71.0,-20.0,2.0,3.0,38.0,-11.0,14.0,38.0,0.0
18.0,8.0,-9.0,-9.0,17.0,6.0,28.0,-5.0,-11.0,23.0,0.0
23.0,26.0,-121.0,3.0,18.0,-9.0,21.0,0.0,-10.0,5.0,0.0
23.0,34.0,-203.0,2.0,19.0,-11.0,7.0,-5.0,-38.0,-12.0,0.0
21.0,35.0,-244.0,0.0,18.0,7.0,6.0,-3.0,-44.0,-32.0,0.0
23.0,48.0,-284.0,8.0,14.0,16.0,-1.0,0.0,9.0,-23.0,0.0
8.0,37.0,-307.0,5.0,1.0,-3.0,-7.0,9.0,-2.0,-12.0,0.0
-15.0,15.0,-296.0,0.0,10.0,-19.0,-19.0,11.0,-16.0,-29.0,0.0
-46.0,4.0,-239.0,2.0,12.0,-16.0,-25.0,1.0,-39.0,-41.0,0.0
-34.0,7.0,-144.0,9.0,12.0,-21.0,-12.0,-8.0,-46.0,0.0,0.0
-29.0,6.0,-49.0,4.0,6.0,-28.0,-29.0,-6.0,-50.0,14.0,0.0
-64.0,-3.0,15.0,-13.0,0.0,-17.0,-36.0,4.0,-47.0,-22.0,0.0
-64.0,6.0,93.0,-15.0,-5.0,-9.0,-26.0,-7.0,-29.0,-7.0,0.0
-26.0,-7.0,172.0,-17.0,0.0,-1.0,-21.0,-10.0,-13.0,9.0,0.0
19.0,-18.0,214.0,-17.0,-4.0,-9.0,-25.0,-4.0,10.0,40.0,0.0
58.0,0.0,244.0,-5.0,0.0,-16.0,-42.0,-1.0,31.0,77.0,0.0
70.0,20.0,196.0,0.0,11.0,-5.0,-31.0,-4.0,22.0,96.0,0.0
50.0,16.0,82.0,-1.0,14.0,4.0,15.0,-6.0,10.0,92.0,0.0
26.0,23.0,-10.0,1.0,12.0,2.0,25.0,-3.0,-3.0,55.0,0.0
30.0,36.0,-81.0,5.0,8.0,-4.0,30.0,3.0,-21.0,32.0,0.0
28.0,18.0,-154.0,5.0,12.0,-3.0,28.0,-4.0,-45.0,9.0,0.0
16.0,-7.0,-225.0,0.0,11.0,12.0,3.0,-12.0,-48.0,-19.0,0.0
9.0,-15.0,-246.0,-2.0,9.0,6.0,-20.0,-8.0,-28.0,-33.0,0.0
-2.0,0.0,-243.0,0.0,8.0,-5.0,-29.0,1.0,-13.0,-28.0,0.0
-8.0,32.0,-200.0,0.0,3.0,-10.0,-20.0,0.0,-21.0,-23.0,0.0
0.0,38.0,-127.0,-8.0,-4.0,-14.0,-21.0,-13.0,-22.0,2.0,0.0
5.0,33.0,-57.0,-15.0,-7.0,-9.0,-44.0,-6.0,-15.0,8.0,0.0
18.0,24.0,38.0,7.0,-8.0,-11.0,-57.0,-4.0,-20.0,12.0,0.0
30.0,27.0,96.0,10.0,-6.0,-29.0,-41.0,-11.0,-30.0,18.0,0.0
53.0,33.0,143.0,-10.0,-11.0,-40.0,-36.0,-13.0,-25.0,26.0,0.0
55.0,15.0,258.0,-13.0,-16.0,-41.0,-40.0,-10.0,-14.0,36.0,0.0
19.0,-18.0,290.0,6.0,-7.0,-35.0,-25.0,-19.0,-18.0,24.0,0.0
-7.0,-47.0,257.0,6.0,-6.0,-28.0,-1.0,-21.0,-7.0,2.0,0.0
-21.0,-53.0,174.0,4.0,-10.0,-21.0,3.0,-10.0,-3.0,-1.0,0.0
-28.0,-29.0,66.0,8.0,-3.0,-2.0,11.0,-15.0,12.0,0.0,0.0
-21.0,-26.0,-49.0,15.0,-5.0,20.0,8.0,-32.0,20.0,-4.0,0.0
-22.0,-31.0,-119.0,7.0,-5.0,19.0,18.0,-29.0,9.0,-14.0,0.0
-33.0,-7.0,-207.0,9.0,-8.0,21.0,14.0,-19.0,7.0,-28.0,0.0
-29.0,-1.0,-327.0,18.0,-29.0,4.0,-4.0,2.0,16.0,-24.0,0.0
-21.0,-13.0,-350.0,17.0,-34.0,0.0,-5.0,8.0,31.0,-22.0,0.0
-38.0,-30.0,-268.0,18.0,-24.0,4.0,-3.0,16.0,52.0,-45.0,0.0
-56.0,-49.0,-210.0,14.0,-9.0,17.0,-12.0,12.0,32.0,-65.0,0.0
-48.0,-46.0,-139.0,9.0,4.0,24.0,-11.0,3.0,3.0,-69.0,0.0
-33.0,-46.0,-56.0,10.0,14.0,25.0,12.0,-5.0,-15.0,-77.0,0.0
-47.0,-56.0,23.0,0.0,18.0,23.0,28.0,-6.0,-19.0,-88.0,0.0
-47.0,-67.0,105.0,-12.0,7.0,27.0,35.0,6.0,-20.0,-85.0,0.0
-36.0,-61.0,167.0,-25.0,0.0,17.0,28.0,14.0,-15.0,-67.0,0.0
-28.0,-52.0,216.0,-28.0,2.0,3.0,7.0,9.0,-1.0,-27.0,0.0
-19.0,-39.0,231.0,-25.0,-4.0,-2.0,14.0,5.0,0.0,-9.0,0.0
-6.0,-19.0,195.0,-41.0,-16.0,-11.0,7.0,9.0,6.0,0.0,0.0
14.0,-6.0,106.0,-51.0,-13.0,-22.0,12.0,17.0,28.0,21.0,0.0
28.0,-16.0,10.0,-58.0,-17.0,-17.0,17.0,21.0,42.0,25.0,0.0
21.0,-16.0,-79.0,-49.0,-9.0,-11.0,10.0,18.0,48.0,18.0,0.0
22.0,-17.0,-149.0,-28.0,5.0,-2.0,26.0,24.0,60.0,20.0,0.0
31.0,-5.0,-197.0,-26.0,10.0,0.0,35.0,23.0,71.0,33.0,0.0
33.0,-1.0,-218.0,-24.0,7.0,-1.0,23.0,21.0,85.0,48.0,0.0
42.0,8.0,-198.0,-9.0,5.0,-6.0,14.0,17.0,88.0,76.0,0.0
53.0,15.0,-144.0,12.0,0.0,-9.0,24.0,19.0,65.0,86.0,0.0
41.0,3.0,-108.0,28.0,4.0,-9.0,18.0,14.0,25.0,52.0,0.0
23.0,11.0,-59.0,33.0,8.0,0.0,-1.0,7.0,-9.0,8.0,0.0
23.0,12.0,-31.0,30.0,1.0,-3.0,9.0,15.0,-17.0,-13.0,0.0
32.0,18.0,4.0,18.0,-7.0,-5.0,5.0,6.0,-31.0,-18.0,0.0
37.0,37.0,125.0,29.0,-12.0,-1.0,-22.0,3.0,-23.0,-6.0,0.0
38.0,35.0,219.0,23.0,-13.0,1.0,-15.0,5.0,-31.0,-9.0,0.0
17.0,17.0,268.0,17.0,-1.0,3.0,-25.0,-1.0,-45.0,-30.0,0.0
-12.0,11.0,259.0,14.0,10.0,11.0,-38.0,-10.0,-37.0,-53.0,0.0
-13.0,-3.0,202.0,11.0,18.0,18.0,-20.0,-10.0,-13.0,-60.0,0.0
-20.0,-23.0,82.0,4.0,13.0,19.0,-18.0,0.0,1.0,-63.0,0.0
-5.0,-14.0,-9.0,3.0,0.0,15.0,-23.0,0.0,13.0,-47.0,0.0
-2.0,-20.0,-86.0,11.0,-3.0,3.0,6.0,13.0,15.0,-37.0,0.0
-26.0,-27.0,-148.0,13.0,-11.0,3.0,30.0,30.0,18.0,-47.0,0.0
-33.0,-14.0,-206.0,6.0,-22.0,7.0,34.0,28.0,11.0,-61.0,0.0
11.0,13.0,-248.0,10.0,-28.0,0.0,19.0,18.0,12.0,-10.0,0.0
65.0,47.0,-263.0,7.0,-24.0,-17.0,0.0,9.0,16.0,45.0,0.0
96.0,53.0,-195.0,12.0,-22.0,-19.0,0.0,-6.0,23.0,51.0,0.0
112.0,62.0,-68.0,17.0,-24.0,-8.0,-4.0,-7.0,21.0,39.0,0.0
86.0,43.0,22.0,15.0,-23.0,11.0,4.0,-2.0,5.0,28.0,0.0
62.0,21.0,96.0,14.0,-22.0,8.0,23.0,-3.0,-5.0,24.0,0.0
42.0,8.0,173.0,10.0,-21.0,4.0,15.0,-2.0,-9.0,12.0,0.0
12.0,16.0,241.0,11.0,-2.0,10.0,9.0,-5.0,-22.0,-4.0,0.0
-9.0,19.0,275.0,7.0,16.0,5.0,10.0,-14.0,-42.0,-18.0,0.0
1.0,23.0,284.0,5.0,22.0,-1.0,2.0,-12.0,-40.0,-8.0,0.0
10.0,16.0,246.0,3.0,23.0,-3.0,-10.0,-7.0,-2.0,24.0,0.0
-11.0,-8.0,150.0,-14.0,20.0,2.0,-23.0,-3.0,8.0,15.0,0.0
-47.0,-39.0,34.0,-8.0,19.0,10.0,-12.0,18.0,15.0,-20.0,0.0
-66.0,-30.0,-56.0,-18.0,21.0,10.0,2.0,29.0,7.0,-47.0,0.0
-44.0,-15.0,-127.0,-15.0,17.0,3.0,-13.0,20.0,13.0,-39.0,0.0
0.0,8.0,-168.0,2.0,18.0,3.0,-22.0,2.0,10.0,18.0,0.0
0.0,20.0,-177.0,3.0,19.0,7.0,-20.0,-13.0,-11.0,15.0,0.0
-12.0,16.0,-187.0,2.0,10.0,17.0,-18.0,-4.0,-16.0,-5.0,0.0
-1.0,16.0,-161.0,3.0,0.0,15.0,-11.0,-1.0,-19.0,4.0,0.0
16.0,12.0,-142.0,-5.0,-1.0,6.0,-3.0,-7.0,-18.0,31.0,0.0
7.0,13.0,-83.0,-16.0,0.0,6.0,-11.0,3.0,-24.0,28.0,0.0
-12.0,-4.0,13.0,-8.0,-2.0,7.0,-8.0,-6.0,-32.0,6.0,0.0
-16.0,-14.0,72.0,-8.0,-10.0,9.0,15.0,-12.0,-31.0,-3.0,0.0
0.0,-5.0,106.0,-19.0,-13.0,6.0,-10.0,-17.0,-23.0,-12.0,0.0
6.0,2.0,152.0,-24.0,-18.0,-8.0,-39.0,-20.0,-9.0,12.0,0.0
-2.0,-9.0,248.0,-13.0,-19.0,-19.0,-21.0,-20.0,-13.0,11.0,0.0
-9.0,-16.0,253.0,-8.0,-24.0,-17.0,2.0,-13.0,4.0,-10.0,0.0
5.0,-9.0,213.0,1.0,-24.0,-15.0,-23.0,-7.0,33.0,12.0,0.0
11.0,1.0,136.0,-17.0,-16.0,-18.0,-48.0,-12.0,44.0,39.0,0.0
-1.0,-7.0,19.0,-16.0,-12.0,-9.0,-44.0,-5.0,46.0,26.0,0.0
-3.0,-4.0,-76.0,-8.0,-11.0,-4.0,-22.0,1.0,61.0,24.0,0.0
22.0,14.0,-116.0,-2.0,-3.0,-3.0,-10.0,4.0,63.0,38.0,0.0
34.0,27.0,-162.0,4.0,2.0,-9.0,-19.0,12.0,51.0,28.0,0.0
15.0,19.0,-183.0,-1.0,5.0,-2.0,-31.0,13.0,39.0,10.0,0.0
-6.0,-4.0,-180.0,4.0,2.0,5.0,-31.0,7.0,15.0,-10.0,0.0
-16.0,-9.0,-156.0,7.0,5.0,8.0,-12.0,10.0,-21.0,-32.0,0.0
-32.0,-5.0,-102.0,17.0,19.0,18.0,10.0,22.0,-53.0,-45.0,0.0
-24.0,23.0,-65.0,25.0,24.0,26.0,-1.0,7.0,-83.0,-23.0,0.0
-12.0,48.0,40.0,27.0,17.0,16.0,-19.0,3.0,-91.0,5.0,0.0
-27.0,42.0,150.0,19.0,11.0,9.0,-28.0,-1.0,-73.0,-22.0,0.0
-42.0,24.0,198.0,17.0,17.0,0.0,-16.0,-7.0,-59.0,-47.0,0.0
-41.0,19.0,249.0,4.0,26.0,-10.0,-3.0,-14.0,-53.0,-58.0,0.0
-56.0,14.0,268.0,-7.0,18.0,-16.0,-3.0,-19.0,-44.0,-54.0,0.0
-44.0,9.0,234.0,-4.0,5.0,-9.0,-2.0,-23.0,-31.0,-48.0,0.0
-43.0,4.0,154.0,-1.0,5.0,-15.0,13.0,-2.0,-14.0,-46.0,0.0
-54.0,6.0,39.0,6.0,5.0,-9.0,25.0,7.0,-3.0,-66.0,0.0
-52.0,10.0,-50.0,3.0,6.0,2.0,8.0,0.0,-12.0,-73.0,0.0
-37.0,15.0,-122.0,-5.0,9.0,0.0,6.0,0.0,-25.0,-44.0,0.0
3.0,23.0,-216.0,-9.0,0.0,-2.0,7.0,0.0,-16.0,6.0,0.0
37.0,37.0,-230.0,1.0,-15.0,-13.0,-5.0,-3.0,0.0,47.0,0.0
31.0,30.0,-204.0,16.0,-22.0,-16.0,-1.0,-2.0,18.0,56.0,0.0
23.0,34.0,-184.0,15.0,-14.0,-16.0,3.0,-4.0,26.0,45.0,0.0
15.0,22.0,-144.0,5.0,-8.0,-15.0,-3.0,-15.0,17.0,32.0,0.0
11.0,7.0,-74.0,7.0,-4.0,-15.0,0.0,-27.0,12.0,17.0,0.0
15.0,3.0,-26.0,0.0,-9.0,-15.0,33.0,-20.0,9.0,15.0,0.0
30.0,-3.0,65.0,-8.0,-10.0,-18.0,52.0,-17.0,9.0,21.0,0.0
49.0,11.0,113.0,5.0,-4.0,-19.0,53.0,-17.0,2.0,45.0,0.0
33.0,13.0,173.0,10.0,3.0,-8.0,55.0,0.0,-11.0,46.0,0.0
12.0,4.0,254.0,13.0,8.0,-5.0,35.0,0.0,-28.0,34.0,0.0
-1.0,-6.0,279.0,14.0,5.0,-5.0,37.0,-2.0,-19.0,16.0,0.0
-4.0,-13.0,246.0,8.0,11.0,-2.0,32.0,-3.0,-14.0,11.0,0.0
-8.0,-9.0,188.0,18.0,9.0,1.0,36.0,-4.0,-8.0,8.0,0.0
-17.0,-10.0,63.0,20.0,12.0,-2.0,29.0,-7.0,-8.0,7.0,0.0
-16.0,-12.0,-42.0,10.0,14.0,-2.0,21.0,-4.0,1.0,1.0,0.0
-1.0,-2.0,-125.0,0.0,16.0,-4.0,-19.0,3.0,20.0,-6.0,0.0
-6.0,-2.0,-189.0,-7.0,19.0,-12.0,2.0,16.0,10.0,-1.0,0.0
-10.0,0.0,-237.0,-7.0,13.0,-8.0,24.0,2.0,13.0,5.0,0.0
6.0,2.0,-252.0,-3.0,13.0,0.0,-16.0,-2.0,6.0,4.0,0.0
7.0,7.0,-201.0,-1.0,17.0,2.0,-15.0,-3.0,1.0,0.0,0.0
8.0,10.0,-134.0,2.0,21.0,-2.0,-3.0,5.0,-5.0,-4.0,0.0
10.0,11.0,-86.0,7.0,19.0,-7.0,-17.0,9.0,-24.0,-14.0,0.0
-3.0,16.0,-54.0,10.0,18.0,4.0,-11.0,9.0,-35.0,-35.0,0.0
-4.0,12.0,83.0,16.0,23.0,3.0,-11.0,10.0,-34.0,-48.0,0.0
-14.0,7.0,184.0,13.0,12.0,3.0,-24.0,9.0,-44.0,-57.0,0.0
-16.0,9.0,225.0,11.0,14.0,3.0,-39.0,13.0,-51.0,-56.0,0.0
-30.0,10.0,243.0,17.0,12.0,4.0,-15.0,16.0,-39.0,-57.0,0.0
-9.0,19.0,262.0,6.0,9.0,8.0,14.0,18.0,-21.0,-30.0,0.0
46.0,21.0,211.0,1.0,2.0,1.0,5.0,20.0,-14.0,20.0,0.0
58.0,8.0,93.0,-3.0,-2.0,6.0,9.0,13.0,-1.0,24.0,0.0
27.0,-4.0,-43.0,0.0,1.0,12.0,11.0,9.0,-5.0,-8.0,0.0
8.0,-9.0,-138.0,2.0,0.0,7.0,-3.0,11.0,-25.0,-21.0,0.0
4.0,3.0,-168.0,-8.0,-13.0,1.0,5.0,5.0,-24.0,-21.0,0.0
-6.0,14.0,-200.0,-27.0,-15.0,-2.0,3.0,9.0,-15.0,-17.0,0.0
15.0,33.0,-168.0,-23.0,-14.0,-14.0,-17.0,0.0,-13.0,11.0,0.0
52.0,52.0,-175.0,-5.0,-3.0,-18.0,-42.0,-19.0,-18.0,60.0,0.0
51.0,59.0,-158.0,-8.0,-2.0,-23.0,-62.0,-21.0,-8.0,68.0,0.0
44.0,45.0,-68.0,-11.0,-8.0,-25.0,-50.0,-13.0,3.0,51.0,0.0
40.0,21.0,3.0,-7.0,-11.0,-23.0,-14.0,-3.0,8.0,47.0,0.0
13.0,9.0,75.0,-2.0,0.0,-20.0,-18.0,-7.0,4.0,29.0,0.0
3.0,10.0,171.0,5.0,4.0,-11.0,-25.0,2.0,12.0,9.0,0.0
25.0,26.0,265.0,15.0,-4.0,-4.0,-19.0,8.0,12.0,7.0,0.0
18.0,35.0,308.0,23.0,-13.0,-2.0,23.0,10.0,-5.0,-12.0,0.0
-9.0,9.0,301.0,14.0,-7.0,1.0,24.0,12.0,-21.0,-27.0,0.0
-29.0,-25.0,264.0,14.0,-12.0,11.0,24.0,13.0,-14.0,-34.0,0.0
-51.0,-32.0,175.0,30.0,-9.0,8.0,8.0,18.0,6.0,-59.0,0.0
-64.0,-31.0,58.0,12.0,-8.0,-6.0,-14.0,18.0,4.0,-75.0,0.0
-75.0,-50.0,-45.0,0.0,-11.0,3.0,-12.0,20.0,-9.0,-82.0,0.0
-39.0,-45.0,-133.0,0.0,-15.0,4.0,-10.0,13.0,-13.0,-42.0,0.0
17.0,-8.0,-175.0,0.0,-8.0,0.0,-18.0,4.0,-8.0,49.0,0.0
42.0,14.0,-196.0,8.0,-15.0,-3.0,-32.0,6.0,-7.0,79.0,0.0
41.0,13.0,-208.0,4.0,-8.0,0.0,-40.0,0.0,-12.0,49.0,0.0
18.0,6.0,-182.0,-2.0,-4.0,1.0,-24.0,8.0,-24.0,26.0,0.0
1.0,-8.0,-145.0,-2.0,-9.0,-4.0,-6.0,12.0,-15.0,9.0,0.0
1.0,-12.0,-83.0,-10.0,-16.0,3.0,19.0,18.0,3.0,12.0,0.0
1.0,8.0,-4.0,-6.0,-9.0,15.0,7.0,21.0,15.0,29.0,0.0
0.0,30.0,81.0,-3.0,-10.0,14.0,4.0,13.0,27.0,32.0,0.0
8.0,33.0,151.0,-10.0,-11.0,15.0,22.0,1.0,31.0,49.0,0.0
16.0,21.0,213.0,-2.0,-11.0,19.0,0.0,-5.0,23.0,62.0,0.0
18.0,23.0,260.0,-4.0,-6.0,22.0,-29.0,7.0,10.0,61.0,0.0
44.0,28.0,248.0,-4.0,-2.0,23.0,-31.0,19.0,1.0,72.0,0.0
49.0,39.0,206.0,-8.0,6.0,23.0,-5.0,24.0,9.0,75.0,0.0
31.0,23.0,83.0,-6.0,17.0,19.0,24.0,29.0,3.0,30.0,0.0
10.0,-5.0,30.0,-6.0,11.0,22.0,14.0,31.0,-15.0,-4.0,0.0
11.0,-22.0,-55.0,0.0,4.0,18.0,-4.0,17.0,-31.0,-3.0,0.0
29.0,-23.0,-135.0,10.0,5.0,19.0,-11.0,5.0,-27.0,26.0,0.0
24.0,-20.0,-220.0,16.0,12.0,18.0,-9.0,8.0,-28.0,16.0,0.0
-2.0,-9.0,-271.0,14.0,0.0,13.0,-15.0,7.0,-19.0,-1.0,0.0
-10.0,-7.0,-236.0,18.0,-9.0,9.0,-17.0,1.0,-4.0,-4.0,0.0
-22.0,-13.0,-198.0,11.0,-11.0,15.0,-3.0,-1.0,20.0,-7.0,0.0
-18.0,-21.0,-127.0,-4.0,2.0,12.0,3.0,-4.0,68.0,-19.0,0.0
-5.0,-23.0,-31.0,-10.0,-2.0,6.0,-8.0,-19.0,64.0,15.0,0.0
-1.0,-5.0,75.0,-11.0,-9.0,-2.0,-13.0,-18.0,66.0,43.0,0.0
-9.0,-2.0,157.0,-12.0,-1.0,4.0,-6.0,0.0,57.0,27.0,0.0
-10.0,-18.0,213.0,-24.0,-4.0,17.0,4.0,11.0,58.0,7.0,0.0
-18.0,-23.0,258.0,-21.0,-4.0,12.0,6.0,7.0,39.0,-12.0,0.0
-25.0,-6.0,273.0,-9.0,11.0,24.0,-3.0,12.0,16.0,-29.0,0.0
-5.0,14.0,272.0,1.0,14.0,25.0,8.0,3.0,-2.0,-7.0,0.0
-1.0,15.0,198.0,12.0,12.0,17.0,51.0,-9.0,-17.0,3.0,0.0
-22.0,18.0,100.0,8.0,6.0,25.0,49.0,0.0,-37.0,-20.0,0.0
-31.0,24.0,1.0,12.0,9.0,30.0,48.0,2.0,-58.0,-39.0,0.0
-19.0,42.0,-88.0,18.0,16.0,23.0,18.0,1.0,-35.0,-44.0,0.0
-32.0,37.0,-191.0,3.0,10.0,23.0,17.0,0.0,-7.0,-49.0,0.0
-49.0,23.0,-309.0,-7.0,-1.0,13.0,29.0,0.0,0.0,-56.0,0.0
-43.0,9.0,-368.0,-14.0,-2.0,5.0,36.0,-4.0,-6.0,-39.0,0.0
-20.0,18.0,-351.0,-10.0,2.0,7.0,19.0,-17.0,1.0,-16.0,0.0
-22.0,13.0,-274.0,-1.0,5.0,11.0,2.0,-10.0,-1.0,-3.0,0.0
-49.0,-7.0,-132.0,-6.0,5.0,16.0,15.0,-6.0,-7.0,-1.0,0.0
-62.0,-32.0,-9.0,-10.0,1.0,7.0,19.0,-18.0,2.0,-3.0,0.0
-66.0,-38.0,78.0,-8.0,0.0,-3.0,-11.0,-19.0,6.0,9.0,0.0
-22.0,-36.0,168.0,-9.0,1.0,-9.0,-31.0,-16.0,17.0,49.0,0.0
20.0,-28.0,241.0,-7.0,5.0,-20.0,-25.0,-10.0,33.0,89.0,0.0
17.0,-20.0,284.0,5.0,8.0,-9.0,-3.0,-4.0,48.0,82.0,0.0
2.0,-17.0,288.0,8.0,10.0,10.0,3.0,3.0,33.0,68.0,0.0
-7.0,-19.0,241.0,3.0,9.0,4.0,16.0,0.0,38.0,44.0,0.0
-16.0,-20.0,147.0,2.0,4.0,7.0,19.0,-5.0,29.0,23.0,0.0
-13.0,-18.0,56.0,5.0,-3.0,-8.0,7.0,6.0,12.0,19.0,0.0
-5.0,-4.0,-38.0,16.0,-17.0,-16.0,18.0,12.0,14.0,20.0,0.0
1.0,5.0,-121.0,12.0,-14.0,-8.0,19.0,17.0,15.0,16.0,0.0
4.0,3.0,-189.0,21.0,-6.0,-4.0,8.0,10.0,-10.0,13.0,0.0
27.0,10.0,-212.0,26.0,8.0,-6.0,20.0,-5.0,-14.0,34.0,0.0
32.0,1.0,-201.0,14.0,11.0,-9.0,5.0,-18.0,-13.0,29.0,0.0
24.0,-14.0,-203.0,7.0,3.0,-16.0,18.0,-24.0,-17.0,20.0,0.0
30.0,-11.0,-150.0,17.0,5.0,-20.0,24.0,-14.0,-15.0,26.0,0.0
21.0,-10.0,-89.0,9.0,-2.0,-21.0,17.0,-18.0,-23.0,25.0,0.0
-3.0,-16.0,-16.0,-1.0,-4.0,-17.0,15.0,-24.0,-29.0,13.0,0.0
0.0,-19.0,77.0,-7.0,0.0,-13.0,14.0,-28.0,-37.0,2.0,0.0
4.0,-36.0,113.0,-8.0,-1.0,-5.0,18.0,-28.0,-34.0,-5.0,0.0
6.0,-29.0,171.0,7.0,2.0,-7.0,2.0,-25.0,-31.0,0.0,0.0
4.0,-28.0,236.0,7.0,0.0,-19.0,-23.0,-27.0,-25.0,4.0,0.0
-4.0,-29.0,249.0,3.0,-7.0,-25.0,-25.0,-25.0,-19.0,1.0,0.0
-17.0,-22.0,192.0,0.0,-18.0,-19.0,-30.0,-17.0,0.0,0.0,0.0
-8.0,-23.0,92.0,-12.0,-21.0,-11.0,-43.0,-7.0,16.0,-6.0,0.0
4.0,-20.0,-7.0,-2.0,-15.0,-5.0,-41.0,-1.0,26.0,-2.0,0.0
10.0,-9.0,-98.0,12.0,-12.0,-7.0,-19.0,5.0,28.0,-9.0,0.0
4.0,-12.0,-170.0,18.0,-7.0,0.0,1.0,6.0,15.0,-32.0,0.0
-11.0,-22.0,-236.0,19.0,0.0,4.0,2.0,9.0,-5.0,-59.0,0.0
-29.0,-25.0,-315.0,6.0,-7.0,-8.0,8.0,9.0,-21.0,-62.0,0.0
-40.0,-31.0,-373.0,-3.0,-5.0,-3.0,18.0,5.0,-18.0,-81.0,0.0
-31.0,-21.0,-323.0,0.0,2.0,-2.0,10.0,-8.0,0.0,-84.0,0.0
-18.0,-8.0,-193.0,3.0,3.0,-2.0,-7.0,-9.0,-18.0,-56.0,0.0
-38.0,-13.0,-79.0,-8.0,0.0,2.0,13.0,-3.0,-31.0,-81.0,0.0
-69.0,-24.0,-6.0,-8.0,4.0,3.0,29.0,10.0,-48.0,-100.0,0.0
-37.0,5.0,109.0,8.0,14.0,4.0,30.0,-7.0,-60.0,-54.0,0.0
-9.0,11.0,212.0,6.0,4.0,1.0,26.0,-23.0,-63.0,-30.0,0.0
-30.0,-6.0,239.0,0.0,-10.0,-5.0,28.0,-14.0,-65.0,-54.0,0.0
-50.0,-17.0,222.0,-9.0,-17.0,-7.0,19.0,-11.0,-53.0,-71.0,0.0
-55.0,-21.0,167.0,-12.0,-28.0,-4.0,-11.0,-10.0,-28.0,-65.0,0.0
-19.0,-22.0,103.0,-4.0,-23.0,3.0,-9.0,-5.0,-5.0,-13.0,0.0
15.0,-6.0,64.0,7.0,-10.0,-2.0,-12.0,-12.0,20.0,21.0,0.0
43.0,18.0,-10.0,10.0,-16.0,-8.0,-30.0,-5.0,50.0,51.0,0.0
66.0,20.0,-89.0,10.0,-27.0,-7.0,-30.0,6.0,67.0,74.0,0.0
58.0,5.0,-166.0,9.0,-15.0,0.0,-10.0,23.0,88.0,72.0,0.0
49.0,-4.0,-214.0,-4.0,-2.0,1.0,-19.0,24.0,84.0,78.0,0.0
73.0,8.0,-256.0,8.0,2.0,-2.0,-20.0,9.0,62.0,108.0,0.0
83.0,27.0,-293.0,34.0,0.0,-1.0,-3.0,2.0,43.0,116.0,0.0
80.0,7.0,-196.0,15.0,-3.0,0.0,5.0,8.0,20.0,95.0,0.0
60.0,-6.0,-88.0,3.0,17.0,0.0,-12.0,10.0,2.0,69.0,0.0
28.0,-8.0,-9.0,-3.0,32.0,-7.0,-5.0,10.0,1.0,58.0,0.0
13.0,-5.0,97.0,-10.0,10.0,-14.0,9.0,12.0,6.0,57.0,0.0
7.0,-4.0,185.0,-13.0,-3.0,-19.0,19.0,18.0,9.0,38.0,0.0
9.0,2.0,256.0,-18.0,-9.0,-19.0,8.0,7.0,25.0,44.0,0.0
22.0,11.0,306.0,-14.0,-20.0,-27.0,-12.0,-3.0,31.0,47.0,0.0
23.0,9.0,314.0,-24.0,-20.0,-33.0,-26.0,3.0,20.0,23.0,0.0
19.0,11.0,247.0,-29.0,-12.0,-29.0,-27.0,15.0,18.0,12.0,0.0
32.0,22.0,130.0,-12.0,5.0,-20.0,-19.0,9.0,19.0,3.0,0.0
28.0,21.0,32.0,-12.0,2.0,-15.0,-10.0,-2.0,21.0,8.0,0.0
-7.0,13.0,-49.0,-7.0,-7.0,-5.0,-19.0,-4.0,27.0,14.0,0.0
-18.0,15.0,-123.0,-3.0,-13.0,-1.0,-8.0,0.0,26.0,13.0,0.0
-3.0,14.0,-194.0,-11.0,-14.0,-10.0,32.0,8.0,30.0,6.0,0.0
13.0,13.0,-217.0,-10.0,-4.0,-11.0,20.0,16.0,32.0,31.0,0.0
-1.0,3.0,-206.0,-6.0,-1.0,-4.0,-6.0,17.0,23.0,34.0,0.0
-21.0,-4.0,-164.0,-2.0,6.0,6.0,2.0,20.0,13.0,-1.0,0.0
-36.0,-8.0,-111.0,4.0,14.0,22.0,11.0,21.0,-26.0,-37.0,0.0
-51.0,-24.0,-55.0,5.0,14.0,35.0,9.0,22.0,-60.0,-65.0,0.0
-45.0,-24.0,0.0,11.0,13.0,39.0,4.0,20.0,-73.0,-78.0,0.0
-18.0,-15.0,42.0,5.0,2.0,29.0,-1.0,19.0,-78.0,-53.0,0.0
-18.0,-29.0,67.0,-6.0,-12.0,12.0,0.0,11.0,-53.0,-47.0,0.0
-34.0,-22.0,125.0,-5.0,-21.0,5.0,4.0,4.0,-24.0,-57.0,0.0
-51.0,-24.0,180.0,1.0,-9.0,14.0,-15.0,-6.0,-9.0,-76.0,0.0
-61.0,-29.0,229.0,-11.0,-8.0,29.0,-8.0,-12.0,2.0,-80.0,0.0
-58.0,-22.0,178.0,-13.0,-16.0,31.0,0.0,-8.0,11.0,-77.0,0.0
-49.0,-31.0,72.0,-12.0,-17.0,23.0,9.0,-9.0,10.0,-65.0,0.0
-14.0,-12.0,-18.0,8.0,-24.0,5.0,37.0,-2.0,22.0,-18.0,0.0
55.0,14.0,-79.0,9.0,-33.0,2.0,10.0,-8.0,39.0,51.0,0.0
49.0,11.0,-152.0,-2.0,-21.0,-3.0,-15.0,-5.0,47.0,60.0,0.0
44.0,12.0,-222.0,7.0,-19.0,0.0,-14.0,8.0,55.0,33.0,0.0
73.0,29.0,-223.0,10.0,-9.0,4.0,-3.0,10.0,55.0,50.0,0.0
100.0,53.0,-175.0,3.0,-6.0,3.0,-9.0,6.0,33.0,58.0,0.0
98.0,53.0,-140.0,4.0,-11.0,-1.0,-14.0,6.0,11.0,42.0,0.0
72.0,39.0,-66.0,-2.0,-8.0,-9.0,4.0,0.0,-4.0,31.0,0.0
60.0,39.0,30.0,-4.0,-1.0,-12.0,5.0,-11.0,-28.0,24.0,0.0
46.0,19.0,90.0,16.0,6.0,-7.0,1.0,-6.0,-64.0,8.0,0.0
2.0,-24.0,154.0,34.0,9.0,-4.0,34.0,-7.0,-50.0,-11.0,0.0
-18.0,-53.0,202.0,34.0,2.0,0.0,27.0,1.0,-11.0,-8.0,0.0
-11.0,-56.0,224.0,16.0,0.0,-4.0,9.0,6.0,-3.0,-11.0,0.0
-6.0,-48.0,243.0,-3.0,-2.0,-8.0,29.0,17.0,0.0,-10.0,0.0
-6.0,-23.0,248.0,-9.0,-1.0,-2.0,31.0,21.0,21.0,-5.0,0.0
-10.0,-18.0,170.0,-1.0,2.0,0.0,20.0,22.0,52.0,-7.0,0.0
