channel0,channel1,channel2,channel3,channel4,channel5,channel6,channel7,channel8,channel9,true_locs
-76.0,-71.0,-40.0,-58.0,-15.0,-33.0,47.0,-16.0,-39.0,-38.0,0.0
-66.0,-66.0,-43.0,-43.0,-4.0,-9.0,55.0,-15.0,-27.0,-41.0,0.0
-51.0,-42.0,-38.0,-16.0,-3.0,-11.0,40.0,-8.0,-23.0,-32.0,0.0
-27.0,-16.0,-23.0,-4.0,2.0,-9.0,27.0,-8.0,-19.0,-3.0,0.0
5.0,13.0,6.0,0.0,16.0,0.0,8.0,-4.0,9.0,16.0,0.0
33.0,33.0,30.0,10.0,29.0,0.0,-7.0,17.0,25.0,41.0,0.0
58.0,47.0,49.0,32.0,41.0,17.0,-25.0,35.0,34.0,61.0,0.0
74.0,67.0,66.0,39.0,58.0,31.0,-44.0,36.0,31.0,64.0,0.0
81.0,64.0,61.0,36.0,60.0,43.0,-50.0,29.0,18.0,61.0,0.0
76.0,58.0,46.0,25.0,45.0,37.0,-59.0,21.0,-1.0,31.0,0.0
69.0,49.0,45.0,31.0,19.0,21.0,-51.0,6.0,-13.0,8.0,0.0
59.0,46.0,39.0,21.0,2.0,10.0,-43.0,1.0,-23.0,-1.0,0.0
22.0,22.0,27.0,3.0,0.0,-5.0,-31.0,-12.0,-21.0,-11.0,0.0
12.0,0.0,14.0,-29.0,-11.0,-22.0,-13.0,-25.0,-12.0,-18.0,0.0
-1.0,-8.0,0.0,-58.0,-21.0,-24.0,2.0,-26.0,-14.0,-12.0,0.0
-25.0,-31.0,-26.0,-73.0,-37.0,-32.0,32.0,-25.0,-24.0,-11.0,0.0
-39.0,-53.0,-51.0,-74.0,-44.0,-24.0,67.0,-36.0,-23.0,-14.0,0.0
-43.0,-49.0,-52.0,-80.0,-40.0,-8.0,81.0,-33.0,-7.0,-19.0,0.0
-25.0,-41.0,-47.0,-70.0,-31.0,12.0,66.0,-24.0,10.0,-18.0,0.0
-16.0,-17.0,-50.0,-38.0,-16.0,26.0,30.0,-30.0,17.0,-28.0,0.0
7.0,2.0,-26.0,-2.0,5.0,37.0,3.0,-30.0,16.0,-18.0,0.0
34.0,33.0,2.0,13.0,32.0,40.0,-17.0,-16.0,10.0,-4.0,0.0
57.0,50.0,23.0,16.0,50.0,51.0,-37.0,1.0,2.0,5.0,0.0
70.0,70.0,39.0,14.0,53.0,56.0,-63.0,12.0,17.0,3.0,0.0
78.0,75.0,40.0,30.0,57.0,66.0,-70.0,20.0,26.0,7.0,0.0
71.0,68.0,32.0,23.0,61.0,61.0,-62.0,16.0,16.0,16.0,0.0
51.0,54.0,19.0,25.0,46.0,44.0,-57.0,12.0,7.0,15.0,0.0
25.0,30.0,18.0,38.0,28.0,21.0,-48.0,19.0,4.0,3.0,0.0
-2.0,13.0,-12.0,24.0,12.0,11.0,-6.0,25.0,17.0,-3.0,0.0
-24.0,-8.0,-27.0,14.0,-9.0,-1.0,16.0,16.0,22.0,-12.0,0.0
-22.0,-20.0,-24.0,-2.0,-22.0,-16.0,40.0,14.0,19.0,-23.0,0.0
-44.0,-36.0,-45.0,-29.0,-49.0,-30.0,58.0,5.0,16.0,-33.0,0.0
-71.0,-51.0,-61.0,-42.0,-54.0,-49.0,73.0,-10.0,0.0,-47.0,0.0
-71.0,-61.0,-61.0,-43.0,-52.0,-47.0,74.0,-27.0,-20.0,-57.0,0.0
-54.0,-48.0,-58.0,-34.0,-38.0,-32.0,57.0,-25.0,-19.0,-48.0,0.0
-34.0,-24.0,-47.0,-24.0,-23.0,-27.0,54.0,-19.0,-10.0,-43.0,0.0
-13.0,-15.0,-12.0,-3.0,-8.0,-16.0,47.0,-9.0,3.0,-23.0,0.0
2.0,3.0,25.0,7.0,15.0,0.0,34.0,5.0,23.0,5.0,0.0
29.0,14.0,42.0,16.0,39.0,10.0,16.0,17.0,40.0,15.0,0.0
50.0,31.0,51.0,22.0,46.0,12.0,3.0,36.0,55.0,31.0,0.0
50.0,52.0,50.0,32.0,50.0,19.0,-20.0,48.0,69.0,23.0,0.0
58.0,55.0,57.0,38.0,58.0,12.0,-37.0,45.0,73.0,24.0,0.0
50.0,46.0,47.0,34.0,54.0,7.0,-35.0,39.0,61.0,18.0,0.0
42.0,39.0,35.0,27.0,34.0,-1.0,-36.0,29.0,62.0,9.0,0.0
26.0,12.0,22.0,19.0,22.0,-14.0,-39.0,11.0,47.0,9.0,0.0
7.0,-10.0,8.0,0.0,15.0,-22.0,-21.0,-1.0,27.0,13.0,0.0
-14.0,-31.0,-1.0,-12.0,-8.0,-28.0,-14.0,-2.0,0.0,13.0,0.0
-38.0,-51.0,-20.0,-29.0,-29.0,-30.0,-2.0,-15.0,-14.0,6.0,0.0
-62.0,-64.0,-62.0,-44.0,-51.0,-35.0,12.0,-21.0,-22.0,-15.0,0.0
-80.0,-49.0,-75.0,-49.0,-66.0,-42.0,45.0,-24.0,-28.0,-31.0,0.0
-78.0,-13.0,-57.0,-41.0,-52.0,-47.0,61.0,-29.0,-24.0,-55.0,0.0
-57.0,18.0,-50.0,-27.0,-24.0,-42.0,40.0,-29.0,-26.0,-37.0,0.0
-32.0,23.0,-34.0,-23.0,-13.0,-22.0,38.0,-25.0,-12.0,-3.0,0.0
-9.0,17.0,-7.0,5.0,3.0,0.0,28.0,-10.0,3.0,12.0,0.0
9.0,15.0,6.0,30.0,30.0,20.0,7.0,10.0,6.0,17.0,0.0
34.0,35.0,12.0,47.0,51.0,25.0,-13.0,19.0,-3.0,17.0,0.0
55.0,60.0,24.0,61.0,69.0,35.0,-39.0,29.0,-6.0,27.0,0.0
65.0,65.0,31.0,74.0,84.0,44.0,-46.0,38.0,-4.0,33.0,0.0
48.0,64.0,19.0,69.0,84.0,37.0,-50.0,35.0,-6.0,16.0,0.0
32.0,38.0,7.0,61.0,66.0,20.0,-45.0,39.0,-3.0,1.0,0.0
19.0,11.0,-18.0,44.0,41.0,8.0,-40.0,26.0,-11.0,4.0,0.0
7.0,-11.0,-32.0,25.0,26.0,-6.0,-23.0,13.0,-16.0,1.0,0.0
-13.0,-31.0,-37.0,10.0,12.0,-22.0,4.0,4.0,-21.0,-10.0,0.0
-26.0,-47.0,-57.0,-4.0,-11.0,-30.0,16.0,3.0,-35.0,-6.0,0.0
-54.0,-71.0,-76.0,-21.0,-28.0,-44.0,39.0,-8.0,-43.0,-17.0,0.0
-82.0,-88.0,-88.0,-48.0,-47.0,-63.0,55.0,-26.0,-40.0,-34.0,0.0
-91.0,-91.0,-94.0,-50.0,-55.0,-71.0,59.0,-31.0,-39.0,-28.0,0.0
-74.0,-75.0,-79.0,-24.0,-42.0,-59.0,68.0,-30.0,-30.0,-10.0,0.0
-53.0,-44.0,-48.0,-17.0,-41.0,-54.0,48.0,-19.0,-21.0,0.0,0.0
-22.0,-28.0,-15.0,0.0,-29.0,-41.0,38.0,-8.0,-11.0,0.0,0.0
-1.0,-22.0,-3.0,18.0,-1.0,-18.0,30.0,-8.0,0.0,-13.0,0.0
16.0,-2.0,17.0,35.0,16.0,1.0,1.0,3.0,4.0,-1.0,0.0
15.0,20.0,30.0,40.0,23.0,4.0,-10.0,17.0,6.0,14.0,0.0
27.0,34.0,42.0,51.0,34.0,14.0,-36.0,24.0,-1.0,17.0,0.0
43.0,37.0,47.0,63.0,44.0,33.0,-50.0,35.0,-6.0,24.0,0.0
33.0,32.0,43.0,52.0,37.0,29.0,-58.0,28.0,-11.0,20.0,0.0
22.0,23.0,30.0,49.0,17.0,19.0,-40.0,13.0,-2.0,10.0,0.0
18.0,19.0,20.0,44.0,3.0,8.0,-27.0,7.0,3.0,17.0,0.0
14.0,15.0,2.0,7.0,-8.0,-3.0,-16.0,3.0,8.0,16.0,0.0
-20.0,2.0,-21.0,-28.0,-24.0,-11.0,4.0,0.0,6.0,10.0,0.0
-38.0,-21.0,-28.0,-42.0,-33.0,-33.0,28.0,-8.0,0.0,7.0,0.0
-31.0,-37.0,-41.0,-50.0,-42.0,-52.0,40.0,-20.0,-3.0,-10.0,0.0
-54.0,-54.0,-51.0,-61.0,-47.0,-51.0,62.0,-25.0,1.0,-35.0,0.0
-61.0,-62.0,-56.0,-52.0,-42.0,-43.0,75.0,-41.0,-7.0,-57.0,0.0
-30.0,-53.0,-35.0,-21.0,-35.0,-36.0,65.0,-47.0,-20.0,-35.0,0.0
-8.0,-32.0,-26.0,10.0,-13.0,-32.0,44.0,-25.0,-2.0,11.0,0.0
2.0,-16.0,-14.0,25.0,6.0,-13.0,17.0,-10.0,12.0,21.0,0.0
20.0,9.0,21.0,28.0,18.0,2.0,0.0,-2.0,14.0,26.0,0.0
39.0,40.0,40.0,38.0,22.0,8.0,-20.0,0.0,17.0,42.0,0.0
75.0,63.0,59.0,52.0,37.0,17.0,-40.0,-9.0,21.0,51.0,0.0
97.0,73.0,72.0,57.0,46.0,24.0,-50.0,5.0,37.0,47.0,0.0
94.0,68.0,58.0,56.0,52.0,23.0,-56.0,24.0,66.0,57.0,0.0
91.0,38.0,49.0,59.0,43.0,13.0,-54.0,38.0,93.0,63.0,0.0
54.0,17.0,40.0,49.0,26.0,7.0,-39.0,43.0,91.0,62.0,0.0
19.0,1.0,26.0,26.0,22.0,-4.0,-11.0,29.0,70.0,52.0,0.0
1.0,-4.0,18.0,13.0,9.0,-14.0,3.0,-1.0,41.0,21.0,0.0
-11.0,-5.0,11.0,8.0,-11.0,-21.0,-8.0,-31.0,4.0,-15.0,0.0
-38.0,-17.0,-3.0,-8.0,-22.0,-25.0,-9.0,-61.0,-29.0,-57.0,0.0
-53.0,-26.0,-27.0,-26.0,-25.0,-33.0,15.0,-79.0,-58.0,-82.0,0.0
-44.0,-24.0,-55.0,-26.0,-38.0,-33.0,35.0,-75.0,-57.0,-79.0,0.0
-41.0,-17.0,-59.0,-26.0,-41.0,-29.0,50.0,-68.0,-40.0,-71.0,1.0
-30.0,-10.0,-53.0,-14.0,-29.0,-26.0,51.0,-51.0,-16.0,-56.0,1.0
-19.0,-8.0,-46.0,0.0,-18.0,-11.0,44.0,-29.0,-2.0,-31.0,1.0
0.0,-4.0,-30.0,6.0,-6.0,6.0,7.0,-20.0,1.0,-14.0,1.0
25.0,22.0,-25.0,19.0,6.0,17.0,-19.0,-9.0,19.0,-10.0,1.0
59.0,43.0,0.0,27.0,9.0,19.0,-31.0,-6.0,24.0,5.0,1.0
86.0,63.0,23.0,39.0,35.0,25.0,-43.0,-12.0,23.0,23.0,1.0
82.0,64.0,44.0,57.0,65.0,28.0,-46.0,-9.0,9.0,11.0,1.0
59.0,60.0,51.0,61.0,73.0,18.0,-43.0,-6.0,-2.0,2.0,1.0
24.0,57.0,25.0,41.0,47.0,0.0,-50.0,-14.0,-23.0,-4.0,1.0
16.0,42.0,11.0,15.0,23.0,-4.0,-46.0,-1.0,-9.0,13.0,1.0
13.0,6.0,1.0,-14.0,7.0,-15.0,-44.0,7.0,3.0,15.0,1.0
-4.0,-12.0,-10.0,-25.0,-9.0,-26.0,-26.0,3.0,7.0,3.0,1.0
-24.0,-34.0,-32.0,-33.0,-24.0,-27.0,2.0,0.0,-1.0,-15.0,1.0
-47.0,-55.0,-41.0,-57.0,-40.0,-39.0,27.0,-12.0,-11.0,-38.0,1.0
-58.0,-68.0,-37.0,-75.0,-55.0,-47.0,53.0,-26.0,-29.0,-35.0,1.0
-61.0,-79.0,-43.0,-82.0,-55.0,-38.0,64.0,-30.0,-24.0,-23.0,1.0
-62.0,-72.0,-44.0,-79.0,-46.0,-43.0,69.0,-22.0,-12.0,-16.0,1.0
-66.0,-65.0,-44.0,-72.0,-41.0,-51.0,60.0,-20.0,-5.0,-15.0,0.0
-52.0,-43.0,-29.0,-35.0,-29.0,-37.0,41.0,-3.0,15.0,8.0,0.0
-17.0,-9.0,-5.0,7.0,-13.0,-10.0,21.0,19.0,27.0,19.0,0.0
4.0,0.0,26.0,18.0,-1.0,4.0,0.0,17.0,34.0,25.0,0.0
25.0,4.0,40.0,22.0,12.0,13.0,-23.0,17.0,36.0,43.0,0.0
25.0,9.0,37.0,33.0,35.0,19.0,-55.0,17.0,39.0,44.0,0.0
27.0,6.0,41.0,40.0,45.0,11.0,-74.0,18.0,25.0,33.0,0.0
19.0,13.0,30.0,35.0,33.0,10.0,-58.0,18.0,12.0,44.0,0.0
8.0,14.0,19.0,23.0,22.0,3.0,-47.0,16.0,18.0,43.0,0.0
4.0,11.0,15.0,7.0,7.0,-13.0,-39.0,8.0,17.0,37.0,0.0
-7.0,13.0,4.0,-2.0,-9.0,-27.0,-15.0,3.0,12.0,25.0,0.0
-13.0,2.0,6.0,-10.0,-20.0,-23.0,10.0,8.0,28.0,7.0,0.0
-8.0,-24.0,6.0,-27.0,-22.0,-18.0,29.0,-2.0,23.0,11.0,0.0
-19.0,-61.0,-18.0,-49.0,-35.0,-29.0,52.0,-22.0,2.0,7.0,0.0
-43.0,-81.0,-46.0,-72.0,-57.0,-34.0,77.0,-25.0,11.0,-14.0,0.0
-55.0,-83.0,-45.0,-84.0,-56.0,-30.0,82.0,-19.0,9.0,-26.0,0.0
-53.0,-67.0,-29.0,-72.0,-38.0,-9.0,74.0,-17.0,7.0,-30.0,0.0
-58.0,-55.0,-25.0,-49.0,-36.0,17.0,72.0,-13.0,11.0,-16.0,0.0
-39.0,-44.0,-4.0,-30.0,-24.0,23.0,48.0,-18.0,1.0,-1.0,0.0
-15.0,-12.0,39.0,-8.0,-5.0,23.0,20.0,-11.0,11.0,-3.0,0.0
21.0,14.0,69.0,0.0,10.0,23.0,-1.0,-12.0,20.0,2.0,0.0
55.0,29.0,86.0,9.0,25.0,26.0,-17.0,0.0,22.0,15.0,0.0
73.0,51.0,97.0,39.0,38.0,32.0,-42.0,16.0,27.0,29.0,0.0
75.0,53.0,92.0,50.0,34.0,27.0,-52.0,21.0,30.0,38.0,0.0
56.0,43.0,72.0,51.0,18.0,21.0,-49.0,25.0,35.0,37.0,0.0
26.0,30.0,60.0,48.0,5.0,26.0,-49.0,23.0,31.0,27.0,0.0
0.0,19.0,50.0,38.0,-8.0,24.0,-31.0,20.0,16.0,1.0,0.0
-6.0,-5.0,34.0,11.0,-20.0,16.0,-16.0,3.0,11.0,-19.0,0.0
-13.0,-18.0,5.0,0.0,-33.0,15.0,-6.0,-2.0,6.0,-15.0,0.0
-27.0,-35.0,1.0,-1.0,-54.0,16.0,15.0,-8.0,-18.0,-24.0,0.0
-50.0,-62.0,-18.0,-25.0,-83.0,4.0,39.0,-13.0,-16.0,-35.0,0.0
-46.0,-64.0,-28.0,-42.0,-94.0,-10.0,55.0,-26.0,1.0,-15.0,0.0
-44.0,-36.0,-13.0,-51.0,-77.0,-8.0,62.0,-31.0,1.0,9.0,0.0
-29.0,-22.0,-4.0,-52.0,-63.0,0.0,41.0,-24.0,-8.0,20.0,0.0
-3.0,-16.0,16.0,-50.0,-44.0,3.0,23.0,-17.0,-3.0,23.0,0.0
29.0,-11.0,33.0,-36.0,-19.0,24.0,6.0,-11.0,-8.0,18.0,0.0
36.0,0.0,38.0,-12.0,5.0,36.0,-14.0,6.0,3.0,32.0,0.0
39.0,16.0,58.0,-2.0,24.0,35.0,-22.0,28.0,30.0,47.0,0.0
66.0,38.0,87.0,14.0,35.0,38.0,-42.0,42.0,36.0,52.0,0.0
85.0,48.0,91.0,22.0,38.0,42.0,-64.0,47.0,35.0,51.0,0.0
62.0,34.0,92.0,16.0,31.0,42.0,-60.0,46.0,19.0,44.0,0.0
29.0,11.0,86.0,0.0,10.0,31.0,-47.0,37.0,11.0,30.0,0.0
11.0,12.0,83.0,-6.0,3.0,22.0,-40.0,28.0,2.0,-5.0,0.0
-2.0,13.0,66.0,-7.0,-8.0,27.0,-29.0,16.0,-26.0,-41.0,0.0
-21.0,-8.0,33.0,-17.0,-14.0,21.0,-25.0,2.0,-46.0,-47.0,0.0
-39.0,-29.0,5.0,-19.0,-26.0,15.0,-18.0,-6.0,-34.0,-36.0,0.0
-44.0,-40.0,-14.0,-23.0,-48.0,-3.0,-5.0,-16.0,-31.0,-51.0,0.0
-48.0,-49.0,-31.0,-43.0,-60.0,-27.0,22.0,-25.0,-46.0,-51.0,0.0
-42.0,-58.0,-43.0,-54.0,-57.0,-24.0,50.0,-29.0,-54.0,-28.0,0.0
-30.0,-46.0,-48.0,-47.0,-47.0,-12.0,37.0,-26.0,-55.0,-28.0,0.0
-26.0,-34.0,-31.0,-41.0,-31.0,-9.0,36.0,-14.0,-47.0,-27.0,0.0
-12.0,-14.0,-8.0,-32.0,-17.0,-2.0,25.0,3.0,-40.0,-7.0,0.0
8.0,3.0,0.0,-16.0,-13.0,0.0,3.0,3.0,-43.0,-4.0,0.0
34.0,22.0,21.0,-5.0,5.0,11.0,-22.0,1.0,-43.0,5.0,0.0
50.0,27.0,36.0,4.0,28.0,16.0,-43.0,12.0,-38.0,19.0,0.0
60.0,42.0,44.0,25.0,46.0,26.0,-54.0,24.0,-22.0,36.0,0.0
76.0,66.0,53.0,36.0,53.0,33.0,-63.0,29.0,-3.0,39.0,0.0
66.0,59.0,42.0,21.0,36.0,21.0,-71.0,28.0,-3.0,35.0,0.0
40.0,32.0,28.0,9.0,19.0,18.0,-49.0,25.0,1.0,44.0,0.0
20.0,13.0,15.0,5.0,11.0,16.0,-28.0,27.0,10.0,36.0,0.0
-10.0,2.0,-1.0,9.0,1.0,1.0,-9.0,18.0,5.0,7.0,0.0
-24.0,-24.0,-32.0,-1.0,-19.0,-8.0,3.0,3.0,-2.0,0.0,0.0
-35.0,-31.0,-50.0,-10.0,-40.0,-17.0,17.0,-10.0,-10.0,-5.0,0.0
-58.0,-56.0,-56.0,-25.0,-60.0,-23.0,37.0,-13.0,-28.0,-19.0,0.0
-84.0,-75.0,-87.0,-41.0,-60.0,-20.0,47.0,-24.0,-40.0,-34.0,0.0
-89.0,-75.0,-88.0,-46.0,-53.0,-11.0,42.0,-28.0,-34.0,-43.0,0.0
-82.0,-66.0,-71.0,-40.0,-35.0,-5.0,38.0,-23.0,-12.0,-31.0,0.0
-56.0,-42.0,-54.0,-31.0,-9.0,-6.0,36.0,-10.0,-3.0,-8.0,0.0
-32.0,-22.0,-46.0,-19.0,10.0,6.0,14.0,0.0,3.0,-2.0,0.0
-3.0,4.0,-24.0,6.0,29.0,25.0,-5.0,19.0,15.0,12.0,0.0
16.0,19.0,-5.0,18.0,37.0,29.0,-32.0,14.0,-6.0,-6.0,0.0
33.0,27.0,11.0,29.0,50.0,37.0,-55.0,7.0,-33.0,-37.0,0.0
70.0,44.0,32.0,45.0,62.0,46.0,-67.0,14.0,-16.0,-16.0,0.0
87.0,51.0,30.0,45.0,45.0,45.0,-69.0,31.0,8.0,49.0,0.0
72.0,59.0,21.0,28.0,29.0,29.0,-59.0,46.0,16.0,62.0,0.0
48.0,58.0,1.0,19.0,17.0,20.0,-74.0,24.0,-11.0,24.0,0.0
30.0,59.0,-12.0,21.0,10.0,5.0,-60.0,6.0,-16.0,-6.0,0.0
4.0,63.0,-20.0,15.0,3.0,-6.0,-23.0,1.0,-12.0,-13.0,0.0
-16.0,42.0,-27.0,0.0,-11.0,-1.0,-4.0,-5.0,-32.0,-19.0,0.0
-40.0,-9.0,-46.0,-31.0,-21.0,-5.0,6.0,-26.0,-50.0,-22.0,0.0
-61.0,-44.0,-71.0,-59.0,-29.0,-18.0,28.0,-31.0,-45.0,-29.0,0.0
-69.0,-43.0,-90.0,-70.0,-44.0,-25.0,40.0,-31.0,-35.0,-24.0,0.0
-57.0,-37.0,-69.0,-61.0,-48.0,-21.0,61.0,-30.0,-38.0,-24.0,0.0
-55.0,-19.0,-56.0,-39.0,-30.0,-17.0,57.0,-24.0,-31.0,-28.0,0.0
-45.0,4.0,-52.0,-13.0,-12.0,-15.0,37.0,-22.0,-22.0,-27.0,0.0
-26.0,16.0,-39.0,12.0,-4.0,-2.0,12.0,-9.0,-17.0,-11.0,0.0
-7.0,21.0,-12.0,33.0,7.0,15.0,8.0,0.0,-21.0,0.0,0.0
11.0,28.0,4.0,43.0,29.0,28.0,1.0,14.0,-6.0,12.0,0.0
36.0,46.0,17.0,56.0,46.0,45.0,-33.0,26.0,1.0,15.0,0.0
57.0,48.0,31.0,63.0,48.0,48.0,-55.0,31.0,10.0,12.0,0.0
47.0,29.0,25.0,52.0,51.0,36.0,-57.0,33.0,11.0,23.0,0.0
27.0,15.0,7.0,45.0,38.0,30.0,-44.0,26.0,4.0,15.0,0.0
17.0,20.0,-6.0,15.0,22.0,18.0,-36.0,8.0,3.0,16.0,0.0
7.0,24.0,-2.0,-3.0,0.0,0.0,-21.0,-14.0,2.0,14.0,0.0
12.0,17.0,-10.0,-11.0,-15.0,3.0,-2.0,-28.0,-2.0,-1.0,0.0
0.0,10.0,-25.0,-25.0,-23.0,0.0,8.0,-43.0,-14.0,-9.0,0.0
-27.0,-8.0,-41.0,-50.0,-27.0,-10.0,19.0,-50.0,-19.0,-17.0,0.0
-40.0,-31.0,-57.0,-70.0,-41.0,-27.0,48.0,-49.0,-16.0,-15.0,0.0
-45.0,-31.0,-55.0,-62.0,-44.0,-38.0,65.0,-53.0,-15.0,-5.0,0.0
-46.0,-29.0,-39.0,-47.0,-36.0,-26.0,57.0,-55.0,-12.0,-13.0,0.0
-43.0,-16.0,-38.0,-20.0,-33.0,-22.0,47.0,-45.0,-2.0,-16.0,0.0
-35.0,-5.0,-30.0,-11.0,-17.0,-13.0,44.0,-30.0,10.0,-21.0,0.0
-5.0,19.0,-11.0,0.0,5.0,20.0,18.0,-4.0,23.0,-4.0,0.0
-5.0,31.0,14.0,18.0,22.0,35.0,-12.0,-9.0,32.0,14.0,0.0
12.0,38.0,32.0,28.0,42.0,41.0,-34.0,-5.0,28.0,18.0,0.0
37.0,50.0,33.0,43.0,62.0,53.0,-58.0,0.0,32.0,26.0,0.0
52.0,66.0,41.0,57.0,68.0,62.0,-65.0,6.0,30.0,26.0,0.0
41.0,74.0,55.0,51.0,57.0,50.0,-59.0,9.0,14.0,10.0,0.0
21.0,61.0,43.0,27.0,41.0,31.0,-55.0,5.0,17.0,-3.0,0.0
24.0,48.0,26.0,17.0,30.0,27.0,-30.0,15.0,20.0,-2.0,0.0
10.0,42.0,22.0,10.0,14.0,27.0,-4.0,20.0,31.0,-14.0,0.0
-37.0,18.0,11.0,5.0,4.0,17.0,22.0,27.0,40.0,-35.0,0.0
-58.0,-3.0,-24.0,-4.0,-5.0,8.0,31.0,31.0,17.0,-45.0,0.0
-56.0,-32.0,-41.0,-26.0,-16.0,-12.0,31.0,19.0,-6.0,-45.0,0.0
-57.0,-45.0,-45.0,-60.0,-27.0,-34.0,50.0,-5.0,-16.0,-51.0,0.0
-71.0,-46.0,-39.0,-65.0,-34.0,-37.0,73.0,-17.0,-13.0,-63.0,0.0
-62.0,-31.0,-6.0,-25.0,-31.0,-37.0,59.0,-18.0,-15.0,-55.0,0.0
-43.0,-21.0,13.0,5.0,-17.0,-24.0,45.0,-10.0,-11.0,-40.0,0.0
-9.0,0.0,24.0,26.0,-1.0,0.0,50.0,14.0,9.0,-11.0,0.0
27.0,22.0,46.0,40.0,18.0,27.0,26.0,32.0,35.0,1.0,0.0
54.0,32.0,65.0,41.0,35.0,42.0,-1.0,39.0,41.0,11.0,0.0
69.0,43.0,71.0,60.0,54.0,48.0,-26.0,33.0,32.0,14.0,0.0
76.0,61.0,88.0,83.0,67.0,56.0,-41.0,35.0,22.0,19.0,0.0
57.0,53.0,92.0,77.0,71.0,65.0,-46.0,36.0,29.0,12.0,0.0
54.0,44.0,74.0,66.0,62.0,52.0,-39.0,22.0,24.0,-11.0,0.0
40.0,40.0,60.0,47.0,48.0,29.0,-32.0,19.0,16.0,-18.0,0.0
15.0,18.0,39.0,8.0,23.0,17.0,-16.0,8.0,25.0,-10.0,0.0
-18.0,-1.0,10.0,-19.0,4.0,6.0,0.0,-1.0,30.0,-24.0,0.0
-35.0,-13.0,-1.0,-25.0,-1.0,-13.0,13.0,-13.0,24.0,-41.0,0.0
-50.0,-28.0,-19.0,-27.0,-12.0,-12.0,28.0,-21.0,16.0,-30.0,0.0
-65.0,-38.0,-37.0,-46.0,-33.0,-18.0,52.0,-20.0,13.0,-33.0,0.0
-74.0,-47.0,-46.0,-68.0,-44.0,-35.0,48.0,-26.0,16.0,-40.0,0.0
-74.0,-42.0,-39.0,-61.0,-35.0,-28.0,43.0,-29.0,12.0,-37.0,0.0
-59.0,-43.0,-30.0,-57.0,-26.0,-21.0,45.0,-20.0,17.0,-24.0,0.0
-53.0,-33.0,-16.0,-44.0,-16.0,-20.0,27.0,-13.0,31.0,-11.0,0.0
-25.0,-6.0,9.0,-22.0,0.0,-14.0,2.0,-5.0,40.0,-2.0,0.0
-9.0,10.0,28.0,-3.0,3.0,-4.0,-21.0,7.0,32.0,3.0,0.0
9.0,28.0,28.0,7.0,10.0,9.0,-50.0,19.0,26.0,21.0,0.0
36.0,43.0,43.0,11.0,15.0,11.0,-72.0,28.0,27.0,32.0,0.0
52.0,84.0,72.0,33.0,26.0,17.0,-70.0,25.0,-2.0,38.0,0.0
60.0,83.0,83.0,31.0,31.0,13.0,-64.0,34.0,-11.0,45.0,0.0
56.0,67.0,65.0,22.0,10.0,1.0,-36.0,20.0,6.0,44.0,0.0
34.0,57.0,40.0,14.0,-2.0,5.0,-2.0,16.0,19.0,21.0,0.0
0.0,32.0,19.0,2.0,-14.0,-9.0,3.0,20.0,13.0,6.0,0.0
-16.0,-7.0,5.0,5.0,-26.0,-22.0,2.0,20.0,19.0,10.0,0.0
-31.0,-22.0,-14.0,-3.0,-30.0,-31.0,23.0,16.0,19.0,13.0,0.0
-75.0,-58.0,-39.0,-33.0,-32.0,-25.0,57.0,16.0,14.0,3.0,0.0
-113.0,-96.0,-63.0,-51.0,-38.0,-27.0,79.0,2.0,10.0,-22.0,0.0
-112.0,-90.0,-67.0,-62.0,-45.0,-35.0,81.0,-9.0,1.0,-26.0,0.0
-101.0,-75.0,-69.0,-46.0,-30.0,-27.0,86.0,2.0,-5.0,-23.0,0.0
-88.0,-63.0,-46.0,-34.0,-25.0,-8.0,65.0,1.0,-23.0,-42.0,0.0
-64.0,-41.0,-30.0,-18.0,-19.0,-2.0,50.0,1.0,-7.0,-38.0,0.0
-33.0,-11.0,-7.0,9.0,-2.0,13.0,28.0,3.0,-4.0,-13.0,0.0
-13.0,17.0,7.0,31.0,9.0,24.0,11.0,6.0,-6.0,0.0,0.0
-3.0,42.0,26.0,53.0,32.0,21.0,2.0,14.0,0.0,7.0,0.0
13.0,45.0,47.0,68.0,51.0,23.0,-15.0,30.0,20.0,13.0,0.0
29.0,51.0,48.0,68.0,54.0,23.0,-30.0,44.0,32.0,24.0,0.0
24.0,53.0,44.0,54.0,40.0,19.0,-27.0,50.0,44.0,35.0,0.0
35.0,36.0,30.0,31.0,27.0,-2.0,-38.0,49.0,63.0,43.0,0.0
46.0,25.0,21.0,10.0,17.0,-12.0,-39.0,46.0,69.0,62.0,0.0
45.0,12.0,25.0,-7.0,16.0,-32.0,-22.0,34.0,61.0,49.0,0.0
31.0,7.0,8.0,-10.0,15.0,-39.0,-3.0,16.0,29.0,22.0,0.0
3.0,-13.0,-13.0,-10.0,-1.0,-36.0,9.0,-4.0,-4.0,-15.0,0.0
-35.0,-52.0,-41.0,-27.0,-20.0,-32.0,37.0,-21.0,-26.0,-49.0,0.0
-56.0,-60.0,-46.0,-38.0,-32.0,-33.0,54.0,-43.0,-56.0,-63.0,0.0
-64.0,-43.0,-37.0,-21.0,-18.0,-27.0,58.0,-69.0,-92.0,-64.0,0.0
-56.0,-39.0,-11.0,-6.0,2.0,-15.0,65.0,-61.0,-84.0,-42.0,0.0
-43.0,-43.0,0.0,-5.0,10.0,0.0,53.0,-41.0,-57.0,-19.0,0.0
-22.0,-32.0,3.0,11.0,16.0,14.0,40.0,-21.0,-26.0,3.0,0.0
10.0,-2.0,23.0,28.0,25.0,18.0,19.0,1.0,-9.0,26.0,0.0
28.0,12.0,37.0,36.0,35.0,20.0,-5.0,15.0,8.0,25.0,0.0
53.0,19.0,59.0,47.0,50.0,38.0,-19.0,21.0,17.0,38.0,0.0
74.0,35.0,75.0,59.0,52.0,52.0,-38.0,35.0,16.0,40.0,0.0
79.0,44.0,68.0,53.0,45.0,37.0,-50.0,40.0,5.0,14.0,0.0
49.0,35.0,48.0,42.0,26.0,24.0,-66.0,41.0,-10.0,1.0,0.0
17.0,16.0,22.0,16.0,13.0,12.0,-69.0,28.0,-11.0,-4.0,0.0
5.0,8.0,18.0,3.0,6.0,-3.0,-58.0,5.0,-15.0,-16.0,0.0
-2.0,26.0,10.0,-5.0,-7.0,-17.0,-28.0,-3.0,-25.0,-9.0,0.0
-14.0,44.0,-8.0,-16.0,-22.0,-28.0,-2.0,-3.0,-18.0,-10.0,0.0
-37.0,24.0,-20.0,-30.0,-24.0,-29.0,16.0,-8.0,-25.0,-24.0,0.0
-47.0,-18.0,-31.0,-40.0,-36.0,-36.0,37.0,-20.0,-38.0,-19.0,0.0
-38.0,-57.0,-41.0,-38.0,-52.0,-34.0,57.0,-20.0,-30.0,26.0,0.0
-20.0,-57.0,-42.0,-30.0,-45.0,-29.0,79.0,-10.0,-25.0,29.0,0.0
-15.0,-33.0,-43.0,-30.0,-38.0,-43.0,74.0,-8.0,-20.0,8.0,0.0
-15.0,-21.0,-27.0,-11.0,-25.0,-41.0,56.0,2.0,-8.0,7.0,0.0
5.0,2.0,4.0,2.0,2.0,-18.0,32.0,14.0,11.0,29.0,0.0
14.0,23.0,31.0,23.0,25.0,-16.0,22.0,17.0,17.0,58.0,0.0
31.0,30.0,33.0,32.0,41.0,-9.0,-6.0,25.0,27.0,70.0,0.0
59.0,39.0,49.0,41.0,54.0,6.0,-32.0,31.0,36.0,92.0,0.0
70.0,51.0,69.0,48.0,61.0,21.0,-49.0,31.0,22.0,83.0,0.0
72.0,46.0,51.0,47.0,56.0,15.0,-50.0,26.0,14.0,39.0,0.0
73.0,41.0,25.0,42.0,43.0,10.0,-47.0,21.0,20.0,12.0,0.0
60.0,27.0,21.0,33.0,27.0,-8.0,-50.0,31.0,19.0,15.0,0.0
36.0,2.0,12.0,18.0,11.0,-24.0,-31.0,15.0,9.0,19.0,0.0
13.0,-17.0,-5.0,0.0,-16.0,-31.0,-12.0,-8.0,-9.0,8.0,0.0
-4.0,-26.0,-17.0,-12.0,-29.0,-29.0,8.0,-27.0,-15.0,5.0,0.0
-16.0,-37.0,-31.0,-27.0,-44.0,-36.0,32.0,-26.0,-24.0,-12.0,0.0
-31.0,-51.0,-58.0,-35.0,-63.0,-52.0,61.0,-20.0,-21.0,-9.0,0.0
-43.0,-59.0,-64.0,-40.0,-60.0,-51.0,73.0,-17.0,-18.0,-1.0,0.0
-23.0,-58.0,-55.0,-34.0,-40.0,-37.0,75.0,-7.0,-13.0,-11.0,0.0
-32.0,-42.0,-39.0,-17.0,-23.0,-26.0,69.0,-1.0,-10.0,-10.0,0.0
-27.0,-20.0,-12.0,9.0,-18.0,-3.0,39.0,2.0,-7.0,-8.0,0.0
6.0,18.0,10.0,25.0,-3.0,17.0,20.0,11.0,5.0,2.0,0.0
28.0,44.0,16.0,28.0,9.0,30.0,-8.0,17.0,25.0,15.0,0.0
57.0,51.0,21.0,23.0,23.0,30.0,-37.0,31.0,33.0,50.0,0.0
85.0,62.0,19.0,28.0,28.0,38.0,-59.0,34.0,34.0,82.0,0.0
86.0,66.0,13.0,37.0,29.0,36.0,-67.0,35.0,32.0,74.0,0.0
78.0,58.0,-1.0,34.0,27.0,18.0,-62.0,30.0,17.0,49.0,0.0
58.0,40.0,0.0,24.0,27.0,6.0,-59.0,15.0,0.0,21.0,0.0
28.0,21.0,17.0,13.0,26.0,0.0,-42.0,6.0,-15.0,3.0,0.0
0.0,9.0,2.0,0.0,4.0,-7.0,-23.0,-4.0,-17.0,-7.0,0.0
-9.0,-8.0,-15.0,-12.0,-9.0,-13.0,-2.0,-12.0,-10.0,-8.0,0.0
-17.0,-20.0,-32.0,-17.0,-24.0,-17.0,9.0,-7.0,-1.0,-18.0,0.0
-33.0,-38.0,-56.0,-37.0,-47.0,-36.0,30.0,-6.0,-5.0,-34.0,0.0
-61.0,-60.0,-67.0,-70.0,-59.0,-49.0,37.0,-22.0,-7.0,-42.0,0.0
-63.0,-56.0,-72.0,-82.0,-52.0,-48.0,38.0,-36.0,-5.0,-45.0,0.0
-55.0,-49.0,-68.0,-80.0,-48.0,-52.0,30.0,-27.0,-13.0,-37.0,0.0
-42.0,-37.0,-59.0,-64.0,-31.0,-52.0,17.0,-22.0,-26.0,-32.0,0.0
-14.0,-21.0,-36.0,-49.0,-16.0,-39.0,7.0,-17.0,-13.0,-13.0,0.0
9.0,0.0,-13.0,-24.0,-7.0,-27.0,-8.0,5.0,-11.0,-10.0,0.0
23.0,20.0,-12.0,-5.0,6.0,-17.0,-36.0,13.0,-4.0,-23.0,0.0
38.0,34.0,0.0,11.0,23.0,-5.0,-61.0,10.0,8.0,-32.0,0.0
48.0,44.0,26.0,33.0,42.0,-2.0,-72.0,11.0,14.0,-23.0,0.0
55.0,38.0,40.0,31.0,33.0,-8.0,-82.0,7.0,24.0,-9.0,0.0
60.0,26.0,23.0,13.0,16.0,-6.0,-88.0,11.0,30.0,-10.0,0.0
40.0,19.0,0.0,1.0,3.0,-2.0,-73.0,20.0,36.0,-8.0,0.0
25.0,-6.0,-26.0,-2.0,-7.0,-5.0,-44.0,4.0,32.0,-10.0,0.0
22.0,-16.0,-33.0,-24.0,-21.0,-21.0,-24.0,-1.0,24.0,-15.0,0.0
0.0,-31.0,-30.0,-35.0,-27.0,-27.0,-4.0,-2.0,12.0,-11.0,0.0
-36.0,-50.0,-35.0,-39.0,-41.0,-30.0,13.0,-11.0,-5.0,-11.0,0.0
-62.0,-70.0,-41.0,-49.0,-59.0,-34.0,37.0,-24.0,-13.0,-23.0,0.0
-67.0,-80.0,-51.0,-47.0,-61.0,-35.0,56.0,-33.0,-14.0,-33.0,0.0
-46.0,-70.0,-58.0,-34.0,-48.0,-21.0,54.0,-26.0,-19.0,-36.0,0.0
-28.0,-56.0,-43.0,-13.0,-26.0,-4.0,47.0,-29.0,-11.0,-32.0,0.0
-10.0,-36.0,-25.0,18.0,-14.0,-3.0,39.0,-22.0,0.0,-19.0,0.0
7.0,-10.0,-9.0,36.0,0.0,0.0,22.0,-20.0,5.0,-6.0,0.0
33.0,26.0,9.0,45.0,11.0,8.0,7.0,-18.0,17.0,14.0,0.0
54.0,51.0,21.0,59.0,28.0,5.0,-14.0,4.0,32.0,24.0,0.0
75.0,76.0,44.0,56.0,50.0,14.0,-35.0,27.0,43.0,26.0,0.0
84.0,74.0,63.0,45.0,56.0,21.0,-43.0,47.0,54.0,26.0,0.0
70.0,56.0,59.0,41.0,46.0,22.0,-45.0,46.0,66.0,25.0,0.0
36.0,39.0,52.0,29.0,31.0,6.0,-37.0,22.0,42.0,9.0,0.0
20.0,20.0,36.0,11.0,15.0,-3.0,-31.0,2.0,4.0,-8.0,0.0
0.0,2.0,20.0,7.0,-4.0,-22.0,-21.0,-24.0,6.0,-15.0,0.0
-19.0,-11.0,-9.0,-1.0,-29.0,-25.0,-8.0,-28.0,-1.0,-26.0,0.0
-35.0,-29.0,-19.0,-27.0,-39.0,-32.0,6.0,-29.0,-10.0,-34.0,0.0
-58.0,-42.0,-42.0,-49.0,-62.0,-37.0,16.0,-32.0,-15.0,-47.0,0.0
-68.0,-50.0,-53.0,-55.0,-70.0,-34.0,41.0,-26.0,-7.0,-44.0,0.0
-67.0,-62.0,-45.0,-55.0,-60.0,-27.0,64.0,-32.0,-2.0,-36.0,0.0
-73.0,-70.0,-42.0,-49.0,-50.0,-23.0,62.0,-31.0,4.0,-21.0,0.0
-67.0,-57.0,-28.0,-41.0,-32.0,-13.0,60.0,-20.0,6.0,-9.0,0.0
-51.0,-36.0,-14.0,-40.0,-15.0,8.0,45.0,0.0,15.0,-1.0,0.0
-20.0,-14.0,7.0,-22.0,0.0,34.0,11.0,16.0,25.0,15.0,0.0
6.0,6.0,20.0,20.0,20.0,49.0,-5.0,28.0,28.0,25.0,0.0
17.0,34.0,33.0,41.0,35.0,54.0,-19.0,27.0,20.0,10.0,0.0
25.0,46.0,44.0,43.0,46.0,64.0,-43.0,21.0,4.0,8.0,0.0
36.0,52.0,58.0,52.0,48.0,55.0,-61.0,12.0,-5.0,5.0,0.0
22.0,65.0,47.0,50.0,39.0,37.0,-73.0,5.0,-5.0,0.0,0.0
19.0,59.0,33.0,36.0,19.0,16.0,-73.0,6.0,-1.0,3.0,0.0
28.0,42.0,27.0,7.0,6.0,5.0,-60.0,0.0,0.0,-9.0,0.0
22.0,38.0,16.0,-12.0,-16.0,-7.0,-42.0,-8.0,-2.0,-7.0,0.0
18.0,32.0,2.0,-35.0,-22.0,-22.0,-23.0,-14.0,3.0,5.0,0.0
1.0,14.0,-10.0,-64.0,-25.0,-26.0,2.0,-12.0,16.0,7.0,0.0
-29.0,-15.0,-24.0,-74.0,-40.0,-40.0,28.0,-18.0,9.0,-1.0,0.0
-56.0,-29.0,-39.0,-61.0,-54.0,-48.0,61.0,-29.0,6.0,-13.0,0.0
-51.0,-37.0,-51.0,-55.0,-50.0,-42.0,68.0,-40.0,14.0,-18.0,0.0
-37.0,-32.0,-45.0,-46.0,-45.0,-36.0,52.0,-25.0,8.0,-3.0,0.0
-31.0,-21.0,-21.0,-32.0,-27.0,-25.0,40.0,-9.0,-2.0,-4.0,0.0
-23.0,-20.0,-15.0,-8.0,5.0,-7.0,22.0,-5.0,-24.0,-23.0,0.0
-7.0,-15.0,-1.0,15.0,31.0,9.0,-5.0,-7.0,-44.0,-21.0,0.0
20.0,0.0,27.0,20.0,40.0,16.0,-29.0,2.0,-51.0,0.0,0.0
48.0,13.0,52.0,27.0,32.0,29.0,-43.0,12.0,-34.0,19.0,0.0
63.0,34.0,74.0,37.0,31.0,34.0,-57.0,17.0,-16.0,47.0,0.0
64.0,36.0,61.0,32.0,42.0,28.0,-64.0,32.0,3.0,53.0,0.0
55.0,9.0,33.0,17.0,35.0,11.0,-59.0,20.0,-6.0,23.0,0.0
35.0,16.0,13.0,12.0,17.0,6.0,-53.0,6.0,-18.0,21.0,0.0
31.0,44.0,-3.0,-8.0,-5.0,6.0,-43.0,8.0,-8.0,26.0,0.0
39.0,42.0,-16.0,-29.0,-11.0,-23.0,-17.0,12.0,11.0,35.0,0.0
29.0,24.0,-25.0,-24.0,-25.0,-30.0,8.0,16.0,31.0,46.0,0.0
15.0,-12.0,-25.0,-7.0,-49.0,-24.0,31.0,14.0,39.0,44.0,0.0
-19.0,-53.0,-42.0,-23.0,-54.0,-37.0,46.0,13.0,27.0,28.0,0.0
-41.0,-64.0,-61.0,-26.0,-56.0,-37.0,60.0,14.0,16.0,19.0,0.0
-46.0,-55.0,-48.0,-22.0,-53.0,-23.0,60.0,9.0,0.0,1.0,0.0
-54.0,-53.0,-32.0,-6.0,-31.0,-12.0,43.0,14.0,-25.0,-28.0,0.0
-25.0,-51.0,-7.0,8.0,-11.0,-1.0,26.0,10.0,-30.0,-42.0,0.0
12.0,-25.0,7.0,19.0,5.0,6.0,27.0,3.0,-21.0,5.0,0.0
29.0,-11.0,-1.0,36.0,22.0,20.0,8.0,17.0,-24.0,18.0,0.0
44.0,16.0,13.0,44.0,41.0,26.0,-8.0,31.0,-19.0,3.0,0.0
51.0,30.0,46.0,56.0,58.0,27.0,-30.0,37.0,-2.0,-12.0,0.0
52.0,39.0,45.0,59.0,64.0,36.0,-56.0,48.0,10.0,-11.0,0.0
57.0,33.0,36.0,61.0,52.0,28.0,-54.0,44.0,12.0,-6.0,0.0
45.0,8.0,36.0,59.0,37.0,17.0,-50.0,42.0,24.0,-10.0,0.0
10.0,-7.0,32.0,44.0,34.0,7.0,-24.0,32.0,30.0,-20.0,0.0
-24.0,-21.0,15.0,35.0,18.0,-4.0,4.0,28.0,16.0,-31.0,0.0
-23.0,-41.0,3.0,31.0,11.0,-24.0,20.0,19.0,3.0,-47.0,0.0
-30.0,-43.0,-9.0,19.0,3.0,-32.0,29.0,0.0,-4.0,-54.0,0.0
-54.0,-50.0,-31.0,1.0,-17.0,-45.0,49.0,-5.0,4.0,-50.0,0.0
-77.0,-69.0,-62.0,-21.0,-40.0,-64.0,61.0,-18.0,-2.0,-45.0,0.0
-79.0,-73.0,-61.0,-45.0,-47.0,-69.0,70.0,-18.0,-18.0,-40.0,0.0
-52.0,-61.0,-51.0,-33.0,-35.0,-62.0,71.0,-23.0,-12.0,-21.0,0.0
-37.0,-50.0,-40.0,-12.0,-28.0,-60.0,42.0,-27.0,-6.0,-22.0,0.0
-17.0,-27.0,-24.0,8.0,-15.0,-35.0,21.0,-16.0,-16.0,-29.0,0.0
-4.0,6.0,11.0,37.0,16.0,-9.0,4.0,-13.0,-18.0,2.0,0.0
8.0,29.0,38.0,42.0,29.0,0.0,-24.0,-5.0,-21.0,-4.0,0.0
42.0,40.0,56.0,55.0,49.0,15.0,-40.0,-5.0,-19.0,-14.0,0.0
77.0,65.0,70.0,72.0,58.0,20.0,-48.0,-1.0,6.0,-3.0,0.0
74.0,77.0,72.0,70.0,58.0,22.0,-38.0,11.0,16.0,-6.0,0.0
56.0,61.0,66.0,60.0,48.0,15.0,-36.0,13.0,14.0,-12.0,0.0
49.0,36.0,44.0,49.0,39.0,-1.0,-20.0,18.0,44.0,10.0,0.0
36.0,19.0,23.0,37.0,27.0,-7.0,-4.0,26.0,56.0,23.0,0.0
7.0,-12.0,-4.0,19.0,13.0,-16.0,10.0,29.0,44.0,14.0,0.0
-17.0,-23.0,-14.0,2.0,-1.0,-17.0,13.0,24.0,36.0,-6.0,0.0
-41.0,-24.0,-33.0,-20.0,-22.0,-35.0,35.0,-11.0,15.0,-17.0,0.0
-54.0,-38.0,-47.0,-31.0,-49.0,-54.0,43.0,-39.0,-12.0,-32.0,0.0
-42.0,-26.0,-40.0,-33.0,-60.0,-49.0,39.0,-51.0,-27.0,-26.0,0.0
-15.0,-12.0,-17.0,-17.0,-50.0,-27.0,34.0,-59.0,-29.0,-35.0,0.0
-17.0,-11.0,-13.0,-9.0,-40.0,-11.0,35.0,-60.0,-27.0,-39.0,0.0
-28.0,-28.0,-12.0,-12.0,-31.0,-2.0,19.0,-55.0,-17.0,-32.0,0.0
-21.0,-13.0,2.0,-2.0,-15.0,23.0,0.0,-47.0,5.0,-15.0,0.0
3.0,15.0,35.0,18.0,8.0,45.0,-9.0,-38.0,-2.0,-15.0,0.0
14.0,27.0,44.0,36.0,28.0,55.0,-26.0,-38.0,-9.0,-18.0,0.0
27.0,44.0,55.0,47.0,30.0,62.0,-41.0,-20.0,10.0,-6.0,0.0
45.0,58.0,70.0,62.0,39.0,61.0,-54.0,0.0,21.0,9.0,0.0
46.0,54.0,60.0,64.0,40.0,38.0,-77.0,9.0,26.0,13.0,0.0
16.0,31.0,39.0,39.0,20.0,22.0,-81.0,-3.0,12.0,5.0,0.0
0.0,15.0,27.0,12.0,8.0,18.0,-48.0,-7.0,9.0,-4.0,0.0
-18.0,0.0,9.0,-12.0,0.0,14.0,-40.0,-20.0,6.0,2.0,0.0
-33.0,-11.0,-16.0,-33.0,-10.0,8.0,-26.0,-39.0,1.0,4.0,0.0
-33.0,-13.0,-25.0,-57.0,-23.0,-3.0,-8.0,-35.0,-5.0,-1.0,0.0
-52.0,-20.0,-30.0,-95.0,-30.0,-14.0,15.0,-38.0,-19.0,0.0,0.0
-72.0,-35.0,-54.0,-97.0,-43.0,-30.0,41.0,-40.0,-14.0,-5.0,0.0
-70.0,-54.0,-51.0,-97.0,-52.0,-31.0,66.0,-37.0,-4.0,-4.0,0.0
-61.0,-55.0,-46.0,-66.0,-43.0,-19.0,66.0,-42.0,3.0,8.0,0.0
-39.0,-33.0,-31.0,-36.0,-25.0,-2.0,59.0,-35.0,3.0,14.0,0.0
-17.0,-5.0,-19.0,-30.0,-5.0,15.0,50.0,-29.0,-3.0,20.0,0.0
15.0,24.0,-4.0,-11.0,5.0,27.0,25.0,-15.0,8.0,17.0,0.0
24.0,29.0,11.0,18.0,19.0,23.0,1.0,-14.0,0.0,13.0,0.0
27.0,41.0,25.0,33.0,28.0,29.0,-21.0,-13.0,-7.0,22.0,0.0
54.0,62.0,49.0,49.0,45.0,33.0,-59.0,5.0,-9.0,41.0,0.0
72.0,63.0,61.0,59.0,57.0,49.0,-73.0,15.0,-1.0,37.0,0.0
63.0,43.0,59.0,47.0,54.0,53.0,-73.0,13.0,-8.0,31.0,0.0
39.0,35.0,34.0,34.0,39.0,39.0,-48.0,12.0,-7.0,34.0,0.0
23.0,20.0,15.0,29.0,21.0,32.0,-18.0,8.0,0.0,34.0,0.0
10.0,2.0,-2.0,11.0,11.0,15.0,-1.0,0.0,-11.0,8.0,0.0
-14.0,-18.0,-7.0,1.0,-5.0,6.0,9.0,-4.0,-20.0,4.0,0.0
-38.0,-41.0,-27.0,-19.0,-19.0,19.0,32.0,-8.0,-22.0,6.0,0.0
-62.0,-61.0,-45.0,-35.0,-39.0,18.0,46.0,-27.0,-30.0,4.0,0.0
-84.0,-78.0,-60.0,-59.0,-60.0,8.0,57.0,-34.0,-41.0,-10.0,0.0
-84.0,-81.0,-60.0,-68.0,-58.0,5.0,49.0,-30.0,-47.0,-15.0,0.0
-64.0,-81.0,-33.0,-55.0,-43.0,2.0,50.0,-21.0,-38.0,-5.0,0.0
-46.0,-79.0,-13.0,-41.0,-33.0,15.0,47.0,-19.0,-28.0,7.0,0.0
-33.0,-56.0,3.0,-27.0,-21.0,27.0,22.0,-12.0,-32.0,8.0,0.0
-17.0,-33.0,24.0,-8.0,-2.0,33.0,0.0,-8.0,-28.0,14.0,0.0
15.0,-11.0,38.0,-3.0,8.0,47.0,-14.0,-5.0,-25.0,13.0,0.0
49.0,23.0,55.0,20.0,12.0,59.0,-32.0,2.0,-17.0,11.0,0.0
80.0,52.0,75.0,38.0,38.0,66.0,-57.0,23.0,-5.0,23.0,0.0
95.0,55.0,72.0,46.0,51.0,59.0,-69.0,30.0,3.0,15.0,0.0
86.0,49.0,62.0,48.0,38.0,51.0,-69.0,22.0,6.0,-6.0,0.0
76.0,34.0,52.0,25.0,22.0,31.0,-64.0,22.0,0.0,-8.0,0.0
62.0,22.0,39.0,7.0,9.0,16.0,-35.0,27.0,-12.0,0.0,0.0
49.0,9.0,20.0,-10.0,-7.0,7.0,-14.0,22.0,-21.0,-7.0,0.0
36.0,-2.0,2.0,-26.0,-22.0,1.0,0.0,13.0,-27.0,-3.0,0.0
14.0,-26.0,-20.0,-41.0,-27.0,-12.0,15.0,0.0,-31.0,2.0,0.0
-22.0,-39.0,-42.0,-54.0,-35.0,-25.0,44.0,-18.0,-35.0,-15.0,0.0
-45.0,-34.0,-61.0,-61.0,-56.0,-38.0,61.0,-29.0,-38.0,-45.0,0.0
-33.0,-14.0,-44.0,-53.0,-57.0,-36.0,61.0,-33.0,-41.0,-43.0,0.0
-26.0,18.0,-27.0,-43.0,-31.0,-23.0,58.0,-22.0,-34.0,-27.0,0.0
-17.0,15.0,-12.0,-25.0,-10.0,-21.0,44.0,-13.0,-26.0,-5.0,0.0
-4.0,9.0,5.0,7.0,2.0,-8.0,33.0,-3.0,-16.0,22.0,0.0
8.0,0.0,18.0,38.0,26.0,17.0,17.0,4.0,3.0,26.0,0.0
31.0,17.0,34.0,50.0,38.0,22.0,-10.0,14.0,-1.0,25.0,0.0
55.0,30.0,44.0,65.0,44.0,39.0,-40.0,16.0,8.0,18.0,0.0
70.0,32.0,44.0,72.0,55.0,39.0,-50.0,21.0,16.0,20.0,0.0
69.0,32.0,48.0,75.0,50.0,32.0,-51.0,34.0,21.0,22.0,0.0
58.0,32.0,38.0,65.0,38.0,27.0,-41.0,55.0,35.0,8.0,0.0
25.0,12.0,32.0,50.0,31.0,19.0,-42.0,49.0,28.0,-7.0,0.0
-11.0,-9.0,30.0,34.0,23.0,10.0,-28.0,33.0,24.0,-27.0,0.0
-24.0,-34.0,3.0,6.0,9.0,5.0,-8.0,15.0,10.0,-40.0,0.0
-33.0,-52.0,-19.0,-10.0,-9.0,0.0,-5.0,9.0,-8.0,-36.0,0.0
-49.0,-48.0,-32.0,-20.0,-28.0,-26.0,18.0,3.0,-13.0,-33.0,0.0
-53.0,-55.0,-47.0,-33.0,-56.0,-39.0,27.0,-12.0,-16.0,-28.0,0.0
-55.0,-54.0,-55.0,-38.0,-59.0,-28.0,26.0,-7.0,-42.0,-27.0,0.0
-49.0,-47.0,-55.0,-27.0,-52.0,-21.0,37.0,0.0,-32.0,-32.0,0.0
-49.0,-38.0,-58.0,-21.0,-41.0,-24.0,36.0,-6.0,-25.0,-45.0,0.0
-35.0,-12.0,-47.0,-19.0,-29.0,-13.0,10.0,-2.0,-25.0,-52.0,0.0
6.0,24.0,-28.0,-8.0,-8.0,0.0,-24.0,7.0,-31.0,-45.0,0.0
63.0,55.0,-3.0,-12.0,7.0,8.0,-44.0,9.0,-25.0,-34.0,0.0
118.0,75.0,20.0,9.0,26.0,22.0,-49.0,11.0,-4.0,19.0,0.0
133.0,80.0,35.0,40.0,47.0,39.0,-54.0,26.0,9.0,61.0,0.0
114.0,76.0,47.0,33.0,59.0,53.0,-74.0,36.0,4.0,47.0,0.0
77.0,53.0,50.0,21.0,61.0,39.0,-84.0,28.0,-22.0,12.0,0.0
51.0,41.0,36.0,11.0,49.0,29.0,-67.0,35.0,-12.0,-4.0,0.0
30.0,13.0,25.0,2.0,32.0,28.0,-54.0,38.0,-8.0,-1.0,0.0
12.0,-9.0,16.0,-9.0,13.0,20.0,-32.0,30.0,-12.0,10.0,0.0
-12.0,-20.0,-1.0,-27.0,-4.0,6.0,-8.0,22.0,-15.0,6.0,0.0
-35.0,-25.0,-9.0,-45.0,-11.0,-22.0,4.0,1.0,-43.0,-18.0,0.0
-60.0,-49.0,-30.0,-68.0,-22.0,-29.0,38.0,-4.0,-44.0,-38.0,0.0
-44.0,-62.0,-48.0,-72.0,-37.0,-36.0,64.0,-9.0,-43.0,-33.0,0.0
-35.0,-44.0,-48.0,-60.0,-42.0,-44.0,78.0,-7.0,-42.0,-4.0,0.0
-27.0,-24.0,-42.0,-27.0,-40.0,-38.0,84.0,-5.0,-34.0,-5.0,0.0
-12.0,-15.0,-33.0,-4.0,-28.0,-17.0,72.0,2.0,-15.0,6.0,0.0
7.0,-2.0,-5.0,15.0,-5.0,1.0,43.0,11.0,-17.0,12.0,0.0
16.0,-1.0,12.0,25.0,13.0,18.0,16.0,31.0,-9.0,21.0,0.0
29.0,5.0,16.0,40.0,20.0,23.0,-13.0,29.0,8.0,23.0,0.0
47.0,22.0,26.0,48.0,27.0,30.0,-35.0,22.0,22.0,30.0,0.0
66.0,29.0,45.0,55.0,34.0,32.0,-50.0,25.0,25.0,43.0,0.0
67.0,38.0,43.0,60.0,36.0,31.0,-60.0,42.0,12.0,50.0,0.0
57.0,28.0,40.0,40.0,32.0,26.0,-44.0,52.0,19.0,53.0,0.0
45.0,20.0,32.0,12.0,20.0,14.0,-37.0,53.0,23.0,41.0,0.0
33.0,16.0,14.0,-2.0,6.0,15.0,-20.0,44.0,24.0,33.0,0.0
0.0,-8.0,6.0,-14.0,-9.0,10.0,1.0,37.0,24.0,35.0,0.0
-26.0,-22.0,-7.0,-32.0,-17.0,8.0,18.0,34.0,10.0,22.0,0.0
-35.0,-25.0,-18.0,-43.0,-24.0,-2.0,22.0,11.0,-34.0,-18.0,0.0
-59.0,-48.0,-28.0,-56.0,-37.0,-20.0,46.0,-23.0,-66.0,-52.0,0.0
-72.0,-61.0,-45.0,-58.0,-35.0,-31.0,72.0,-24.0,-49.0,-56.0,0.0
-56.0,-50.0,-54.0,-47.0,-44.0,-32.0,66.0,-9.0,-36.0,-43.0,0.0
-40.0,-44.0,-41.0,-35.0,-34.0,-26.0,54.0,-2.0,-17.0,-30.0,0.0
-34.0,-39.0,-25.0,-15.0,-20.0,-24.0,48.0,9.0,-17.0,-14.0,0.0
-17.0,-18.0,-16.0,25.0,-8.0,-9.0,15.0,6.0,-6.0,4.0,0.0
2.0,0.0,0.0,51.0,7.0,12.0,-14.0,10.0,14.0,1.0,0.0
18.0,17.0,18.0,64.0,18.0,18.0,-33.0,16.0,13.0,0.0,0.0
32.0,32.0,31.0,71.0,33.0,25.0,-59.0,31.0,31.0,28.0,0.0
64.0,49.0,36.0,85.0,41.0,37.0,-61.0,50.0,65.0,61.0,0.0
72.0,60.0,39.0,73.0,35.0,37.0,-55.0,61.0,83.0,73.0,0.0
52.0,60.0,27.0,53.0,34.0,36.0,-39.0,57.0,80.0,64.0,0.0
36.0,30.0,1.0,37.0,30.0,18.0,-35.0,60.0,74.0,55.0,0.0
25.0,7.0,-6.0,30.0,12.0,-13.0,-26.0,42.0,53.0,30.0,0.0
6.0,3.0,2.0,26.0,-10.0,-26.0,-29.0,7.0,9.0,7.0,0.0
-14.0,-11.0,-4.0,16.0,-27.0,-22.0,-22.0,-6.0,-8.0,-2.0,0.0
-52.0,-27.0,-12.0,6.0,-35.0,-17.0,11.0,-14.0,-10.0,-11.0,0.0
-86.0,-62.0,-34.0,-13.0,-38.0,-16.0,36.0,-36.0,-23.0,-56.0,0.0
-83.0,-70.0,-50.0,-27.0,-34.0,-24.0,39.0,-59.0,-44.0,-75.0,0.0
-63.0,-43.0,-33.0,-19.0,-30.0,-23.0,29.0,-57.0,-59.0,-83.0,0.0
-46.0,-14.0,-11.0,-4.0,-20.0,-22.0,25.0,-45.0,-46.0,-69.0,0.0
-41.0,0.0,4.0,15.0,-9.0,-16.0,16.0,-36.0,-44.0,-44.0,0.0
-22.0,16.0,9.0,30.0,8.0,3.0,10.0,-25.0,-37.0,-16.0,0.0
1.0,34.0,12.0,40.0,24.0,15.0,3.0,-3.0,-19.0,-1.0,0.0
13.0,34.0,17.0,46.0,32.0,22.0,-26.0,12.0,-3.0,-2.0,0.0
20.0,40.0,34.0,40.0,44.0,23.0,-43.0,20.0,5.0,0.0,0.0
24.0,47.0,47.0,49.0,50.0,24.0,-49.0,22.0,20.0,17.0,0.0
32.0,50.0,43.0,53.0,43.0,23.0,-48.0,19.0,26.0,18.0,0.0
33.0,36.0,22.0,35.0,26.0,13.0,-47.0,13.0,19.0,14.0,0.0
25.0,11.0,2.0,10.0,23.0,9.0,-37.0,17.0,9.0,5.0,0.0
4.0,-7.0,-8.0,-6.0,14.0,3.0,-3.0,23.0,0.0,-4.0,0.0
-12.0,-25.0,-25.0,-21.0,-10.0,-9.0,26.0,26.0,-3.0,-21.0,0.0
-12.0,-24.0,-28.0,-28.0,-26.0,-29.0,24.0,5.0,-25.0,-17.0,0.0
-34.0,-22.0,-44.0,-32.0,-33.0,-31.0,37.0,-20.0,-34.0,-12.0,0.0
-53.0,-31.0,-65.0,-42.0,-50.0,-44.0,62.0,-33.0,-29.0,-3.0,0.0
-51.0,-37.0,-59.0,-43.0,-54.0,-46.0,70.0,-34.0,-37.0,-1.0,0.0
-59.0,-29.0,-41.0,-27.0,-49.0,-31.0,62.0,-44.0,-46.0,-23.0,0.0
-53.0,-21.0,-29.0,-27.0,-35.0,-21.0,61.0,-31.0,-60.0,-31.0,0.0
-36.0,-13.0,-11.0,-16.0,-15.0,-8.0,46.0,-13.0,-55.0,-16.0,0.0
0.0,4.0,12.0,3.0,0.0,5.0,17.0,-2.0,-43.0,-18.0,0.0
35.0,34.0,26.0,16.0,9.0,15.0,-6.0,11.0,-30.0,-10.0,0.0
54.0,53.0,41.0,31.0,31.0,16.0,-23.0,13.0,-16.0,-12.0,0.0
73.0,57.0,54.0,54.0,53.0,9.0,-36.0,10.0,-8.0,2.0,0.0
76.0,61.0,43.0,53.0,58.0,1.0,-36.0,23.0,-3.0,20.0,0.0
59.0,58.0,49.0,42.0,43.0,-4.0,-45.0,18.0,-11.0,24.0,0.0
48.0,45.0,40.0,27.0,26.0,-14.0,-49.0,13.0,-19.0,19.0,0.0
39.0,35.0,21.0,8.0,13.0,-25.0,-40.0,7.0,-14.0,24.0,0.0
5.0,3.0,-4.0,0.0,-9.0,-38.0,-26.0,-8.0,-26.0,15.0,0.0
-17.0,-10.0,-22.0,-14.0,-18.0,-49.0,-7.0,-21.0,-28.0,7.0,0.0
-34.0,-28.0,-40.0,-22.0,-39.0,-66.0,7.0,-42.0,-37.0,0.0,0.0
-60.0,-45.0,-54.0,-36.0,-61.0,-75.0,26.0,-43.0,-45.0,3.0,0.0
-63.0,-51.0,-68.0,-43.0,-68.0,-69.0,52.0,-35.0,-31.0,10.0,0.0
-53.0,-51.0,-71.0,-44.0,-53.0,-62.0,58.0,-36.0,-13.0,14.0,0.0
-49.0,-55.0,-46.0,-45.0,-34.0,-41.0,50.0,-27.0,-6.0,10.0,0.0
-32.0,-46.0,-27.0,-35.0,-13.0,-30.0,36.0,-26.0,3.0,0.0,0.0
-6.0,-15.0,-22.0,-12.0,0.0,-23.0,29.0,-22.0,17.0,25.0,0.0
13.0,6.0,-11.0,8.0,11.0,-3.0,12.0,-11.0,26.0,34.0,0.0
14.0,8.0,0.0,9.0,26.0,18.0,-18.0,10.0,41.0,34.0,0.0
11.0,10.0,15.0,23.0,55.0,46.0,-39.0,24.0,45.0,23.0,0.0
0.0,13.0,27.0,36.0,68.0,48.0,-49.0,24.0,39.0,-2.0,0.0
3.0,13.0,22.0,39.0,64.0,51.0,-48.0,12.0,38.0,-17.0,0.0
27.0,10.0,17.0,23.0,38.0,37.0,-45.0,13.0,21.0,20.0,0.0
22.0,15.0,3.0,4.0,20.0,9.0,-61.0,-4.0,3.0,35.0,0.0
25.0,19.0,-2.0,-10.0,2.0,-6.0,-53.0,-24.0,-4.0,13.0,0.0
35.0,48.0,-3.0,-25.0,-27.0,-8.0,-41.0,-35.0,-13.0,-6.0,0.0
36.0,87.0,-15.0,-33.0,-46.0,-9.0,-24.0,-36.0,-15.0,-4.0,0.0
27.0,83.0,-27.0,-31.0,-40.0,-12.0,2.0,-17.0,-24.0,-7.0,0.0
-6.0,48.0,-38.0,-44.0,-44.0,-7.0,33.0,-10.0,-30.0,-6.0,0.0
-34.0,8.0,-38.0,-48.0,-45.0,-10.0,57.0,-27.0,-15.0,-15.0,0.0
-26.0,-12.0,-34.0,-28.0,-38.0,6.0,70.0,-28.0,9.0,-11.0,0.0
-9.0,-4.0,-30.0,-18.0,-27.0,17.0,50.0,-23.0,-1.0,11.0,0.0
0.0,-1.0,-22.0,-7.0,-18.0,20.0,31.0,-17.0,-3.0,12.0,0.0
21.0,14.0,-5.0,2.0,-1.0,31.0,14.0,-1.0,9.0,9.0,0.0
24.0,27.0,0.0,13.0,23.0,26.0,-21.0,-5.0,13.0,10.0,0.0
24.0,49.0,13.0,28.0,42.0,28.0,-27.0,0.0,17.0,14.0,0.0
41.0,62.0,34.0,41.0,63.0,42.0,-39.0,12.0,27.0,22.0,0.0
45.0,61.0,51.0,48.0,59.0,37.0,-64.0,23.0,32.0,22.0,0.0
29.0,63.0,42.0,44.0,52.0,23.0,-79.0,13.0,43.0,22.0,0.0
19.0,50.0,26.0,22.0,44.0,2.0,-67.0,6.0,48.0,22.0,0.0
-9.0,20.0,11.0,7.0,28.0,-14.0,-46.0,8.0,38.0,5.0,0.0
-27.0,-1.0,-9.0,-10.0,15.0,-27.0,-21.0,-7.0,25.0,0.0,0.0
-45.0,-22.0,-26.0,-16.0,-4.0,-43.0,7.0,-17.0,13.0,-8.0,0.0
-67.0,-48.0,-34.0,-46.0,-17.0,-50.0,30.0,-22.0,-8.0,-33.0,0.0
-82.0,-73.0,-52.0,-68.0,-32.0,-53.0,39.0,-36.0,-16.0,-62.0,0.0
-93.0,-89.0,-58.0,-76.0,-44.0,-54.0,42.0,-50.0,-19.0,-60.0,0.0
-87.0,-90.0,-62.0,-74.0,-33.0,-54.0,49.0,-44.0,-14.0,-50.0,0.0
-74.0,-70.0,-58.0,-64.0,-28.0,-50.0,60.0,-33.0,0.0,-40.0,0.0
-66.0,-45.0,-44.0,-38.0,-22.0,-48.0,54.0,-25.0,-5.0,-39.0,0.0
-40.0,-21.0,-12.0,-16.0,0.0,-35.0,35.0,-14.0,-8.0,-16.0,0.0
2.0,6.0,12.0,-6.0,18.0,-8.0,11.0,-4.0,10.0,-9.0,0.0
16.0,27.0,17.0,5.0,24.0,11.0,-11.0,11.0,27.0,0.0,0.0
26.0,38.0,24.0,18.0,31.0,15.0,-39.0,22.0,40.0,15.0,0.0
42.0,47.0,36.0,23.0,45.0,14.0,-62.0,25.0,40.0,31.0,0.0
50.0,60.0,43.0,26.0,44.0,2.0,-66.0,19.0,37.0,28.0,0.0
43.0,63.0,44.0,22.0,39.0,-4.0,-59.0,20.0,37.0,25.0,0.0
29.0,40.0,44.0,17.0,22.0,-15.0,-48.0,16.0,29.0,15.0,0.0
8.0,20.0,19.0,13.0,14.0,-22.0,-30.0,3.0,16.0,-4.0,0.0
-8.0,0.0,-9.0,4.0,7.0,-27.0,-13.0,-3.0,6.0,-24.0,0.0
-24.0,-28.0,-27.0,1.0,-10.0,-33.0,10.0,-14.0,6.0,-33.0,0.0
-42.0,-57.0,-51.0,-20.0,-29.0,-40.0,29.0,-15.0,14.0,-28.0,0.0
-60.0,-66.0,-62.0,-44.0,-53.0,-54.0,51.0,-27.0,18.0,-27.0,0.0
-77.0,-73.0,-62.0,-52.0,-70.0,-59.0,63.0,-34.0,7.0,-33.0,0.0
-82.0,-72.0,-53.0,-39.0,-66.0,-55.0,72.0,-34.0,4.0,-22.0,0.0
-70.0,-66.0,-44.0,-23.0,-51.0,-32.0,70.0,-27.0,10.0,-24.0,0.0
-52.0,-49.0,-20.0,8.0,-28.0,-14.0,49.0,-31.0,-10.0,-30.0,0.0
-30.0,-14.0,14.0,29.0,-2.0,-7.0,29.0,-16.0,-12.0,-20.0,0.0
3.0,6.0,29.0,47.0,16.0,3.0,23.0,-13.0,-5.0,-17.0,0.0
22.0,19.0,31.0,66.0,28.0,17.0,22.0,1.0,4.0,-27.0,0.0
40.0,31.0,48.0,64.0,43.0,23.0,-1.0,20.0,31.0,-12.0,0.0
48.0,45.0,54.0,63.0,56.0,29.0,-19.0,27.0,43.0,7.0,0.0
44.0,39.0,56.0,64.0,55.0,25.0,-22.0,26.0,36.0,22.0,0.0
28.0,25.0,35.0,47.0,41.0,19.0,-36.0,26.0,21.0,20.0,0.0
21.0,21.0,19.0,32.0,23.0,11.0,-44.0,27.0,3.0,14.0,0.0
22.0,18.0,11.0,26.0,13.0,5.0,-17.0,21.0,1.0,9.0,0.0
0.0,-4.0,-9.0,10.0,-2.0,12.0,7.0,1.0,-18.0,-6.0,0.0
-17.0,-19.0,-31.0,-7.0,-25.0,9.0,17.0,-11.0,-6.0,-15.0,0.0
-35.0,-34.0,-60.0,-27.0,-36.0,-15.0,17.0,-13.0,3.0,-16.0,0.0
-64.0,-47.0,-77.0,-47.0,-42.0,-13.0,45.0,-12.0,0.0,-30.0,0.0
-77.0,-49.0,-82.0,-49.0,-29.0,-3.0,65.0,-16.0,12.0,-44.0,0.0
-84.0,-37.0,-85.0,-38.0,-19.0,13.0,60.0,-12.0,14.0,-52.0,0.0
-82.0,-35.0,-67.0,-27.0,-19.0,13.0,56.0,-4.0,1.0,-57.0,0.0
-46.0,-15.0,-42.0,-21.0,-5.0,8.0,48.0,3.0,-2.0,-23.0,0.0
23.0,18.0,-10.0,-5.0,9.0,20.0,25.0,14.0,9.0,52.0,0.0
54.0,40.0,21.0,8.0,30.0,30.0,11.0,19.0,14.0,71.0,0.0
47.0,43.0,25.0,20.0,48.0,41.0,-9.0,18.0,12.0,51.0,0.0
50.0,37.0,38.0,29.0,61.0,38.0,-35.0,24.0,29.0,33.0,0.0
68.0,32.0,48.0,16.0,57.0,36.0,-55.0,28.0,42.0,31.0,0.0
66.0,34.0,52.0,1.0,46.0,41.0,-52.0,44.0,46.0,20.0,0.0
39.0,28.0,43.0,-15.0,30.0,33.0,-36.0,43.0,40.0,24.0,0.0
48.0,15.0,23.0,-34.0,14.0,17.0,-16.0,30.0,30.0,12.0,0.0
53.0,5.0,12.0,-48.0,-8.0,9.0,0.0,24.0,22.0,12.0,0.0
40.0,-5.0,-10.0,-56.0,-25.0,1.0,11.0,22.0,15.0,18.0,0.0
23.0,-17.0,-19.0,-54.0,-34.0,-10.0,24.0,7.0,-1.0,15.0,0.0
-8.0,-48.0,-37.0,-55.0,-42.0,-19.0,37.0,-10.0,-6.0,-3.0,0.0
-40.0,-50.0,-48.0,-68.0,-49.0,-29.0,54.0,-23.0,-24.0,-26.0,0.0
-41.0,-53.0,-39.0,-75.0,-48.0,-34.0,55.0,-24.0,-22.0,-39.0,0.0
-35.0,-49.0,-29.0,-50.0,-37.0,-34.0,43.0,-8.0,-2.0,-33.0,0.0
-26.0,-46.0,-10.0,-26.0,-29.0,-23.0,35.0,-5.0,-3.0,-23.0,0.0
-12.0,-17.0,19.0,-10.0,-13.0,-2.0,7.0,-13.0,0.0,-8.0,0.0
14.0,8.0,31.0,7.0,0.0,7.0,-12.0,-5.0,11.0,9.0,0.0
30.0,30.0,32.0,19.0,3.0,16.0,-23.0,18.0,29.0,25.0,0.0
48.0,45.0,40.0,32.0,10.0,23.0,-40.0,25.0,28.0,18.0,0.0
68.0,55.0,53.0,47.0,20.0,22.0,-69.0,25.0,29.0,36.0,0.0
78.0,54.0,64.0,44.0,28.0,19.0,-84.0,33.0,26.0,57.0,0.0
59.0,35.0,55.0,25.0,23.0,17.0,-77.0,29.0,26.0,43.0,0.0
29.0,9.0,47.0,-8.0,10.0,5.0,-77.0,15.0,21.0,24.0,0.0
1.0,-8.0,31.0,-34.0,-10.0,0.0,-54.0,5.0,14.0,15.0,0.0
-22.0,-18.0,3.0,-41.0,-14.0,-11.0,-35.0,7.0,13.0,19.0,0.0
-35.0,-30.0,-25.0,-36.0,-14.0,-16.0,-32.0,-8.0,-4.0,14.0,0.0
-52.0,-43.0,-39.0,-34.0,-33.0,-22.0,-22.0,-28.0,-14.0,-9.0,0.0
-73.0,-62.0,-34.0,-41.0,-56.0,-27.0,6.0,-37.0,-27.0,-19.0,0.0
-71.0,-74.0,-56.0,-50.0,-57.0,-22.0,26.0,-44.0,-26.0,-14.0,0.0
-67.0,-68.0,-53.0,-36.0,-48.0,-13.0,33.0,-37.0,-15.0,-11.0,0.0
-64.0,-58.0,-31.0,-13.0,-35.0,-9.0,33.0,-29.0,-24.0,-3.0,0.0
-41.0,-43.0,-16.0,4.0,-25.0,-2.0,30.0,-17.0,-15.0,23.0,0.0
-9.0,-24.0,-1.0,10.0,-12.0,0.0,14.0,-9.0,5.0,30.0,0.0
18.0,-6.0,17.0,14.0,12.0,3.0,1.0,-2.0,19.0,21.0,0.0
46.0,5.0,29.0,26.0,35.0,14.0,-17.0,12.0,25.0,21.0,0.0
62.0,25.0,45.0,46.0,53.0,29.0,-29.0,20.0,19.0,23.0,0.0
69.0,34.0,46.0,65.0,64.0,48.0,-40.0,44.0,26.0,22.0,0.0
62.0,16.0,44.0,66.0,70.0,46.0,-51.0,55.0,29.0,14.0,0.0
38.0,0.0,21.0,50.0,52.0,37.0,-45.0,48.0,14.0,4.0,0.0
6.0,-10.0,6.0,45.0,41.0,35.0,-31.0,39.0,0.0,3.0,0.0
-5.0,-20.0,-5.0,31.0,42.0,23.0,-12.0,27.0,-4.0,6.0,0.0
-12.0,-41.0,-10.0,16.0,16.0,8.0,8.0,22.0,-7.0,-12.0,0.0
-38.0,-64.0,-7.0,7.0,-2.0,-4.0,21.0,15.0,-21.0,-5.0,0.0
-59.0,-80.0,-17.0,-12.0,-20.0,-23.0,40.0,7.0,-33.0,-13.0,0.0
-82.0,-103.0,-35.0,-37.0,-39.0,-45.0,60.0,-11.0,-42.0,-19.0,0.0
-84.0,-103.0,-48.0,-54.0,-46.0,-59.0,60.0,-31.0,-50.0,-25.0,0.0
-58.0,-61.0,-33.0,-55.0,-42.0,-60.0,53.0,-35.0,-42.0,-25.0,0.0
-27.0,-5.0,-3.0,-53.0,-30.0,-41.0,48.0,-33.0,-25.0,-9.0,0.0
11.0,57.0,23.0,-47.0,-7.0,-20.0,33.0,-32.0,-17.0,-12.0,0.0
76.0,97.0,61.0,-18.0,27.0,3.0,21.0,-8.0,-5.0,3.0,0.0
115.0,104.0,78.0,17.0,50.0,22.0,4.0,11.0,12.0,31.0,0.0
118.0,77.0,89.0,28.0,59.0,37.0,-9.0,14.0,28.0,46.0,0.0
107.0,70.0,86.0,42.0,61.0,52.0,-29.0,27.0,36.0,60.0,0.0
86.0,63.0,81.0,68.0,65.0,45.0,-58.0,31.0,35.0,43.0,0.0
66.0,40.0,72.0,65.0,57.0,34.0,-60.0,31.0,30.0,28.0,0.0
43.0,21.0,60.0,45.0,39.0,25.0,-46.0,27.0,6.0,32.0,0.0
24.0,14.0,43.0,30.0,26.0,19.0,-38.0,18.0,8.0,16.0,0.0
16.0,4.0,30.0,22.0,8.0,11.0,-13.0,13.0,10.0,0.0,0.0
-10.0,0.0,21.0,9.0,-7.0,3.0,21.0,14.0,5.0,-8.0,0.0
-37.0,-20.0,3.0,0.0,-18.0,-7.0,47.0,28.0,-1.0,-14.0,0.0
-59.0,-56.0,-19.0,-10.0,-40.0,-9.0,68.0,19.0,-4.0,-27.0,0.0
-81.0,-63.0,-38.0,-14.0,-50.0,-10.0,88.0,-4.0,-4.0,-31.0,0.0
-76.0,-61.0,-44.0,-21.0,-52.0,-15.0,90.0,-23.0,3.0,-35.0,0.0
-67.0,-63.0,-21.0,-32.0,-30.0,-9.0,65.0,-17.0,-1.0,-35.0,0.0
-51.0,-46.0,-1.0,-10.0,-13.0,-2.0,67.0,-11.0,-11.0,-15.0,0.0
-33.0,-21.0,15.0,10.0,-7.0,18.0,62.0,-7.0,-5.0,-7.0,0.0
-13.0,5.0,32.0,30.0,1.0,16.0,22.0,6.0,-17.0,-5.0,0.0
-1.0,9.0,46.0,36.0,7.0,20.0,9.0,13.0,-27.0,-2.0,0.0
3.0,26.0,55.0,55.0,32.0,30.0,-7.0,19.0,-10.0,2.0,0.0
11.0,43.0,65.0,60.0,56.0,24.0,-28.0,30.0,17.0,4.0,0.0
15.0,48.0,78.0,50.0,57.0,18.0,-38.0,22.0,32.0,11.0,0.0
1.0,32.0,68.0,27.0,44.0,16.0,-34.0,16.0,18.0,6.0,0.0
-25.0,17.0,51.0,0.0,29.0,-1.0,-25.0,23.0,19.0,4.0,0.0
-11.0,3.0,37.0,-22.0,14.0,-21.0,-21.0,14.0,10.0,13.0,0.0
2.0,-5.0,27.0,-41.0,-2.0,-23.0,-3.0,3.0,-14.0,44.0,0.0
-25.0,-1.0,8.0,-51.0,-17.0,-16.0,21.0,-13.0,-40.0,29.0,0.0
-60.0,-18.0,-9.0,-52.0,-41.0,-29.0,39.0,-33.0,-57.0,-3.0,0.0
-84.0,-43.0,-18.0,-66.0,-56.0,-31.0,59.0,-37.0,-57.0,-26.0,0.0
-81.0,-45.0,-29.0,-72.0,-74.0,-35.0,76.0,-36.0,-51.0,-19.0,0.0
-67.0,-43.0,-40.0,-48.0,-75.0,-39.0,73.0,-35.0,-36.0,-24.0,0.0
-69.0,-40.0,-37.0,-40.0,-69.0,-42.0,66.0,-25.0,-29.0,-18.0,0.0
-54.0,-27.0,-23.0,-34.0,-51.0,-25.0,49.0,-29.0,-30.0,6.0,0.0
-21.0,3.0,5.0,-12.0,-32.0,-4.0,13.0,-21.0,-19.0,11.0,0.0
14.0,34.0,34.0,13.0,-15.0,10.0,-18.0,-14.0,-4.0,26.0,0.0
38.0,50.0,50.0,28.0,-1.0,19.0,-35.0,-7.0,0.0,36.0,0.0
41.0,55.0,64.0,31.0,14.0,14.0,-54.0,-4.0,-7.0,35.0,0.0
53.0,57.0,66.0,18.0,29.0,15.0,-81.0,0.0,-9.0,29.0,0.0
46.0,62.0,59.0,10.0,35.0,16.0,-84.0,13.0,-1.0,30.0,0.0
11.0,54.0,40.0,8.0,35.0,17.0,-67.0,12.0,-3.0,37.0,0.0
-6.0,35.0,24.0,-5.0,18.0,12.0,-51.0,5.0,3.0,13.0,0.0
-24.0,15.0,25.0,-24.0,0.0,1.0,-40.0,2.0,0.0,-3.0,0.0
-46.0,-9.0,17.0,-35.0,-11.0,-9.0,-10.0,-20.0,8.0,-3.0,0.0
-52.0,-13.0,-8.0,-47.0,-26.0,-19.0,1.0,-18.0,6.0,4.0,0.0
-63.0,-21.0,-33.0,-66.0,-47.0,-32.0,23.0,-24.0,-12.0,14.0,0.0
-99.0,-41.0,-49.0,-73.0,-59.0,-40.0,42.0,-26.0,-26.0,7.0,0.0
-117.0,-57.0,-56.0,-76.0,-61.0,-38.0,24.0,-28.0,-32.0,3.0,0.0
-101.0,-65.0,-48.0,-55.0,-58.0,-27.0,19.0,-21.0,-24.0,-6.0,0.0
-86.0,-55.0,-38.0,-30.0,-43.0,-11.0,30.0,-26.0,-20.0,-20.0,0.0
-62.0,-36.0,-19.0,-12.0,-19.0,-5.0,24.0,-26.0,-26.0,-27.0,0.0
-44.0,-9.0,5.0,8.0,-1.0,14.0,-10.0,-13.0,-13.0,-24.0,0.0
-26.0,-1.0,24.0,33.0,17.0,22.0,-30.0,6.0,5.0,-13.0,0.0
-6.0,4.0,41.0,51.0,36.0,19.0,-30.0,9.0,23.0,0.0,0.0
4.0,16.0,58.0,57.0,50.0,20.0,-38.0,30.0,39.0,19.0,0.0
17.0,29.0,50.0,56.0,58.0,23.0,-53.0,32.0,52.0,24.0,0.0
11.0,28.0,47.0,57.0,49.0,26.0,-47.0,38.0,42.0,27.0,0.0
0.0,10.0,24.0,53.0,33.0,8.0,-32.0,28.0,35.0,5.0,0.0
-20.0,5.0,18.0,42.0,22.0,-6.0,-16.0,11.0,28.0,-19.0,0.0
-28.0,7.0,7.0,21.0,1.0,-14.0,-11.0,1.0,0.0,-32.0,0.0
-29.0,8.0,-11.0,14.0,-13.0,-24.0,-9.0,-10.0,-20.0,-33.0,0.0
-23.0,7.0,-25.0,6.0,-20.0,-32.0,5.0,-19.0,-24.0,-24.0,0.0
-19.0,5.0,-42.0,-9.0,-38.0,-45.0,43.0,-27.0,-27.0,-32.0,0.0
-5.0,0.0,-62.0,-17.0,-50.0,-44.0,69.0,-37.0,-26.0,-27.0,0.0
8.0,1.0,-67.0,-15.0,-50.0,-30.0,62.0,-28.0,-21.0,-25.0,0.0
28.0,9.0,-52.0,-16.0,-42.0,-19.0,49.0,-23.0,-3.0,-14.0,0.0
9.0,8.0,-48.0,-17.0,-28.0,-7.0,36.0,-16.0,-6.0,-1.0,0.0
16.0,3.0,-36.0,-8.0,-10.0,0.0,19.0,7.0,10.0,-4.0,0.0
45.0,29.0,-9.0,6.0,0.0,12.0,0.0,19.0,14.0,-9.0,0.0
52.0,56.0,13.0,9.0,20.0,24.0,-2.0,16.0,6.0,-7.0,0.0
63.0,51.0,24.0,21.0,43.0,29.0,-9.0,24.0,16.0,8.0,0.0
81.0,62.0,41.0,37.0,61.0,25.0,-28.0,33.0,29.0,18.0,0.0
83.0,70.0,55.0,39.0,51.0,31.0,-42.0,34.0,28.0,8.0,0.0
65.0,54.0,43.0,25.0,48.0,21.0,-39.0,19.0,26.0,-7.0,0.0
46.0,31.0,16.0,24.0,36.0,8.0,-34.0,11.0,19.0,-14.0,0.0
28.0,10.0,-3.0,7.0,19.0,1.0,-26.0,1.0,9.0,-16.0,0.0
1.0,-15.0,-21.0,-10.0,16.0,-1.0,-17.0,-2.0,-5.0,-23.0,0.0
-13.0,-37.0,-33.0,-13.0,9.0,1.0,-2.0,3.0,-16.0,-23.0,0.0
-30.0,-42.0,-47.0,-26.0,-13.0,0.0,8.0,9.0,-11.0,-27.0,0.0
-50.0,-59.0,-51.0,-40.0,-31.0,-18.0,19.0,1.0,-16.0,-43.0,0.0
-64.0,-64.0,-58.0,-44.0,-38.0,-24.0,38.0,0.0,-12.0,-49.0,0.0
-48.0,-59.0,-59.0,-37.0,-37.0,-18.0,47.0,-2.0,-16.0,-39.0,0.0
-30.0,-44.0,-45.0,-22.0,-28.0,-13.0,33.0,-10.0,-4.0,-27.0,0.0
-8.0,-33.0,-20.0,-11.0,-13.0,-2.0,21.0,-17.0,0.0,-14.0,0.0
24.0,-17.0,3.0,8.0,5.0,11.0,4.0,-4.0,4.0,-11.0,0.0
41.0,9.0,14.0,16.0,18.0,25.0,-10.0,3.0,16.0,-3.0,0.0
55.0,37.0,24.0,28.0,29.0,36.0,-36.0,16.0,32.0,26.0,0.0
65.0,46.0,41.0,50.0,37.0,32.0,-64.0,25.0,48.0,44.0,0.0
80.0,63.0,58.0,65.0,44.0,24.0,-82.0,35.0,51.0,43.0,0.0
94.0,65.0,54.0,58.0,40.0,13.0,-95.0,13.0,42.0,33.0,0.0
78.0,56.0,38.0,39.0,30.0,10.0,-79.0,4.0,40.0,30.0,0.0
48.0,42.0,26.0,25.0,13.0,5.0,-49.0,17.0,40.0,21.0,0.0
20.0,28.0,-5.0,4.0,-8.0,-14.0,-25.0,23.0,31.0,6.0,0.0
-11.0,13.0,-23.0,-12.0,-23.0,-25.0,-3.0,20.0,25.0,-22.0,0.0
-32.0,-6.0,-30.0,-17.0,-29.0,-23.0,15.0,27.0,41.0,-22.0,0.0
-44.0,-38.0,-41.0,-26.0,-37.0,-23.0,39.0,9.0,27.0,-15.0,0.0
-72.0,-72.0,-52.0,-40.0,-47.0,-30.0,57.0,-12.0,6.0,-26.0,0.0
-82.0,-83.0,-55.0,-30.0,-49.0,-20.0,74.0,-6.0,9.0,-20.0,0.0
-59.0,-65.0,-46.0,-26.0,-43.0,-24.0,74.0,-4.0,6.0,-7.0,0.0
-46.0,-50.0,-37.0,-10.0,-44.0,-31.0,68.0,-11.0,-4.0,1.0,0.0
-25.0,-34.0,-13.0,11.0,-34.0,-18.0,53.0,-3.0,-8.0,8.0,0.0
-2.0,0.0,9.0,34.0,-6.0,4.0,32.0,7.0,0.0,30.0,0.0
37.0,29.0,34.0,32.0,25.0,15.0,7.0,9.0,1.0,17.0,0.0
58.0,50.0,61.0,24.0,52.0,26.0,-26.0,-4.0,-11.0,-14.0,0.0
71.0,57.0,85.0,43.0,63.0,34.0,-48.0,0.0,4.0,-41.0,0.0
79.0,74.0,86.0,49.0,57.0,22.0,-63.0,-1.0,7.0,-40.0,0.0
90.0,80.0,75.0,35.0,45.0,15.0,-72.0,-6.0,1.0,-26.0,0.0
78.0,60.0,49.0,18.0,26.0,6.0,-61.0,-7.0,6.0,-8.0,0.0
58.0,34.0,37.0,6.0,13.0,-16.0,-39.0,-17.0,-4.0,-5.0,0.0
45.0,19.0,17.0,-27.0,9.0,-21.0,-23.0,-17.0,-12.0,-8.0,0.0
23.0,2.0,-2.0,-45.0,-3.0,-30.0,-12.0,-10.0,-8.0,-17.0,0.0
4.0,7.0,-15.0,-44.0,-24.0,-30.0,4.0,-19.0,-15.0,-26.0,0.0
-18.0,7.0,-20.0,-51.0,-41.0,-32.0,35.0,-28.0,-17.0,-33.0,0.0
-29.0,-7.0,-23.0,-61.0,-41.0,-39.0,53.0,-45.0,-14.0,-33.0,0.0
-35.0,-32.0,-26.0,-60.0,-35.0,-37.0,52.0,-29.0,-17.0,-22.0,0.0
-40.0,-50.0,-27.0,-57.0,-19.0,-20.0,38.0,0.0,-14.0,-13.0,0.0
-44.0,-33.0,-20.0,-50.0,-10.0,-7.0,45.0,7.0,-3.0,-5.0,0.0
-27.0,-19.0,2.0,-18.0,1.0,-12.0,36.0,11.0,0.0,-6.0,0.0
10.0,-5.0,21.0,7.0,13.0,1.0,0.0,15.0,-3.0,3.0,0.0
34.0,22.0,32.0,24.0,34.0,24.0,-25.0,14.0,5.0,9.0,0.0
60.0,44.0,50.0,33.0,52.0,28.0,-33.0,17.0,14.0,25.0,0.0
77.0,67.0,62.0,47.0,65.0,40.0,-48.0,27.0,26.0,32.0,0.0
49.0,65.0,56.0,53.0,47.0,32.0,-47.0,26.0,27.0,47.0,0.0
27.0,47.0,38.0,46.0,39.0,24.0,-38.0,24.0,34.0,38.0,0.0
6.0,26.0,25.0,36.0,26.0,13.0,-41.0,2.0,7.0,31.0,0.0
-26.0,-20.0,-3.0,12.0,14.0,-25.0,-70.0,-36.0,-69.0,-5.0,0.0
-41.0,-21.0,-15.0,0.0,4.0,-21.0,-21.0,-36.0,-30.0,-6.0,0.0
-46.0,-28.0,-31.0,-11.0,-9.0,-16.0,30.0,-35.0,3.0,-9.0,0.0
-70.0,-42.0,-48.0,-19.0,-31.0,-35.0,55.0,-41.0,1.0,-29.0,0.0
-86.0,-48.0,-60.0,-39.0,-39.0,-50.0,53.0,-53.0,-5.0,-23.0,0.0
-75.0,-37.0,-44.0,-39.0,-32.0,-36.0,43.0,-69.0,-27.0,-20.0,0.0
-13.0,-1.0,-42.0,-1.0,-2.0,-5.0,31.0,-41.0,-3.0,27.0,0.0
0.0,26.0,-21.0,7.0,13.0,-2.0,17.0,-15.0,19.0,25.0,0.0
24.0,32.0,0.0,20.0,31.0,11.0,-7.0,-5.0,12.0,20.0,0.0
29.0,25.0,22.0,18.0,44.0,12.0,-64.0,-8.0,-36.0,14.0,0.0
48.0,45.0,35.0,35.0,60.0,36.0,-62.0,16.0,5.0,28.0,0.0
55.0,60.0,33.0,51.0,68.0,56.0,-56.0,28.0,30.0,39.0,0.0
52.0,59.0,31.0,37.0,67.0,54.0,-56.0,20.0,33.0,34.0,0.0
37.0,47.0,16.0,15.0,48.0,45.0,-47.0,24.0,32.0,40.0,0.0
23.0,27.0,0.0,0.0,25.0,40.0,-48.0,27.0,25.0,32.0,0.0
14.0,-11.0,-24.0,-30.0,-4.0,2.0,-1.0,6.0,15.0,13.0,0.0
6.0,-28.0,-30.0,-39.0,1.0,-2.0,16.0,-2.0,2.0,10.0,0.0
-26.0,-44.0,-39.0,-61.0,-13.0,-13.0,24.0,-19.0,-42.0,-12.0,0.0
-59.0,-69.0,-50.0,-76.0,-41.0,-38.0,16.0,-50.0,-103.0,-37.0,0.0
-47.0,-35.0,-48.0,-70.0,-49.0,-2.0,65.0,-49.0,-24.0,-32.0,0.0
-13.0,-18.0,-29.0,-50.0,-40.0,5.0,54.0,-37.0,-5.0,-16.0,0.0
14.0,1.0,-16.0,-30.0,-24.0,17.0,36.0,-32.0,4.0,-5.0,0.0
22.0,9.0,0.0,-13.0,-4.0,20.0,-41.0,-26.0,-42.0,-9.0,0.0
35.0,40.0,30.0,10.0,5.0,36.0,-35.0,5.0,0.0,-1.0,0.0
70.0,63.0,47.0,29.0,20.0,44.0,-15.0,29.0,42.0,12.0,0.0
83.0,64.0,43.0,37.0,38.0,32.0,-34.0,27.0,47.0,28.0,0.0
72.0,55.0,39.0,50.0,46.0,35.0,-41.0,20.0,34.0,34.0,0.0
60.0,42.0,38.0,50.0,34.0,34.0,-54.0,23.0,6.0,22.0,0.0
42.0,24.0,16.0,26.0,14.0,20.0,-14.0,25.0,16.0,6.0,0.0
15.0,5.0,3.0,1.0,-2.0,9.0,-5.0,23.0,8.0,-17.0,0.0
-14.0,-9.0,-7.0,-36.0,-14.0,4.0,-12.0,16.0,-8.0,-19.0,0.0
-52.0,-44.0,-40.0,-57.0,-21.0,-10.0,-44.0,-15.0,-67.0,-35.0,0.0
-63.0,-64.0,-54.0,-59.0,-34.0,-14.0,0.0,-30.0,-45.0,-38.0,0.0
-68.0,-60.0,-67.0,-60.0,-46.0,-13.0,44.0,-18.0,-22.0,-30.0,0.0
-68.0,-44.0,-59.0,-58.0,-44.0,-20.0,62.0,-20.0,-9.0,-18.0,0.0
-56.0,-40.0,-49.0,-48.0,-31.0,-32.0,33.0,-18.0,-8.0,-14.0,0.0
-44.0,-31.0,-34.0,-36.0,-21.0,-24.0,16.0,-6.0,2.0,-16.0,0.0
-26.0,-13.0,-13.0,-7.0,-6.0,-7.0,21.0,14.0,21.0,-2.0,0.0
0.0,-2.0,3.0,19.0,9.0,13.0,0.0,32.0,22.0,-3.0,0.0
19.0,11.0,13.0,20.0,21.0,22.0,-13.0,42.0,27.0,16.0,0.0
45.0,27.0,18.0,45.0,37.0,22.0,-38.0,43.0,23.0,39.0,0.0
46.0,51.0,37.0,80.0,37.0,25.0,-66.0,19.0,13.0,40.0,0.0
21.0,50.0,36.0,75.0,24.0,24.0,-57.0,20.0,9.0,38.0,0.0
13.0,33.0,25.0,55.0,12.0,16.0,-39.0,22.0,4.0,14.0,0.0
7.0,25.0,9.0,28.0,9.0,-8.0,-34.0,3.0,-19.0,-17.0,0.0
-13.0,-9.0,-2.0,-21.0,-1.0,-31.0,-56.0,-30.0,-61.0,-42.0,0.0
-33.0,-20.0,-15.0,-40.0,-13.0,-32.0,-7.0,-24.0,-21.0,-36.0,0.0
-60.0,-33.0,-17.0,-34.0,-13.0,-23.0,30.0,-15.0,6.0,-37.0,0.0
-85.0,-52.0,-39.0,-50.0,-28.0,-29.0,39.0,-20.0,-7.0,-44.0,0.0
-89.0,-72.0,-51.0,-60.0,-28.0,-38.0,28.0,-42.0,-22.0,-42.0,0.0
-64.0,-76.0,-49.0,-52.0,-33.0,-34.0,22.0,-38.0,-30.0,-26.0,0.0
-49.0,-47.0,-37.0,-28.0,-3.0,-15.0,28.0,-6.0,-3.0,-5.0,0.0
-24.0,-19.0,-10.0,0.0,15.0,-2.0,11.0,12.0,11.0,5.0,0.0
-5.0,-5.0,7.0,10.0,24.0,8.0,-18.0,11.0,26.0,14.0,0.0
5.0,-7.0,23.0,20.0,24.0,5.0,-84.0,-1.0,-23.0,10.0,0.0
34.0,31.0,53.0,72.0,45.0,26.0,-69.0,19.0,36.0,36.0,0.0
38.0,20.0,44.0,64.0,30.0,8.0,-76.0,20.0,27.0,24.0,0.0
20.0,16.0,25.0,46.0,12.0,-17.0,-93.0,10.0,5.0,9.0,0.0
2.0,4.0,26.0,18.0,-10.0,-50.0,-119.0,-19.0,-63.0,-4.0,0.0
5.0,29.0,15.0,0.0,-17.0,-48.0,-68.0,-5.0,-33.0,-3.0,0.0
-5.0,35.0,-9.0,-4.0,-26.0,-33.0,-11.0,12.0,-1.0,-16.0,0.0
-18.0,16.0,-14.0,-15.0,-26.0,-36.0,21.0,22.0,6.0,-2.0,0.0
-29.0,-25.0,-42.0,-36.0,-41.0,-52.0,43.0,21.0,20.0,14.0,0.0
-23.0,-48.0,-48.0,-58.0,-60.0,-62.0,49.0,6.0,6.0,21.0,0.0
-16.0,-16.0,-49.0,-56.0,-63.0,-41.0,62.0,14.0,24.0,31.0,0.0
-15.0,-20.0,-51.0,-42.0,-46.0,-28.0,63.0,18.0,25.0,43.0,0.0
-8.0,-30.0,-38.0,-15.0,-31.0,-14.0,58.0,18.0,-1.0,29.0,0.0
16.0,-25.0,-24.0,-18.0,-12.0,0.0,36.0,6.0,-36.0,17.0,0.0
41.0,9.0,4.0,9.0,5.0,6.0,-2.0,-1.0,-46.0,16.0,0.0
70.0,61.0,35.0,31.0,43.0,21.0,-7.0,25.0,2.0,45.0,0.0
73.0,51.0,43.0,49.0,59.0,35.0,-9.0,44.0,13.0,57.0,0.0
68.0,35.0,41.0,50.0,54.0,26.0,-41.0,50.0,-6.0,46.0,0.0
55.0,19.0,32.0,33.0,36.0,0.0,-84.0,28.0,-44.0,26.0,0.0
50.0,28.0,21.0,23.0,30.0,0.0,-59.0,29.0,-14.0,32.0,0.0
36.0,16.0,4.0,2.0,29.0,3.0,-33.0,25.0,-6.0,15.0,0.0
15.0,-5.0,-17.0,-18.0,16.0,-3.0,-16.0,12.0,-20.0,-12.0,0.0
-8.0,-29.0,-34.0,-18.0,-7.0,-1.0,-15.0,4.0,-32.0,-18.0,0.0
-26.0,-46.0,-49.0,-19.0,-21.0,-6.0,1.0,-1.0,-38.0,-14.0,0.0
-76.0,-82.0,-99.0,-40.0,-46.0,-16.0,84.0,-4.0,-18.0,-10.0,0.0
-91.0,-80.0,-99.0,-36.0,-58.0,-14.0,93.0,0.0,-8.0,-19.0,0.0
-76.0,-69.0,-73.0,-24.0,-57.0,-3.0,61.0,-5.0,-23.0,-17.0,0.0
-57.0,-63.0,-48.0,-29.0,-33.0,-19.0,5.0,-30.0,-69.0,-10.0,0.0
-41.0,-32.0,-26.0,-2.0,-4.0,14.0,22.0,-12.0,-24.0,0.0,0.0
-18.0,-3.0,10.0,13.0,17.0,52.0,19.0,6.0,10.0,9.0,0.0
20.0,16.0,23.0,19.0,31.0,58.0,9.0,12.0,25.0,20.0,0.0
49.0,27.0,30.0,12.0,58.0,58.0,-17.0,7.0,27.0,29.0,0.0
51.0,50.0,37.0,9.0,58.0,50.0,-50.0,11.0,16.0,43.0,0.0
44.0,48.0,42.0,7.0,36.0,24.0,-57.0,34.0,43.0,57.0,0.0
25.0,36.0,30.0,3.0,27.0,9.0,-36.0,13.0,32.0,44.0,0.0
16.0,2.0,20.0,-4.0,7.0,-11.0,-29.0,-13.0,5.0,17.0,0.0
20.0,-16.0,-10.0,-28.0,-14.0,-46.0,-61.0,-31.0,-61.0,-11.0,0.0
11.0,-2.0,-32.0,-38.0,-19.0,-40.0,-7.0,-11.0,-29.0,-22.0,0.0
-4.0,-5.0,-38.0,-41.0,-31.0,-37.0,40.0,-15.0,-10.0,-24.0,0.0
-39.0,-34.0,-38.0,-42.0,-39.0,-38.0,69.0,-22.0,-2.0,-27.0,0.0
-62.0,-54.0,-50.0,-38.0,-36.0,-28.0,82.0,-19.0,9.0,-32.0,0.0
-75.0,-51.0,-45.0,-35.0,-25.0,-24.0,66.0,-19.0,5.0,-25.0,0.0
-63.0,-37.0,-34.0,-26.0,-17.0,-31.0,54.0,-12.0,3.0,-22.0,0.0
-31.0,-20.0,-15.0,-8.0,-3.0,-35.0,47.0,-10.0,6.0,-5.0,0.0
22.0,4.0,4.0,20.0,11.0,-14.0,26.0,5.0,22.0,61.0,0.0
41.0,27.0,19.0,35.0,26.0,12.0,7.0,4.0,42.0,73.0,0.0
46.0,35.0,26.0,43.0,38.0,32.0,-5.0,0.0,32.0,40.0,0.0
64.0,48.0,46.0,51.0,44.0,36.0,-41.0,5.0,19.0,21.0,0.0
80.0,60.0,62.0,42.0,52.0,25.0,-66.0,14.0,23.0,23.0,0.0
71.0,67.0,65.0,39.0,42.0,14.0,-70.0,11.0,28.0,40.0,0.0
41.0,41.0,55.0,35.0,28.0,19.0,-72.0,10.0,15.0,49.0,0.0
12.0,21.0,31.0,29.0,19.0,13.0,-61.0,0.0,7.0,24.0,0.0
-5.0,-13.0,12.0,28.0,5.0,0.0,-28.0,-12.0,-8.0,13.0,0.0
-19.0,-32.0,-5.0,14.0,-8.0,-7.0,-5.0,-12.0,-14.0,11.0,0.0
-32.0,-40.0,-35.0,-1.0,-18.0,-11.0,10.0,-16.0,-12.0,0.0,0.0
-44.0,-64.0,-59.0,-21.0,-39.0,-19.0,22.0,-30.0,-25.0,-14.0,0.0
-73.0,-76.0,-78.0,-41.0,-50.0,-46.0,31.0,-51.0,-42.0,-23.0,0.0
-77.0,-64.0,-80.0,-31.0,-44.0,-44.0,61.0,-47.0,-12.0,-16.0,0.0
-59.0,-50.0,-63.0,-19.0,-27.0,-31.0,66.0,-39.0,-5.0,-13.0,0.0
-42.0,-42.0,-35.0,-18.0,-23.0,-22.0,50.0,-25.0,-1.0,-2.0,0.0
-18.0,-6.0,-14.0,-7.0,-18.0,-17.0,20.0,-16.0,0.0,10.0,0.0
9.0,50.0,2.0,29.0,-3.0,-16.0,-5.0,-25.0,0.0,3.0,0.0
26.0,77.0,27.0,67.0,12.0,4.0,-5.0,-3.0,12.0,9.0,0.0
39.0,77.0,40.0,74.0,33.0,32.0,-20.0,9.0,21.0,7.0,0.0
57.0,61.0,44.0,60.0,47.0,48.0,-37.0,26.0,38.0,19.0,0.0
49.0,49.0,51.0,57.0,56.0,42.0,-46.0,49.0,41.0,25.0,0.0
33.0,38.0,40.0,52.0,49.0,23.0,-35.0,53.0,30.0,26.0,0.0
29.0,21.0,21.0,25.0,30.0,4.0,-29.0,56.0,28.0,14.0,0.0
25.0,11.0,9.0,5.0,22.0,-18.0,-21.0,30.0,7.0,-14.0,0.0
11.0,4.0,1.0,3.0,20.0,-34.0,-11.0,0.0,-24.0,-35.0,0.0
0.0,2.0,-9.0,-5.0,0.0,-28.0,8.0,-8.0,-15.0,-37.0,0.0
-14.0,2.0,-24.0,-28.0,-22.0,-21.0,30.0,1.0,-11.0,-39.0,0.0
-38.0,-5.0,-39.0,-52.0,-39.0,-31.0,48.0,-13.0,-20.0,-40.0,0.0
-56.0,-25.0,-52.0,-52.0,-52.0,-38.0,54.0,-32.0,-33.0,-44.0,0.0
-62.0,-39.0,-44.0,-51.0,-44.0,-34.0,72.0,-30.0,-33.0,-40.0,0.0
-53.0,-39.0,-35.0,-32.0,-37.0,-28.0,65.0,-32.0,-35.0,-43.0,0.0
-25.0,-36.0,-30.0,-4.0,-23.0,-13.0,36.0,-33.0,-63.0,-30.0,0.0
0.0,-16.0,-10.0,22.0,0.0,26.0,34.0,-10.0,-31.0,-16.0,0.0
32.0,2.0,9.0,46.0,17.0,50.0,18.0,2.0,4.0,-3.0,0.0
62.0,28.0,28.0,61.0,27.0,65.0,2.0,17.0,20.0,8.0,0.0
68.0,50.0,47.0,73.0,46.0,79.0,-15.0,24.0,27.0,13.0,0.0
48.0,53.0,53.0,85.0,62.0,87.0,-42.0,25.0,5.0,0.0,0.0
41.0,50.0,56.0,83.0,54.0,84.0,-55.0,36.0,23.0,-11.0,0.0
24.0,35.0,50.0,68.0,38.0,73.0,-49.0,41.0,32.0,-8.0,0.0
15.0,18.0,42.0,52.0,26.0,57.0,-32.0,37.0,33.0,-8.0,0.0
-33.0,-18.0,21.0,13.0,-2.0,37.0,10.0,21.0,23.0,-38.0,0.0
-42.0,-45.0,6.0,-6.0,-7.0,38.0,25.0,3.0,17.0,-47.0,0.0
-61.0,-60.0,-23.0,-26.0,-13.0,22.0,14.0,-21.0,-8.0,-52.0,0.0
-93.0,-85.0,-53.0,-48.0,-38.0,-1.0,8.0,-45.0,-42.0,-65.0,0.0
-98.0,-79.0,-61.0,-56.0,-49.0,0.0,63.0,-35.0,20.0,-45.0,0.0
-72.0,-57.0,-71.0,-55.0,-46.0,4.0,74.0,-13.0,45.0,-29.0,0.0
-48.0,-37.0,-56.0,-29.0,-33.0,15.0,69.0,-1.0,36.0,-10.0,0.0
-25.0,-21.0,-17.0,-2.0,-15.0,29.0,41.0,-3.0,12.0,-6.0,0.0
2.0,16.0,1.0,13.0,16.0,62.0,17.0,-7.0,-13.0,-15.0,0.0
24.0,48.0,11.0,39.0,28.0,77.0,-12.0,-7.0,-26.0,-16.0,0.0
32.0,74.0,25.0,43.0,31.0,78.0,-32.0,-10.0,-43.0,-18.0,0.0
46.0,93.0,35.0,62.0,36.0,88.0,-26.0,14.0,-1.0,3.0,0.0
49.0,82.0,43.0,70.0,40.0,88.0,-34.0,32.0,20.0,24.0,0.0
44.0,73.0,29.0,44.0,33.0,76.0,-42.0,39.0,28.0,25.0,0.0
25.0,50.0,13.0,21.0,19.0,61.0,-41.0,25.0,27.0,24.0,0.0
2.0,24.0,11.0,1.0,12.0,45.0,-44.0,23.0,32.0,19.0,0.0
-6.0,9.0,-4.0,-19.0,0.0,23.0,-10.0,23.0,33.0,24.0,0.0
-32.0,-11.0,-20.0,-23.0,-9.0,19.0,29.0,15.0,30.0,31.0,0.0
-72.0,-30.0,-32.0,-31.0,-25.0,16.0,35.0,16.0,6.0,7.0,0.0
-88.0,-56.0,-51.0,-51.0,-36.0,6.0,43.0,3.0,-13.0,-18.0,0.0
-102.0,-67.0,-72.0,-63.0,-51.0,-6.0,61.0,-24.0,-24.0,-32.0,0.0
-105.0,-61.0,-72.0,-72.0,-47.0,-6.0,69.0,-46.0,-43.0,-57.0,0.0
-85.0,-45.0,-62.0,-70.0,-37.0,5.0,57.0,-36.0,-32.0,-51.0,0.0
-58.0,-34.0,-45.0,-44.0,-30.0,-2.0,48.0,-24.0,-17.0,-48.0,0.0
-33.0,-13.0,-11.0,-27.0,-13.0,17.0,33.0,-19.0,-6.0,-28.0,0.0
-5.0,5.0,5.0,0.0,5.0,38.0,18.0,-5.0,10.0,-10.0,0.0
0.0,22.0,25.0,30.0,24.0,36.0,3.0,11.0,14.0,9.0,0.0
2.0,38.0,40.0,37.0,40.0,45.0,-11.0,31.0,18.0,10.0,0.0
16.0,46.0,51.0,35.0,49.0,46.0,-31.0,31.0,27.0,15.0,0.0
28.0,53.0,43.0,28.0,34.0,34.0,-48.0,28.0,17.0,9.0,0.0
29.0,40.0,37.0,13.0,21.0,12.0,-66.0,30.0,-1.0,12.0,0.0
40.0,34.0,31.0,18.0,8.0,5.0,-55.0,22.0,18.0,31.0,0.0
24.0,25.0,25.0,-3.0,-6.0,17.0,-51.0,12.0,12.0,21.0,0.0
-2.0,-9.0,-2.0,-36.0,-15.0,1.0,-25.0,6.0,-9.0,3.0,0.0
-27.0,-32.0,-26.0,-47.0,-23.0,-16.0,-6.0,6.0,-23.0,-8.0,0.0
-49.0,-50.0,-35.0,-49.0,-32.0,-8.0,8.0,-12.0,-30.0,-22.0,0.0
-60.0,-53.0,-36.0,-62.0,-48.0,-3.0,44.0,-13.0,-9.0,-23.0,0.0
-53.0,-47.0,-39.0,-57.0,-55.0,-4.0,47.0,-14.0,-13.0,-40.0,0.0
-50.0,-42.0,-32.0,-47.0,-48.0,-5.0,47.0,-25.0,-19.0,-54.0,0.0
-33.0,-35.0,-27.0,-45.0,-34.0,1.0,62.0,-34.0,-2.0,-30.0,0.0
-34.0,-39.0,-18.0,-29.0,-20.0,5.0,53.0,-32.0,9.0,-17.0,0.0
-19.0,-25.0,-10.0,-10.0,-10.0,14.0,13.0,-12.0,9.0,-33.0,0.0
21.0,5.0,17.0,10.0,16.0,20.0,-7.0,8.0,15.0,11.0,0.0
41.0,35.0,32.0,26.0,39.0,29.0,-19.0,5.0,22.0,52.0,0.0
60.0,55.0,50.0,41.0,46.0,46.0,-40.0,18.0,25.0,49.0,0.0
83.0,56.0,62.0,48.0,50.0,61.0,-60.0,24.0,30.0,51.0,0.0
53.0,27.0,46.0,33.0,47.0,34.0,-71.0,29.0,47.0,30.0,0.0
30.0,18.0,44.0,21.0,35.0,28.0,-55.0,30.0,45.0,18.0,0.0
1.0,-10.0,14.0,10.0,25.0,-1.0,-45.0,8.0,8.0,0.0,0.0
-31.0,-39.0,-5.0,-11.0,11.0,-38.0,-60.0,-13.0,-38.0,-16.0,0.0
-35.0,-34.0,-12.0,-18.0,-2.0,-34.0,-12.0,1.0,2.0,-6.0,0.0
-43.0,-33.0,-31.0,-27.0,-12.0,-33.0,26.0,-1.0,14.0,-11.0,0.0
-48.0,-42.0,-39.0,-52.0,-29.0,-42.0,39.0,-12.0,-2.0,-25.0,0.0
-52.0,-46.0,-43.0,-60.0,-43.0,-42.0,31.0,-21.0,-23.0,-26.0,0.0
-50.0,-53.0,-37.0,-50.0,-41.0,-31.0,25.0,-18.0,-27.0,-32.0,0.0
-46.0,-46.0,-42.0,-36.0,-27.0,-19.0,34.0,-24.0,-17.0,-28.0,0.0
-26.0,-27.0,-39.0,-31.0,-7.0,-11.0,25.0,-32.0,-5.0,-27.0,0.0
16.0,8.0,-11.0,-19.0,14.0,5.0,1.0,-23.0,-7.0,-16.0,0.0
52.0,62.0,20.0,9.0,28.0,28.0,-11.0,6.0,-2.0,8.0,0.0
66.0,103.0,27.0,29.0,32.0,38.0,-21.0,23.0,-3.0,13.0,0.0
80.0,109.0,42.0,48.0,45.0,43.0,-38.0,35.0,14.0,17.0,0.0
74.0,79.0,52.0,60.0,62.0,55.0,-55.0,50.0,33.0,21.0,0.0
61.0,36.0,31.0,36.0,61.0,54.0,-55.0,57.0,22.0,20.0,0.0
46.0,22.0,12.0,10.0,51.0,35.0,-44.0,41.0,-1.0,10.0,0.0
27.0,3.0,0.0,2.0,45.0,22.0,-31.0,29.0,3.0,-9.0,0.0
3.0,-21.0,-14.0,-8.0,19.0,19.0,-6.0,31.0,8.0,-16.0,0.0
-20.0,-34.0,-25.0,-34.0,-1.0,10.0,3.0,24.0,2.0,-16.0,0.0
-40.0,-47.0,-42.0,-39.0,-7.0,5.0,23.0,8.0,2.0,-14.0,0.0
-54.0,-74.0,-65.0,-49.0,-25.0,-9.0,25.0,-10.0,-5.0,-19.0,0.0
-71.0,-81.0,-80.0,-53.0,-39.0,-29.0,42.0,-26.0,-32.0,-20.0,0.0
-70.0,-74.0,-76.0,-35.0,-29.0,-19.0,79.0,-21.0,-10.0,-17.0,0.0
-51.0,-54.0,-56.0,-25.0,-15.0,-6.0,74.0,-8.0,-17.0,-12.0,0.0
-44.0,-32.0,-45.0,-22.0,-9.0,0.0,64.0,-4.0,-13.0,-7.0,0.0
-27.0,-9.0,-22.0,-9.0,4.0,3.0,36.0,0.0,-15.0,9.0,0.0
8.0,13.0,-2.0,2.0,25.0,5.0,3.0,4.0,-23.0,15.0,0.0
12.0,21.0,0.0,10.0,39.0,25.0,-5.0,8.0,-11.0,-2.0,0.0
6.0,36.0,0.0,16.0,51.0,26.0,-15.0,25.0,-4.0,-6.0,0.0
29.0,50.0,16.0,34.0,61.0,27.0,-35.0,30.0,0.0,9.0,0.0
58.0,61.0,29.0,30.0,63.0,11.0,-46.0,40.0,1.0,20.0,0.0
75.0,59.0,21.0,18.0,49.0,0.0,-47.0,31.0,1.0,23.0,0.0
76.0,64.0,13.0,9.0,32.0,-13.0,-43.0,29.0,4.0,39.0,0.0
61.0,54.0,4.0,20.0,20.0,-23.0,-30.0,24.0,6.0,32.0,0.0
50.0,30.0,-17.0,7.0,2.0,-42.0,-7.0,31.0,1.0,27.0,0.0
25.0,6.0,-33.0,-31.0,-19.0,-58.0,-4.0,19.0,19.0,49.0,0.0
-1.0,-12.0,-49.0,-52.0,-42.0,-70.0,19.0,23.0,51.0,84.0,0.0
-72.0,-45.0,-93.0,-69.0,-54.0,-92.0,78.0,17.0,51.0,56.0,0.0
-61.0,-49.0,-90.0,-75.0,-48.0,-74.0,88.0,19.0,24.0,22.0,0.0
-51.0,-54.0,-76.0,-64.0,-41.0,-56.0,53.0,-10.0,-48.0,-27.0,0.0
-37.0,-39.0,-32.0,-49.0,-25.0,-53.0,-15.0,-56.0,-144.0,-57.0,0.0
26.0,31.0,27.0,6.0,9.0,9.0,-5.0,-11.0,-82.0,-21.0,0.0
21.0,36.0,17.0,19.0,26.0,9.0,-15.0,-14.0,-53.0,0.0,0.0
37.0,34.0,27.0,28.0,40.0,-1.0,-64.0,-20.0,-63.0,-4.0,0.0
48.0,38.0,50.0,30.0,44.0,-9.0,-122.0,-44.0,-100.0,-12.0,0.0
57.0,56.0,49.0,60.0,37.0,17.0,-70.0,-13.0,-25.0,10.0,0.0
55.0,49.0,36.0,69.0,22.0,14.0,-51.0,-3.0,-5.0,28.0,0.0
46.0,39.0,18.0,55.0,17.0,11.0,-47.0,-9.0,0.0,28.0,0.0
29.0,28.0,12.0,36.0,6.0,9.0,-47.0,-13.0,-7.0,14.0,0.0
4.0,14.0,8.0,19.0,-12.0,-2.0,-21.0,-12.0,-6.0,6.0,0.0
-5.0,10.0,12.0,1.0,-28.0,-14.0,3.0,-23.0,-7.0,7.0,0.0
-36.0,-9.0,-6.0,-24.0,-41.0,-14.0,24.0,-34.0,-10.0,-1.0,0.0
-86.0,-49.0,-38.0,-39.0,-48.0,-13.0,44.0,-37.0,-10.0,-27.0,0.0
-92.0,-59.0,-53.0,-35.0,-44.0,-25.0,56.0,-38.0,-6.0,-34.0,0.0
-83.0,-50.0,-45.0,-30.0,-44.0,-22.0,60.0,-31.0,-9.0,-39.0,0.0
-71.0,-33.0,-32.0,-17.0,-38.0,-19.0,68.0,-20.0,-9.0,-25.0,0.0
-60.0,-29.0,-22.0,-6.0,-18.0,-6.0,58.0,-13.0,-11.0,-11.0,0.0
-28.0,-13.0,-4.0,6.0,7.0,5.0,29.0,-4.0,-8.0,3.0,0.0
1.0,-1.0,7.0,15.0,21.0,2.0,-7.0,0.0,-17.0,6.0,0.0
12.0,13.0,18.0,26.0,30.0,-5.0,-40.0,0.0,-9.0,13.0,0.0
36.0,26.0,30.0,36.0,49.0,8.0,-38.0,25.0,29.0,33.0,0.0
49.0,30.0,34.0,45.0,58.0,20.0,-46.0,32.0,36.0,34.0,0.0
53.0,33.0,30.0,38.0,50.0,22.0,-39.0,19.0,36.0,31.0,0.0
31.0,21.0,17.0,23.0,34.0,8.0,-37.0,1.0,1.0,4.0,0.0
3.0,0.0,3.0,2.0,22.0,-20.0,-47.0,-12.0,-28.0,-16.0,0.0
-5.0,-17.0,-17.0,-28.0,4.0,-23.0,-31.0,-10.0,-18.0,0.0,0.0
-25.0,-24.0,-35.0,-40.0,-20.0,-28.0,-15.0,-32.0,-12.0,-4.0,0.0
-35.0,-16.0,-37.0,-40.0,-38.0,-33.0,0.0,-41.0,-16.0,-21.0,0.0
-35.0,-11.0,-34.0,-38.0,-64.0,-46.0,17.0,-35.0,-32.0,-29.0,0.0
-35.0,-20.0,-34.0,-53.0,-78.0,-57.0,34.0,-36.0,-17.0,-30.0,0.0
-32.0,-24.0,-43.0,-42.0,-66.0,-56.0,48.0,-36.0,-8.0,-47.0,0.0
-32.0,-20.0,-40.0,-21.0,-50.0,-47.0,50.0,-35.0,3.0,-43.0,0.0
-14.0,-27.0,-45.0,2.0,-38.0,-29.0,32.0,-31.0,10.0,-37.0,0.0
2.0,-18.0,-25.0,7.0,-28.0,-19.0,14.0,-22.0,11.0,-29.0,0.0
33.0,12.0,8.0,21.0,-16.0,1.0,-2.0,1.0,32.0,-14.0,0.0
49.0,31.0,38.0,34.0,0.0,15.0,-17.0,14.0,43.0,-1.0,0.0
64.0,41.0,58.0,48.0,17.0,18.0,-25.0,25.0,28.0,-3.0,0.0
98.0,61.0,82.0,61.0,37.0,22.0,-42.0,27.0,27.0,46.0,0.0
104.0,55.0,78.0,70.0,37.0,7.0,-64.0,22.0,11.0,75.0,0.0
71.0,25.0,54.0,63.0,29.0,5.0,-58.0,19.0,12.0,37.0,0.0
13.0,-12.0,0.0,43.0,0.0,-2.0,-31.0,11.0,13.0,1.0,0.0
-13.0,-32.0,-16.0,25.0,-9.0,-16.0,-4.0,6.0,16.0,-8.0,0.0
-12.0,-38.0,-20.0,12.0,-21.0,-35.0,-2.0,-13.0,-11.0,-28.0,0.0
-28.0,-56.0,-32.0,0.0,-46.0,-51.0,-1.0,-31.0,-45.0,-41.0,0.0
-53.0,-71.0,-59.0,-10.0,-56.0,-36.0,51.0,-26.0,0.0,-22.0,0.0
-64.0,-84.0,-68.0,-28.0,-53.0,-46.0,68.0,-30.0,-2.0,-27.0,0.0
-55.0,-86.0,-46.0,-25.0,-43.0,-46.0,59.0,-34.0,-7.0,-23.0,0.0
-44.0,-79.0,-37.0,-18.0,-32.0,-28.0,45.0,-30.0,-20.0,-27.0,0.0
-31.0,-65.0,-27.0,-15.0,-26.0,-28.0,34.0,-29.0,-14.0,-24.0,0.0
9.0,-7.0,-3.0,0.0,-21.0,-14.0,2.0,-17.0,1.0,-11.0,0.0
45.0,53.0,17.0,14.0,-1.0,2.0,-21.0,4.0,7.0,8.0,0.0
83.0,85.0,37.0,35.0,17.0,12.0,-27.0,12.0,23.0,26.0,0.0
109.0,96.0,52.0,60.0,40.0,33.0,-36.0,31.0,47.0,48.0,0.0
106.0,75.0,45.0,65.0,54.0,35.0,-38.0,45.0,48.0,58.0,0.0
86.0,47.0,45.0,68.0,51.0,32.0,-39.0,30.0,43.0,48.0,0.0
75.0,43.0,38.0,50.0,32.0,16.0,-43.0,30.0,46.0,46.0,0.0
64.0,33.0,33.0,33.0,11.0,4.0,-35.0,25.0,38.0,53.0,0.0
49.0,15.0,26.0,23.0,-6.0,-4.0,-37.0,9.0,20.0,35.0,0.0
28.0,-6.0,14.0,-8.0,-12.0,-16.0,-32.0,9.0,4.0,9.0,0.0
5.0,-15.0,-5.0,-16.0,-27.0,-5.0,5.0,12.0,15.0,-9.0,0.0
-7.0,-16.0,-18.0,-25.0,-32.0,3.0,35.0,7.0,0.0,-14.0,0.0
-32.0,-28.0,-37.0,-41.0,-40.0,0.0,55.0,0.0,-2.0,-16.0,0.0
-41.0,-37.0,-67.0,-42.0,-53.0,-5.0,55.0,-14.0,-11.0,-16.0,0.0
-36.0,-32.0,-69.0,-50.0,-51.0,8.0,53.0,-6.0,-16.0,-8.0,0.0
-8.0,-20.0,-52.0,-32.0,-41.0,23.0,58.0,8.0,6.0,10.0,0.0
10.0,-4.0,-34.0,0.0,-23.0,33.0,39.0,20.0,12.0,15.0,0.0
24.0,19.0,-4.0,15.0,4.0,55.0,30.0,31.0,14.0,9.0,0.0
33.0,37.0,21.0,31.0,21.0,72.0,11.0,41.0,4.0,16.0,0.0
48.0,47.0,34.0,45.0,37.0,73.0,-16.0,39.0,12.0,33.0,0.0
69.0,55.0,49.0,46.0,44.0,71.0,-35.0,34.0,27.0,43.0,0.0
62.0,65.0,77.0,48.0,35.0,75.0,-52.0,41.0,29.0,36.0,0.0
45.0,65.0,62.0,44.0,27.0,68.0,-56.0,47.0,37.0,23.0,0.0
30.0,46.0,41.0,14.0,14.0,57.0,-45.0,49.0,23.0,29.0,0.0
11.0,27.0,21.0,-13.0,-6.0,40.0,-21.0,51.0,18.0,26.0,0.0
-27.0,-34.0,-18.0,-46.0,-36.0,19.0,18.0,29.0,31.0,25.0,0.0
-16.0,-36.0,-27.0,-60.0,-44.0,4.0,23.0,20.0,46.0,34.0,0.0
-31.0,-55.0,-41.0,-74.0,-57.0,-23.0,11.0,6.0,2.0,18.0,0.0
-59.0,-83.0,-57.0,-87.0,-72.0,-37.0,0.0,-27.0,-74.0,-19.0,0.0
-50.0,-50.0,-58.0,-74.0,-70.0,-4.0,53.0,-15.0,-21.0,-10.0,0.0
-31.0,-23.0,-37.0,-58.0,-56.0,6.0,45.0,-25.0,-46.0,-19.0,0.0
-5.0,-3.0,-24.0,-17.0,-36.0,13.0,38.0,-27.0,-68.0,-38.0,0.0
15.0,17.0,-14.0,-1.0,-17.0,19.0,9.0,-22.0,-69.0,-33.0,0.0
52.0,36.0,10.0,16.0,0.0,27.0,-16.0,-15.0,-53.0,-11.0,0.0
64.0,52.0,23.0,38.0,16.0,41.0,-20.0,4.0,-13.0,7.0,0.0
70.0,61.0,33.0,45.0,15.0,53.0,-28.0,21.0,14.0,24.0,0.0
94.0,66.0,42.0,34.0,31.0,58.0,-36.0,33.0,25.0,43.0,0.0
109.0,48.0,42.0,36.0,33.0,50.0,-57.0,40.0,13.0,44.0,0.0
95.0,46.0,44.0,29.0,21.0,48.0,-47.0,42.0,17.0,43.0,0.0
72.0,28.0,25.0,4.0,7.0,44.0,-35.0,45.0,26.0,33.0,0.0
62.0,6.0,13.0,-2.0,12.0,35.0,-18.0,32.0,24.0,21.0,0.0
40.0,-13.0,6.0,-12.0,3.0,28.0,-15.0,23.0,22.0,12.0,0.0
17.0,-40.0,-14.0,-30.0,-8.0,22.0,2.0,15.0,24.0,22.0,0.0
-3.0,-68.0,-42.0,-38.0,-14.0,7.0,28.0,10.0,24.0,3.0,0.0
-46.0,-87.0,-63.0,-49.0,-18.0,-2.0,71.0,2.0,13.0,-34.0,0.0
-84.0,-96.0,-61.0,-59.0,-14.0,0.0,90.0,-8.0,-6.0,-51.0,0.0
-85.0,-93.0,-51.0,-55.0,-16.0,7.0,85.0,-9.0,-25.0,-49.0,0.0
-64.0,-77.0,-28.0,-42.0,-9.0,20.0,58.0,-19.0,-33.0,-43.0,0.0
-30.0,-45.0,-23.0,-37.0,9.0,26.0,41.0,-30.0,-27.0,-35.0,0.0
16.0,-2.0,-14.0,-20.0,15.0,40.0,19.0,-18.0,-2.0,-15.0,0.0
46.0,28.0,13.0,1.0,13.0,46.0,1.0,-5.0,18.0,12.0,0.0
60.0,50.0,29.0,2.0,20.0,54.0,-13.0,12.0,28.0,37.0,0.0
65.0,65.0,39.0,10.0,29.0,51.0,-48.0,17.0,0.0,33.0,0.0
85.0,65.0,57.0,16.0,39.0,43.0,-68.0,19.0,-10.0,30.0,0.0
98.0,73.0,71.0,14.0,42.0,55.0,-58.0,28.0,11.0,25.0,0.0
78.0,62.0,57.0,-1.0,34.0,45.0,-52.0,18.0,6.0,8.0,0.0
56.0,47.0,42.0,-1.0,19.0,22.0,-39.0,7.0,-1.0,-9.0,0.0
33.0,23.0,37.0,-6.0,-1.0,3.0,-28.0,5.0,-18.0,-29.0,0.0
-3.0,-5.0,22.0,-13.0,-11.0,-7.0,-10.0,-2.0,-33.0,-50.0,0.0
-23.0,-24.0,0.0,-14.0,-18.0,-9.0,16.0,-4.0,-23.0,-57.0,0.0
-25.0,-34.0,-27.0,-8.0,-27.0,-16.0,45.0,0.0,-13.0,-49.0,0.0
-38.0,-60.0,-44.0,-14.0,-40.0,-15.0,66.0,1.0,-13.0,-42.0,0.0
-63.0,-69.0,-52.0,-21.0,-45.0,-12.0,70.0,-22.0,-16.0,-35.0,0.0
-61.0,-49.0,-41.0,-17.0,-31.0,-8.0,53.0,-27.0,-11.0,-29.0,0.0
-50.0,-41.0,-30.0,-9.0,-23.0,-7.0,56.0,-6.0,2.0,-11.0,0.0
-27.0,-38.0,-19.0,0.0,-8.0,-10.0,57.0,-5.0,11.0,16.0,0.0
-12.0,-12.0,2.0,14.0,15.0,-4.0,30.0,2.0,19.0,25.0,0.0
6.0,1.0,11.0,28.0,32.0,4.0,-3.0,7.0,8.0,16.0,0.0
14.0,13.0,29.0,43.0,46.0,16.0,-23.0,7.0,-4.0,4.0,0.0
30.0,47.0,47.0,61.0,55.0,31.0,-35.0,19.0,8.0,10.0,0.0
39.0,53.0,43.0,61.0,60.0,42.0,-48.0,22.0,3.0,21.0,0.0
26.0,50.0,36.0,53.0,42.0,39.0,-42.0,14.0,-2.0,10.0,0.0
11.0,38.0,25.0,41.0,29.0,22.0,-39.0,14.0,-9.0,3.0,0.0
11.0,24.0,19.0,28.0,15.0,7.0,-33.0,19.0,-19.0,0.0,0.0
6.0,12.0,5.0,16.0,3.0,1.0,-17.0,21.0,-6.0,3.0,0.0
15.0,0.0,-14.0,-7.0,-9.0,-3.0,-13.0,12.0,6.0,-4.0,0.0
13.0,-22.0,-22.0,-25.0,-23.0,-14.0,-1.0,0.0,7.0,-14.0,0.0
-36.0,-47.0,-40.0,-40.0,-46.0,-33.0,33.0,0.0,9.0,-34.0,0.0
-64.0,-65.0,-55.0,-65.0,-54.0,-37.0,51.0,-7.0,-2.0,-42.0,0.0
-76.0,-68.0,-69.0,-69.0,-44.0,-37.0,40.0,-22.0,-5.0,-38.0,0.0
-71.0,-59.0,-56.0,-73.0,-32.0,-37.0,38.0,-21.0,-8.0,-45.0,0.0
-54.0,-39.0,-31.0,-68.0,-29.0,-35.0,28.0,-22.0,-15.0,-53.0,0.0
-25.0,9.0,-16.0,-51.0,-12.0,-25.0,8.0,-20.0,-19.0,-40.0,0.0
33.0,64.0,14.0,-31.0,-1.0,-14.0,-7.0,-4.0,-1.0,25.0,0.0
55.0,74.0,44.0,-5.0,19.0,0.0,-32.0,18.0,16.0,39.0,0.0
53.0,71.0,49.0,20.0,40.0,14.0,-46.0,34.0,18.0,14.0,0.0
65.0,61.0,61.0,34.0,55.0,26.0,-53.0,33.0,29.0,8.0,0.0
70.0,48.0,68.0,34.0,52.0,22.0,-75.0,40.0,15.0,21.0,0.0
53.0,30.0,61.0,38.0,38.0,7.0,-65.0,40.0,12.0,5.0,0.0
-4.0,-9.0,27.0,51.0,15.0,4.0,-32.0,22.0,10.0,-38.0,0.0
-14.0,-24.0,5.0,25.0,-3.0,1.0,-14.0,23.0,1.0,-35.0,0.0
-29.0,-43.0,-9.0,-2.0,-12.0,-16.0,-17.0,16.0,-18.0,-39.0,0.0
-51.0,-71.0,-28.0,-18.0,-23.0,-40.0,-17.0,-5.0,-40.0,-44.0,0.0
-59.0,-66.0,-36.0,-19.0,-35.0,-34.0,34.0,0.0,0.0,-28.0,0.0
-65.0,-70.0,-51.0,-34.0,-40.0,-41.0,51.0,1.0,12.0,-29.0,0.0
-55.0,-59.0,-42.0,-21.0,-27.0,-43.0,54.0,-6.0,12.0,-37.0,0.0
-37.0,-40.0,-33.0,-4.0,-32.0,-33.0,32.0,-20.0,7.0,-33.0,0.0
-12.0,-17.0,-30.0,9.0,-34.0,-34.0,13.0,-29.0,-9.0,-8.0,0.0
13.0,10.0,-6.0,25.0,-12.0,-22.0,-8.0,-17.0,-4.0,14.0,0.0
35.0,35.0,31.0,42.0,10.0,-4.0,-25.0,-1.0,3.0,21.0,0.0
56.0,52.0,52.0,47.0,27.0,9.0,-41.0,17.0,23.0,31.0,0.0
65.0,74.0,64.0,51.0,33.0,13.0,-50.0,41.0,37.0,34.0,0.0
68.0,86.0,65.0,47.0,36.0,15.0,-62.0,40.0,23.0,32.0,0.0
62.0,75.0,61.0,50.0,32.0,10.0,-67.0,29.0,3.0,35.0,0.0
47.0,58.0,43.0,44.0,14.0,8.0,-61.0,31.0,-10.0,24.0,0.0
19.0,40.0,20.0,29.0,12.0,4.0,-39.0,18.0,-18.0,7.0,0.0
-11.0,8.0,-3.0,7.0,3.0,-5.0,-20.0,0.0,-25.0,0.0,0.0
-25.0,-16.0,-32.0,-1.0,-12.0,-9.0,-12.0,-18.0,-39.0,-10.0,0.0
-32.0,-32.0,-50.0,-17.0,-20.0,-6.0,15.0,-27.0,-17.0,-18.0,0.0
-45.0,-34.0,-54.0,-42.0,-45.0,-10.0,35.0,-29.0,-21.0,-15.0,0.0
-63.0,-49.0,-64.0,-71.0,-54.0,-14.0,55.0,-34.0,-34.0,-22.0,0.0
-79.0,-54.0,-70.0,-69.0,-66.0,-24.0,56.0,-39.0,-46.0,-9.0,0.0
-83.0,-62.0,-52.0,-53.0,-57.0,-18.0,53.0,-41.0,-42.0,7.0,0.0
-77.0,-62.0,-38.0,-36.0,-35.0,-1.0,45.0,-29.0,2.0,-8.0,0.0
-51.0,-51.0,-48.0,-26.0,-25.0,4.0,24.0,-6.0,40.0,7.0,0.0
-20.0,-33.0,-37.0,-8.0,-6.0,5.0,8.0,32.0,79.0,29.0,0.0
3.0,-9.0,-9.0,15.0,15.0,17.0,-15.0,30.0,51.0,2.0,0.0
14.0,9.0,6.0,57.0,40.0,34.0,-38.0,11.0,17.0,-13.0,0.0
33.0,32.0,34.0,89.0,56.0,48.0,-50.0,11.0,20.0,-3.0,0.0
52.0,62.0,52.0,89.0,59.0,40.0,-56.0,16.0,34.0,12.0,0.0
61.0,54.0,45.0,67.0,47.0,37.0,-55.0,12.0,23.0,10.0,0.0
46.0,44.0,37.0,36.0,32.0,23.0,-57.0,13.0,-2.0,-11.0,0.0
27.0,51.0,31.0,12.0,17.0,3.0,-53.0,-1.0,-9.0,-10.0,0.0
12.0,13.0,-16.0,11.0,-11.0,-10.0,-15.0,-37.0,9.0,1.0,0.0
-5.0,0.0,-28.0,0.0,-13.0,-19.0,3.0,-28.0,5.0,-16.0,0.0
-40.0,-51.0,-39.0,-28.0,-30.0,-43.0,-7.0,-46.0,-54.0,-58.0,0.0
-69.0,-69.0,-50.0,-38.0,-41.0,-56.0,-19.0,-66.0,-97.0,-80.0,0.0
-54.0,-52.0,-45.0,-26.0,-40.0,-37.0,38.0,-48.0,-25.0,-35.0,0.0
-37.0,-36.0,-24.0,-22.0,-36.0,-40.0,36.0,-47.0,-16.0,-8.0,0.0
-26.0,-11.0,-12.0,-18.0,-27.0,-34.0,36.0,-44.0,-12.0,-5.0,0.0
-1.0,7.0,-1.0,-18.0,-8.0,-34.0,9.0,-27.0,-20.0,15.0,0.0
40.0,28.0,18.0,-3.0,3.0,-8.0,-5.0,-11.0,-7.0,24.0,0.0
72.0,52.0,41.0,27.0,23.0,15.0,-7.0,15.0,15.0,39.0,0.0
82.0,68.0,48.0,36.0,46.0,21.0,-27.0,27.0,8.0,52.0,0.0
77.0,79.0,54.0,41.0,59.0,20.0,-34.0,20.0,12.0,53.0,0.0
71.0,76.0,66.0,46.0,60.0,26.0,-35.0,24.0,35.0,43.0,0.0
52.0,66.0,45.0,35.0,39.0,26.0,-39.0,19.0,35.0,35.0,0.0
32.0,49.0,22.0,8.0,28.0,17.0,-33.0,15.0,35.0,42.0,0.0
10.0,25.0,4.0,-22.0,12.0,7.0,-15.0,12.0,32.0,29.0,0.0
-22.0,4.0,-20.0,-30.0,1.0,-4.0,3.0,12.0,23.0,23.0,0.0
-43.0,-16.0,-39.0,-23.0,-4.0,-2.0,14.0,8.0,14.0,11.0,0.0
-60.0,-33.0,-50.0,-25.0,-20.0,-18.0,25.0,0.0,-1.0,-19.0,0.0
-80.0,-52.0,-69.0,-41.0,-41.0,-19.0,59.0,-11.0,-13.0,-26.0,0.0
-94.0,-52.0,-78.0,-46.0,-47.0,-22.0,72.0,-13.0,-9.0,-26.0,0.0
-77.0,-51.0,-63.0,-29.0,-55.0,-25.0,62.0,-16.0,-3.0,-11.0,0.0
-36.0,-27.0,-42.0,-24.0,-49.0,-20.0,52.0,-6.0,12.0,22.0,0.0
-16.0,-24.0,-38.0,-25.0,-30.0,-18.0,62.0,-1.0,17.0,18.0,0.0
-11.0,-2.0,-13.0,-2.0,-11.0,-11.0,50.0,0.0,10.0,3.0,0.0
16.0,33.0,17.0,20.0,11.0,14.0,23.0,-3.0,0.0,-4.0,0.0
47.0,46.0,33.0,30.0,23.0,39.0,1.0,4.0,-7.0,-13.0,0.0
50.0,57.0,41.0,40.0,37.0,46.0,-32.0,12.0,16.0,3.0,0.0
60.0,56.0,56.0,50.0,56.0,44.0,-53.0,19.0,31.0,10.0,0.0
56.0,44.0,62.0,50.0,42.0,36.0,-62.0,19.0,20.0,7.0,0.0
35.0,36.0,51.0,42.0,30.0,22.0,-60.0,7.0,12.0,-4.0,0.0
25.0,14.0,39.0,26.0,17.0,7.0,-66.0,3.0,13.0,-19.0,0.0
3.0,-3.0,18.0,-1.0,6.0,-5.0,-61.0,-5.0,-6.0,-41.0,0.0
-5.0,1.0,0.0,-14.0,-13.0,-13.0,-37.0,-6.0,-15.0,-55.0,0.0
-5.0,20.0,-5.0,-29.0,-28.0,-11.0,-4.0,-6.0,-2.0,-48.0,0.0
-22.0,27.0,-6.0,-54.0,-40.0,-19.0,27.0,-13.0,-3.0,-37.0,0.0
-37.0,-2.0,-38.0,-49.0,-45.0,-29.0,60.0,-5.0,14.0,-29.0,0.0
-50.0,-32.0,-51.0,-39.0,-36.0,-23.0,69.0,-9.0,37.0,-18.0,0.0
-62.0,-47.0,-48.0,-44.0,-30.0,-9.0,55.0,-2.0,48.0,-13.0,0.0
-52.0,-31.0,-30.0,-45.0,-25.0,-1.0,44.0,3.0,32.0,-13.0,0.0
-27.0,-15.0,-15.0,-31.0,-20.0,-2.0,30.0,-13.0,27.0,-2.0,0.0
-4.0,15.0,12.0,3.0,-2.0,14.0,14.0,-7.0,16.0,10.0,0.0
11.0,26.0,33.0,18.0,6.0,25.0,-2.0,-5.0,20.0,12.0,0.0
26.0,25.0,42.0,9.0,13.0,26.0,-26.0,3.0,27.0,28.0,0.0
48.0,23.0,62.0,12.0,30.0,28.0,-47.0,27.0,30.0,45.0,0.0
62.0,28.0,71.0,21.0,34.0,35.0,-43.0,40.0,33.0,51.0,0.0
55.0,32.0,51.0,9.0,30.0,34.0,-38.0,23.0,28.0,29.0,0.0
38.0,25.0,26.0,-1.0,13.0,26.0,-25.0,9.0,19.0,20.0,0.0
18.0,24.0,15.0,0.0,-1.0,18.0,-28.0,14.0,10.0,27.0,0.0
1.0,16.0,6.0,-22.0,2.0,2.0,-22.0,5.0,-7.0,10.0,0.0
-10.0,3.0,-22.0,-30.0,-2.0,-10.0,-2.0,-3.0,-2.0,2.0,0.0
-28.0,-21.0,-42.0,-37.0,-20.0,-23.0,10.0,-17.0,2.0,0.0,0.0
-39.0,-41.0,-52.0,-40.0,-44.0,-51.0,33.0,-30.0,5.0,-20.0,0.0
-52.0,-52.0,-66.0,-47.0,-55.0,-77.0,33.0,-34.0,7.0,-38.0,0.0
-68.0,-50.0,-60.0,-59.0,-47.0,-75.0,35.0,-29.0,1.0,-35.0,0.0
-62.0,-43.0,-32.0,-52.0,-40.0,-63.0,42.0,-15.0,2.0,-30.0,0.0
-50.0,-31.0,-25.0,-29.0,-29.0,-41.0,48.0,-13.0,-1.0,-23.0,0.0
-1.0,-1.0,0.0,-9.0,-13.0,-22.0,19.0,-16.0,0.0,42.0,0.0
42.0,28.0,40.0,23.0,6.0,-15.0,-12.0,0.0,6.0,103.0,0.0
54.0,38.0,47.0,31.0,27.0,0.0,-22.0,11.0,0.0,79.0,0.0
57.0,51.0,46.0,36.0,43.0,3.0,-37.0,1.0,-9.0,49.0,0.0
55.0,62.0,55.0,45.0,59.0,12.0,-53.0,0.0,-20.0,32.0,0.0
52.0,57.0,60.0,54.0,62.0,15.0,-65.0,7.0,-13.0,15.0,0.0
40.0,46.0,47.0,61.0,54.0,5.0,-53.0,10.0,-9.0,2.0,0.0
23.0,24.0,23.0,53.0,47.0,-3.0,-46.0,9.0,-2.0,-5.0,0.0
-12.0,1.0,16.0,42.0,34.0,-3.0,-41.0,15.0,5.0,-4.0,0.0
-28.0,-23.0,1.0,24.0,13.0,-12.0,-26.0,16.0,5.0,-1.0,0.0
-42.0,-33.0,-13.0,9.0,-4.0,-28.0,11.0,17.0,4.0,4.0,0.0
-65.0,-47.0,-23.0,-8.0,-27.0,-36.0,38.0,21.0,0.0,-3.0,0.0
-92.0,-68.0,-38.0,-31.0,-49.0,-40.0,56.0,1.0,-18.0,-15.0,0.0
-99.0,-63.0,-47.0,-45.0,-50.0,-51.0,57.0,-16.0,-39.0,-29.0,0.0
-89.0,-51.0,-45.0,-42.0,-33.0,-44.0,56.0,-17.0,-42.0,-36.0,0.0
-71.0,-43.0,-34.0,-30.0,-22.0,-40.0,41.0,-17.0,-34.0,-29.0,0.0
-49.0,-38.0,-30.0,-18.0,-14.0,-36.0,21.0,-10.0,-36.0,-19.0,0.0
-19.0,-17.0,-13.0,0.0,8.0,-16.0,7.0,-10.0,-41.0,-15.0,0.0
0.0,12.0,18.0,16.0,23.0,2.0,-15.0,0.0,-36.0,-8.0,0.0
26.0,53.0,44.0,23.0,30.0,17.0,-38.0,11.0,-13.0,5.0,0.0
49.0,75.0,65.0,36.0,45.0,22.0,-46.0,11.0,12.0,27.0,0.0
69.0,74.0,71.0,47.0,53.0,18.0,-59.0,2.0,15.0,32.0,0.0
78.0,62.0,65.0,51.0,50.0,21.0,-68.0,11.0,36.0,36.0,0.0
73.0,34.0,43.0,48.0,39.0,7.0,-56.0,19.0,50.0,54.0,0.0
57.0,44.0,42.0,37.0,25.0,-5.0,-39.0,22.0,41.0,46.0,0.0
17.0,31.0,35.0,6.0,8.0,-11.0,-31.0,14.0,21.0,22.0,0.0
-3.0,-2.0,22.0,-7.0,-9.0,-20.0,-14.0,12.0,3.0,1.0,0.0
-16.0,-21.0,13.0,-10.0,-24.0,-24.0,18.0,-5.0,-5.0,-19.0,0.0
-43.0,-42.0,-14.0,-17.0,-32.0,-27.0,41.0,-4.0,-21.0,-44.0,0.0
-65.0,-67.0,-39.0,-23.0,-47.0,-25.0,55.0,-11.0,-34.0,-40.0,0.0
-75.0,-68.0,-45.0,-23.0,-42.0,-21.0,72.0,-21.0,-28.0,-32.0,0.0
-47.0,-46.0,-31.0,-5.0,-17.0,-2.0,80.0,-21.0,-15.0,-26.0,0.0
-27.0,-28.0,-18.0,0.0,-7.0,5.0,78.0,-6.0,-13.0,-18.0,0.0
-29.0,-24.0,-1.0,16.0,18.0,12.0,66.0,-7.0,-3.0,-15.0,0.0
-22.0,-24.0,21.0,43.0,43.0,26.0,36.0,-13.0,0.0,-11.0,0.0
-9.0,-4.0,35.0,44.0,42.0,30.0,17.0,-9.0,3.0,2.0,0.0
12.0,15.0,38.0,45.0,50.0,21.0,0.0,0.0,9.0,24.0,0.0
40.0,29.0,36.0,47.0,56.0,26.0,-23.0,20.0,33.0,32.0,0.0
66.0,41.0,41.0,35.0,51.0,16.0,-55.0,16.0,44.0,34.0,0.0
70.0,41.0,41.0,37.0,35.0,10.0,-60.0,13.0,36.0,24.0,0.0
59.0,26.0,35.0,26.0,22.0,15.0,-42.0,9.0,32.0,7.0,0.0
37.0,17.0,20.0,15.0,15.0,10.0,-14.0,14.0,28.0,-20.0,0.0
12.0,0.0,-2.0,-8.0,-7.0,-10.0,0.0,9.0,16.0,-43.0,0.0
3.0,-5.0,7.0,-13.0,-2.0,-22.0,8.0,-1.0,-2.0,-48.0,0.0
10.0,-21.0,1.0,-18.0,-11.0,-30.0,24.0,-17.0,-13.0,-30.0,0.0
-4.0,-45.0,-16.0,-32.0,-32.0,-43.0,49.0,-23.0,-5.0,-34.0,0.0
-22.0,-54.0,-34.0,-42.0,-43.0,-46.0,52.0,-30.0,-3.0,-49.0,0.0
-20.0,-48.0,-48.0,-55.0,-37.0,-42.0,49.0,-27.0,-1.0,-24.0,0.0
-15.0,-37.0,-39.0,-29.0,-28.0,-31.0,47.0,-30.0,14.0,2.0,0.0
-8.0,-37.0,-27.0,0.0,-21.0,-22.0,38.0,-37.0,17.0,0.0,0.0
11.0,-22.0,-13.0,8.0,1.0,-3.0,23.0,-14.0,16.0,-4.0,0.0
32.0,3.0,8.0,19.0,18.0,4.0,3.0,12.0,16.0,-10.0,0.0
45.0,10.0,32.0,27.0,23.0,12.0,-1.0,9.0,10.0,-11.0,0.0
53.0,14.0,41.0,45.0,46.0,18.0,-14.0,15.0,26.0,2.0,0.0
59.0,22.0,42.0,47.0,57.0,29.0,-35.0,32.0,28.0,12.0,0.0
64.0,25.0,22.0,38.0,50.0,26.0,-55.0,25.0,31.0,16.0,0.0
68.0,20.0,19.0,31.0,39.0,12.0,-48.0,27.0,34.0,8.0,0.0
50.0,22.0,9.0,24.0,23.0,-4.0,-30.0,32.0,15.0,4.0,0.0
20.0,36.0,-1.0,5.0,0.0,-25.0,-24.0,17.0,5.0,3.0,0.0
9.0,38.0,-13.0,-15.0,-17.0,-29.0,-17.0,0.0,0.0,-9.0,0.0
-5.0,38.0,-25.0,-36.0,-27.0,-36.0,-10.0,-8.0,-23.0,-14.0,0.0
-37.0,27.0,-40.0,-51.0,-37.0,-41.0,11.0,-14.0,-27.0,-16.0,0.0
-63.0,-27.0,-65.0,-56.0,-44.0,-34.0,33.0,-21.0,-33.0,-15.0,0.0
-72.0,-77.0,-74.0,-71.0,-48.0,-38.0,42.0,-18.0,-36.0,-11.0,0.0
-72.0,-72.0,-71.0,-66.0,-44.0,-43.0,56.0,-5.0,-28.0,8.0,0.0
-61.0,-57.0,-35.0,-49.0,-31.0,-43.0,58.0,-10.0,-4.0,23.0,0.0
-48.0,-51.0,-11.0,-44.0,-12.0,-29.0,42.0,-4.0,11.0,33.0,0.0
-22.0,-15.0,-7.0,-32.0,2.0,-16.0,19.0,15.0,31.0,39.0,0.0
-10.0,12.0,-1.0,-5.0,11.0,-9.0,5.0,28.0,38.0,42.0,0.0
8.0,11.0,9.0,17.0,17.0,2.0,-18.0,43.0,20.0,37.0,0.0
26.0,39.0,34.0,50.0,22.0,6.0,-28.0,37.0,2.0,37.0,0.0
45.0,50.0,50.0,60.0,35.0,0.0,-36.0,20.0,1.0,35.0,0.0
52.0,47.0,50.0,55.0,34.0,6.0,-53.0,13.0,0.0,35.0,0.0
39.0,40.0,40.0,36.0,17.0,7.0,-57.0,3.0,-7.0,41.0,0.0
27.0,31.0,24.0,24.0,0.0,-6.0,-47.0,1.0,-21.0,35.0,0.0
8.0,13.0,-13.0,5.0,-9.0,-15.0,-18.0,-2.0,-30.0,16.0,0.0
-6.0,0.0,-32.0,-17.0,-31.0,-23.0,5.0,-6.0,-20.0,5.0,0.0
-17.0,-9.0,-30.0,-23.0,-34.0,-27.0,31.0,-27.0,-15.0,-5.0,0.0
-38.0,-29.0,-38.0,-39.0,-51.0,-39.0,50.0,-40.0,-22.0,-13.0,0.0
-73.0,-58.0,-65.0,-46.0,-61.0,-47.0,54.0,-33.0,-36.0,-17.0,0.0
-95.0,-78.0,-70.0,-36.0,-53.0,-44.0,60.0,-28.0,-30.0,-23.0,0.0
-85.0,-71.0,-66.0,-23.0,-38.0,-38.0,72.0,-17.0,-19.0,-14.0,0.0
-67.0,-66.0,-71.0,-29.0,-20.0,-29.0,67.0,-19.0,-5.0,3.0,0.0
-40.0,-55.0,-53.0,-18.0,-8.0,-18.0,46.0,-24.0,9.0,10.0,0.0
-16.0,-26.0,-29.0,-11.0,3.0,-8.0,15.0,-6.0,10.0,29.0,0.0
-7.0,-5.0,-24.0,-4.0,16.0,6.0,-6.0,3.0,10.0,39.0,0.0
5.0,11.0,6.0,6.0,29.0,12.0,-27.0,-1.0,-1.0,37.0,0.0
35.0,34.0,36.0,24.0,42.0,24.0,-52.0,4.0,-11.0,46.0,0.0
38.0,38.0,50.0,22.0,44.0,19.0,-56.0,-7.0,-8.0,23.0,0.0
19.0,33.0,33.0,26.0,41.0,4.0,-48.0,-21.0,-7.0,-3.0,0.0
7.0,22.0,21.0,9.0,42.0,3.0,-37.0,-22.0,-6.0,-10.0,0.0
-7.0,5.0,19.0,-8.0,28.0,-3.0,-21.0,-19.0,-8.0,-27.0,0.0
-16.0,-3.0,0.0,-7.0,1.0,-14.0,3.0,-23.0,-16.0,-18.0,0.0
-13.0,-13.0,-25.0,-14.0,-20.0,-31.0,22.0,-35.0,-17.0,16.0,0.0
-19.0,-17.0,-33.0,-34.0,-30.0,-35.0,30.0,-41.0,-21.0,12.0,0.0
-39.0,-35.0,-41.0,-53.0,-33.0,-45.0,49.0,-47.0,-28.0,-7.0,0.0
-61.0,-49.0,-52.0,-76.0,-51.0,-52.0,73.0,-45.0,-30.0,-27.0,0.0
-70.0,-54.0,-52.0,-64.0,-54.0,-51.0,72.0,-55.0,-28.0,-38.0,0.0
-66.0,-43.0,-36.0,-45.0,-45.0,-38.0,64.0,-51.0,-24.0,-28.0,0.0
-61.0,-31.0,-32.0,-26.0,-36.0,-9.0,55.0,-23.0,-26.0,-11.0,0.0
-38.0,-18.0,-21.0,-22.0,-4.0,12.0,34.0,-7.0,-17.0,-4.0,0.0
-4.0,-6.0,0.0,-5.0,7.0,18.0,12.0,6.0,-14.0,-5.0,0.0
17.0,15.0,26.0,20.0,15.0,22.0,-3.0,10.0,-12.0,-9.0,0.0
33.0,33.0,47.0,38.0,30.0,28.0,-22.0,13.0,1.0,2.0,0.0
53.0,46.0,70.0,55.0,50.0,23.0,-44.0,16.0,11.0,10.0,0.0
56.0,48.0,60.0,39.0,45.0,28.0,-43.0,32.0,16.0,11.0,0.0
56.0,36.0,39.0,23.0,22.0,27.0,-37.0,36.0,10.0,11.0,0.0
41.0,28.0,17.0,11.0,22.0,14.0,-33.0,30.0,-6.0,2.0,0.0
16.0,25.0,7.0,1.0,17.0,8.0,-26.0,10.0,-23.0,-8.0,0.0
4.0,18.0,-1.0,-12.0,1.0,0.0,-11.0,-9.0,-21.0,-4.0,0.0
-6.0,-5.0,-21.0,-24.0,-7.0,-4.0,11.0,0.0,-11.0,-4.0,0.0
-25.0,-38.0,-36.0,-37.0,-22.0,-4.0,36.0,1.0,-5.0,-19.0,0.0
-55.0,-79.0,-60.0,-46.0,-42.0,-21.0,45.0,2.0,-14.0,-28.0,0.0
-83.0,-87.0,-63.0,-56.0,-49.0,-21.0,33.0,-9.0,-24.0,-36.0,0.0
-83.0,-71.0,-50.0,-54.0,-52.0,-17.0,28.0,-21.0,-23.0,-30.0,0.0
-68.0,-54.0,-34.0,-36.0,-36.0,-15.0,24.0,-19.0,-14.0,-6.0,0.0
-52.0,-40.0,-20.0,-24.0,-15.0,-21.0,36.0,0.0,-15.0,-3.0,0.0
-21.0,-19.0,9.0,-5.0,24.0,-2.0,21.0,16.0,-27.0,-10.0,0.0
4.0,0.0,28.0,28.0,32.0,21.0,-12.0,22.0,-22.0,9.0,0.0
25.0,31.0,29.0,41.0,32.0,27.0,-24.0,25.0,-10.0,31.0,0.0
55.0,51.0,38.0,50.0,43.0,28.0,-39.0,35.0,6.0,53.0,0.0
65.0,57.0,33.0,59.0,48.0,32.0,-57.0,33.0,17.0,39.0,0.0
41.0,49.0,19.0,57.0,50.0,25.0,-69.0,31.0,17.0,39.0,0.0
8.0,26.0,13.0,53.0,43.0,18.0,-61.0,29.0,4.0,42.0,0.0
-9.0,8.0,0.0,39.0,35.0,-1.0,-40.0,16.0,-6.0,14.0,0.0
-31.0,-17.0,-10.0,31.0,20.0,-14.0,-24.0,2.0,-53.0,-27.0,0.0
-58.0,-31.0,-18.0,15.0,-1.0,-25.0,4.0,-12.0,-62.0,-56.0,0.0
-70.0,-31.0,-25.0,6.0,-16.0,-33.0,21.0,-35.0,-61.0,-64.0,0.0
-77.0,-30.0,-24.0,-22.0,-27.0,-43.0,36.0,-47.0,-67.0,-53.0,0.0
-72.0,-36.0,-22.0,-35.0,-39.0,-37.0,56.0,-45.0,-49.0,-50.0,0.0
-63.0,-38.0,-43.0,-29.0,-44.0,-34.0,73.0,-31.0,-25.0,-42.0,0.0
-55.0,-20.0,-30.0,-26.0,-25.0,-38.0,69.0,-9.0,-17.0,-31.0,0.0
-62.0,-16.0,-17.0,-17.0,-7.0,-24.0,56.0,-18.0,-28.0,-38.0,0.0
-51.0,-20.0,-28.0,-1.0,-8.0,-13.0,35.0,-18.0,-36.0,-40.0,0.0
-12.0,-1.0,-17.0,11.0,4.0,-11.0,8.0,-8.0,-8.0,-22.0,0.0
13.0,14.0,7.0,15.0,15.0,-2.0,-14.0,6.0,20.0,-6.0,0.0
20.0,39.0,33.0,7.0,27.0,2.0,-44.0,12.0,28.0,12.0,0.0
22.0,60.0,38.0,17.0,35.0,9.0,-52.0,10.0,30.0,25.0,0.0
29.0,70.0,45.0,33.0,41.0,6.0,-62.0,2.0,20.0,16.0,0.0
34.0,75.0,46.0,26.0,34.0,-8.0,-59.0,2.0,14.0,3.0,0.0
27.0,89.0,32.0,18.0,28.0,-14.0,-54.0,-12.0,7.0,8.0,0.0
14.0,95.0,23.0,13.0,17.0,-21.0,-38.0,-9.0,12.0,1.0,0.0
14.0,72.0,10.0,11.0,3.0,-19.0,-8.0,0.0,16.0,9.0,0.0
-1.0,25.0,-11.0,-1.0,4.0,-21.0,20.0,-4.0,8.0,-4.0,0.0
-31.0,-13.0,-36.0,-7.0,-3.0,-26.0,30.0,-11.0,-1.0,-23.0,0.0
-45.0,-25.0,-51.0,-21.0,-26.0,-33.0,44.0,-15.0,0.0,-18.0,0.0
-61.0,-42.0,-51.0,-29.0,-43.0,-47.0,52.0,-25.0,8.0,-20.0,0.0
-66.0,-53.0,-42.0,-19.0,-42.0,-35.0,52.0,-19.0,11.0,-15.0,0.0
-45.0,-31.0,-42.0,-3.0,-33.0,-26.0,44.0,-8.0,4.0,-12.0,0.0
-16.0,-13.0,-36.0,2.0,-22.0,-22.0,32.0,-8.0,4.0,2.0,0.0
13.0,9.0,0.0,9.0,-9.0,-15.0,17.0,0.0,5.0,13.0,0.0
22.0,26.0,22.0,17.0,7.0,2.0,1.0,5.0,13.0,14.0,0.0
38.0,41.0,30.0,30.0,21.0,28.0,-14.0,17.0,20.0,9.0,0.0
55.0,58.0,43.0,46.0,46.0,38.0,-32.0,44.0,26.0,22.0,0.0
75.0,77.0,57.0,67.0,46.0,44.0,-52.0,48.0,42.0,42.0,0.0
100.0,70.0,58.0,67.0,41.0,41.0,-50.0,39.0,46.0,45.0,0.0
74.0,56.0,37.0,51.0,28.0,31.0,-42.0,32.0,45.0,21.0,0.0
55.0,40.0,29.0,36.0,9.0,28.0,-46.0,26.0,35.0,-5.0,0.0
41.0,10.0,24.0,-1.0,-10.0,18.0,-47.0,19.0,23.0,-9.0,0.0
27.0,-10.0,-4.0,-21.0,-21.0,-2.0,-44.0,-2.0,0.0,-20.0,0.0
18.0,-16.0,-15.0,-17.0,-29.0,-8.0,-28.0,-16.0,-17.0,-17.0,0.0
0.0,-37.0,-20.0,-21.0,-36.0,-9.0,-17.0,-20.0,-29.0,-22.0,0.0
-20.0,-40.0,-28.0,-29.0,-55.0,-23.0,-1.0,-31.0,-39.0,-30.0,0.0
-21.0,-51.0,-22.0,-27.0,-70.0,-26.0,13.0,-28.0,-25.0,-18.0,0.0
-25.0,-51.0,-19.0,-13.0,-66.0,-25.0,20.0,-22.0,-21.0,3.0,0.0
-13.0,-50.0,-24.0,-10.0,-48.0,-22.0,-3.0,-27.0,-36.0,7.0,0.0
0.0,-30.0,-17.0,-1.0,-30.0,-16.0,-2.0,-12.0,-15.0,36.0,0.0
49.0,14.0,13.0,27.0,13.0,15.0,-43.0,13.0,9.0,55.0,0.0
69.0,25.0,14.0,32.0,17.0,31.0,-66.0,33.0,19.0,59.0,0.0
82.0,30.0,28.0,42.0,33.0,23.0,-103.0,29.0,2.0,49.0,0.0
76.0,34.0,39.0,46.0,45.0,25.0,-100.0,27.0,9.0,60.0,0.0
77.0,41.0,37.0,44.0,39.0,22.0,-75.0,40.0,37.0,78.0,0.0
66.0,32.0,27.0,35.0,25.0,15.0,-69.0,35.0,26.0,55.0,0.0
45.0,16.0,8.0,23.0,4.0,15.0,-63.0,32.0,16.0,39.0,0.0
34.0,-8.0,-13.0,4.0,-2.0,-2.0,-46.0,21.0,9.0,13.0,0.0
13.0,-13.0,-28.0,-9.0,-17.0,-13.0,-10.0,18.0,-1.0,1.0,0.0
1.0,-26.0,-33.0,-17.0,-25.0,-10.0,14.0,16.0,-12.0,3.0,0.0
-24.0,-58.0,-63.0,-45.0,-33.0,-19.0,34.0,11.0,-10.0,-5.0,0.0
-45.0,-74.0,-82.0,-62.0,-48.0,-33.0,45.0,0.0,2.0,-16.0,0.0
-54.0,-75.0,-72.0,-58.0,-51.0,-38.0,40.0,-9.0,0.0,-11.0,0.0
-48.0,-61.0,-53.0,-41.0,-43.0,-18.0,35.0,-2.0,-5.0,-2.0,0.0
-43.0,-55.0,-53.0,-39.0,-39.0,-2.0,24.0,4.0,-6.0,7.0,0.0
-38.0,-31.0,-19.0,-36.0,-18.0,12.0,15.0,3.0,-10.0,12.0,0.0
-21.0,0.0,2.0,-15.0,3.0,23.0,-3.0,15.0,-2.0,19.0,0.0
-11.0,11.0,15.0,3.0,14.0,31.0,-15.0,17.0,7.0,4.0,0.0
4.0,27.0,27.0,26.0,38.0,33.0,-39.0,22.0,4.0,-2.0,0.0
32.0,41.0,39.0,28.0,53.0,23.0,-70.0,20.0,4.0,28.0,0.0
46.0,51.0,45.0,25.0,42.0,21.0,-78.0,20.0,19.0,52.0,0.0
33.0,40.0,31.0,33.0,25.0,17.0,-65.0,34.0,18.0,32.0,0.0
7.0,22.0,17.0,20.0,14.0,8.0,-50.0,36.0,14.0,1.0,0.0
-8.0,1.0,0.0,0.0,5.0,-3.0,-36.0,10.0,0.0,-11.0,0.0
-23.0,-16.0,-20.0,-15.0,-7.0,-10.0,-9.0,-8.0,-4.0,-13.0,0.0
-34.0,-21.0,-27.0,-35.0,-16.0,-2.0,12.0,-31.0,-16.0,-29.0,0.0
-39.0,-31.0,-34.0,-40.0,-27.0,-9.0,24.0,-26.0,-22.0,-41.0,0.0
-45.0,-22.0,-41.0,-59.0,-46.0,-27.0,46.0,-37.0,-24.0,-52.0,0.0
-48.0,-20.0,-41.0,-69.0,-52.0,-41.0,55.0,-45.0,-25.0,-46.0,0.0
-47.0,-16.0,-33.0,-67.0,-49.0,-50.0,45.0,-47.0,-23.0,-32.0,0.0
-18.0,-1.0,-32.0,-50.0,-32.0,-42.0,43.0,-50.0,-31.0,-26.0,0.0
25.0,6.0,-13.0,-38.0,-29.0,-24.0,38.0,-40.0,-16.0,24.0,0.0
49.0,13.0,1.0,-28.0,-23.0,-8.0,31.0,-22.0,-4.0,43.0,0.0
54.0,33.0,16.0,-10.0,3.0,-8.0,7.0,-7.0,1.0,26.0,0.0
50.0,39.0,34.0,1.0,14.0,-8.0,-7.0,0.0,10.0,29.0,0.0
65.0,49.0,40.0,5.0,33.0,-2.0,-27.0,8.0,27.0,34.0,0.0
87.0,59.0,55.0,25.0,43.0,16.0,-51.0,20.0,46.0,36.0,0.0
83.0,55.0,49.0,41.0,41.0,14.0,-54.0,25.0,30.0,28.0,0.0
59.0,40.0,41.0,33.0,32.0,4.0,-52.0,9.0,13.0,13.0,0.0
33.0,31.0,41.0,28.0,21.0,3.0,-52.0,0.0,-18.0,3.0,0.0
24.0,10.0,38.0,13.0,3.0,0.0,-21.0,-2.0,-18.0,-5.0,0.0
6.0,-11.0,23.0,-3.0,-15.0,-9.0,1.0,-13.0,-1.0,-13.0,0.0
-21.0,-41.0,7.0,-16.0,-27.0,-10.0,15.0,-21.0,-12.0,-19.0,0.0
-40.0,-73.0,-10.0,-34.0,-44.0,-29.0,37.0,-33.0,-28.0,-34.0,0.0
-51.0,-80.0,-37.0,-48.0,-66.0,-45.0,57.0,-40.0,-31.0,-26.0,0.0
-60.0,-75.0,-55.0,-54.0,-70.0,-42.0,77.0,-36.0,-27.0,-21.0,0.0
-61.0,-67.0,-47.0,-50.0,-57.0,-31.0,71.0,-20.0,-13.0,-27.0,0.0
-52.0,-61.0,-38.0,-52.0,-36.0,-16.0,49.0,-16.0,1.0,-18.0,0.0
-36.0,-57.0,-30.0,-44.0,-13.0,-12.0,31.0,-18.0,1.0,-9.0,0.0
-11.0,-36.0,2.0,-30.0,-1.0,3.0,15.0,-5.0,3.0,3.0,0.0
10.0,-8.0,8.0,-4.0,8.0,23.0,2.0,12.0,1.0,-3.0,0.0
32.0,18.0,14.0,24.0,24.0,23.0,-18.0,19.0,-16.0,-18.0,0.0
53.0,37.0,39.0,46.0,46.0,34.0,-41.0,15.0,-21.0,-32.0,0.0
68.0,51.0,56.0,58.0,60.0,30.0,-59.0,10.0,-14.0,-39.0,0.0
36.0,37.0,36.0,52.0,62.0,28.0,-53.0,16.0,-5.0,-50.0,0.0
22.0,4.0,11.0,38.0,49.0,22.0,-46.0,20.0,0.0,-44.0,0.0
20.0,-1.0,1.0,21.0,29.0,4.0,-41.0,11.0,4.0,-43.0,0.0
5.0,-20.0,-15.0,-1.0,4.0,-13.0,-14.0,5.0,1.0,-45.0,0.0
-3.0,-31.0,-14.0,-3.0,-19.0,-21.0,-5.0,4.0,11.0,-30.0,0.0
-9.0,-36.0,-6.0,-12.0,-36.0,-27.0,-2.0,-3.0,7.0,-27.0,0.0
-23.0,-27.0,-31.0,-42.0,-60.0,-42.0,29.0,-19.0,1.0,-28.0,0.0
-34.0,-20.0,-52.0,-57.0,-75.0,-56.0,47.0,-24.0,-14.0,-26.0,0.0
-37.0,1.0,-49.0,-56.0,-67.0,-50.0,50.0,-23.0,-13.0,-20.0,0.0
-14.0,14.0,-31.0,-48.0,-43.0,-39.0,51.0,-20.0,8.0,-2.0,0.0
1.0,-8.0,-24.0,-30.0,-29.0,-37.0,56.0,-20.0,22.0,0.0,0.0
15.0,-29.0,-12.0,-10.0,-7.0,-29.0,37.0,-13.0,26.0,0.0,0.0
26.0,-4.0,1.0,-12.0,19.0,-12.0,9.0,-5.0,43.0,23.0,0.0
30.0,10.0,8.0,-7.0,40.0,7.0,-6.0,0.0,51.0,27.0,0.0
22.0,5.0,11.0,3.0,56.0,15.0,-26.0,3.0,40.0,26.0,0.0
30.0,18.0,29.0,31.0,70.0,13.0,-57.0,13.0,30.0,46.0,0.0
38.0,30.0,38.0,39.0,81.0,12.0,-62.0,6.0,11.0,42.0,0.0
29.0,34.0,45.0,37.0,70.0,1.0,-56.0,0.0,-4.0,25.0,0.0
-4.0,22.0,41.0,30.0,58.0,-6.0,-48.0,12.0,-10.0,19.0,0.0
-29.0,4.0,23.0,20.0,47.0,-11.0,-33.0,9.0,-17.0,15.0,0.0
-40.0,-24.0,-7.0,-4.0,33.0,-16.0,-14.0,-5.0,-19.0,4.0,0.0
-60.0,-35.0,-23.0,-12.0,10.0,-24.0,-3.0,-13.0,-18.0,-19.0,0.0
-67.0,-46.0,-35.0,-16.0,-12.0,-30.0,8.0,-17.0,-14.0,-20.0,0.0
-69.0,-59.0,-43.0,-38.0,-40.0,-45.0,36.0,-19.0,-22.0,-10.0,0.0
-70.0,-62.0,-45.0,-52.0,-52.0,-47.0,54.0,-34.0,-18.0,-10.0,0.0
-45.0,-46.0,-40.0,-40.0,-35.0,-31.0,64.0,-27.0,-6.0,2.0,0.0
-24.0,-29.0,-13.0,-23.0,-29.0,-18.0,50.0,-26.0,1.0,19.0,0.0
-23.0,-24.0,14.0,-11.0,-17.0,0.0,28.0,-33.0,4.0,11.0,0.0
-28.0,-10.0,5.0,6.0,-3.0,13.0,19.0,-29.0,8.0,4.0,0.0
-9.0,10.0,27.0,21.0,12.0,20.0,5.0,-19.0,1.0,0.0,0.0
19.0,25.0,35.0,32.0,19.0,12.0,-16.0,-13.0,13.0,20.0,0.0
52.0,58.0,51.0,44.0,17.0,11.0,-34.0,-10.0,30.0,27.0,0.0
98.0,94.0,70.0,47.0,41.0,13.0,-43.0,-29.0,17.0,13.0,0.0
98.0,104.0,85.0,41.0,42.0,10.0,-61.0,-21.0,18.0,19.0,0.0
75.0,89.0,80.0,25.0,35.0,13.0,-53.0,-7.0,27.0,31.0,0.0
61.0,84.0,65.0,16.0,21.0,14.0,-26.0,4.0,27.0,22.0,0.0
28.0,63.0,47.0,10.0,6.0,11.0,-5.0,12.0,19.0,24.0,0.0
4.0,31.0,36.0,-3.0,-5.0,0.0,5.0,-6.0,11.0,15.0,0.0
-7.0,12.0,19.0,-14.0,-21.0,-16.0,22.0,-17.0,-8.0,-21.0,0.0
-29.0,-15.0,-2.0,-34.0,-31.0,-24.0,47.0,-25.0,-35.0,-63.0,0.0
-53.0,-37.0,-11.0,-41.0,-39.0,-28.0,73.0,-35.0,-49.0,-84.0,0.0
-67.0,-37.0,-16.0,-40.0,-37.0,-30.0,90.0,-38.0,-50.0,-77.0,0.0
-48.0,-29.0,-10.0,-39.0,-20.0,-21.0,89.0,-30.0,-48.0,-56.0,0.0
-47.0,-18.0,3.0,-31.0,-11.0,-7.0,70.0,-11.0,-38.0,-45.0,0.0
-26.0,2.0,20.0,-13.0,-11.0,7.0,44.0,-16.0,-36.0,-28.0,0.0
0.0,20.0,31.0,11.0,15.0,23.0,39.0,-3.0,-19.0,-15.0,0.0
8.0,35.0,31.0,28.0,45.0,48.0,31.0,19.0,7.0,-15.0,0.0
8.0,40.0,49.0,22.0,54.0,61.0,17.0,36.0,8.0,-4.0,0.0
25.0,57.0,66.0,24.0,73.0,80.0,-10.0,39.0,19.0,21.0,0.0
41.0,73.0,81.0,41.0,75.0,88.0,-39.0,37.0,33.0,22.0,0.0
38.0,60.0,87.0,40.0,49.0,82.0,-33.0,48.0,33.0,-5.0,0.0
38.0,41.0,73.0,33.0,25.0,71.0,-10.0,27.0,15.0,-12.0,0.0
22.0,17.0,50.0,20.0,27.0,42.0,2.0,10.0,5.0,-8.0,0.0
-9.0,-7.0,30.0,0.0,8.0,25.0,3.0,9.0,8.0,-13.0,0.0
-21.0,-21.0,20.0,4.0,-12.0,13.0,10.0,3.0,9.0,-15.0,0.0
-24.0,-26.0,-7.0,-1.0,-25.0,0.0,23.0,-5.0,5.0,-7.0,0.0
-45.0,-37.0,-31.0,-20.0,-49.0,-13.0,32.0,-22.0,-1.0,-21.0,0.0
-54.0,-44.0,-41.0,-27.0,-63.0,-21.0,40.0,-18.0,-7.0,-11.0,0.0
-53.0,-40.0,-47.0,-25.0,-52.0,-22.0,55.0,-24.0,-7.0,-1.0,0.0
-40.0,-35.0,-42.0,-8.0,-38.0,-13.0,56.0,-31.0,-3.0,3.0,0.0
-18.0,-41.0,-34.0,-9.0,-29.0,-4.0,53.0,-24.0,6.0,9.0,0.0
14.0,-25.0,-12.0,-3.0,-19.0,10.0,55.0,-19.0,13.0,13.0,0.0
50.0,0.0,10.0,19.0,-6.0,24.0,29.0,-3.0,25.0,19.0,0.0
53.0,14.0,21.0,37.0,12.0,28.0,3.0,13.0,32.0,16.0,0.0
41.0,32.0,40.0,52.0,29.0,29.0,-9.0,25.0,27.0,24.0,0.0
63.0,45.0,58.0,63.0,50.0,44.0,-30.0,30.0,40.0,38.0,0.0
72.0,41.0,63.0,58.0,54.0,45.0,-42.0,20.0,52.0,33.0,0.0
63.0,28.0,53.0,53.0,42.0,28.0,-42.0,20.0,54.0,34.0,0.0
49.0,10.0,35.0,44.0,34.0,14.0,-41.0,23.0,40.0,44.0,0.0
25.0,-9.0,2.0,25.0,18.0,1.0,-31.0,17.0,29.0,45.0,0.0
-4.0,-24.0,-23.0,5.0,-10.0,-2.0,-2.0,7.0,25.0,22.0,0.0
-22.0,-36.0,-27.0,-1.0,-21.0,-5.0,18.0,-2.0,19.0,-6.0,0.0
-43.0,-50.0,-40.0,-11.0,-34.0,-9.0,32.0,-6.0,0.0,-20.0,0.0
-65.0,-68.0,-55.0,-37.0,-52.0,-23.0,64.0,-21.0,-17.0,-19.0,0.0
-86.0,-81.0,-58.0,-39.0,-56.0,-25.0,81.0,-32.0,-18.0,-23.0,0.0
-87.0,-80.0,-56.0,-41.0,-47.0,-17.0,74.0,-29.0,-4.0,-26.0,0.0
-59.0,-68.0,-41.0,-49.0,-38.0,-4.0,63.0,-18.0,4.0,-19.0,0.0
-39.0,-52.0,-27.0,-50.0,-29.0,5.0,44.0,2.0,11.0,5.0,0.0
-19.0,-28.0,-17.0,-35.0,-14.0,16.0,26.0,20.0,15.0,8.0,0.0
16.0,-13.0,2.0,-28.0,4.0,25.0,17.0,20.0,8.0,-9.0,0.0
30.0,1.0,17.0,-3.0,34.0,36.0,0.0,24.0,8.0,-7.0,0.0
34.0,19.0,31.0,37.0,51.0,45.0,-19.0,17.0,-5.0,-6.0,0.0
44.0,39.0,46.0,56.0,61.0,49.0,-39.0,15.0,-5.0,20.0,0.0
26.0,38.0,48.0,46.0,51.0,50.0,-49.0,12.0,0.0,28.0,0.0
8.0,27.0,38.0,31.0,36.0,48.0,-51.0,5.0,-3.0,9.0,0.0
-1.0,19.0,19.0,27.0,13.0,46.0,-41.0,4.0,1.0,3.0,0.0
0.0,7.0,4.0,17.0,-9.0,38.0,-15.0,19.0,12.0,-5.0,0.0
-2.0,-5.0,-16.0,0.0,-21.0,17.0,-2.0,10.0,2.0,-13.0,0.0
-17.0,-23.0,-24.0,-10.0,-30.0,1.0,0.0,-1.0,-14.0,-25.0,0.0
-21.0,-39.0,-42.0,-25.0,-43.0,-10.0,6.0,-18.0,-23.0,-29.0,0.0
-15.0,-51.0,-57.0,-40.0,-53.0,-20.0,30.0,-37.0,-20.0,4.0,0.0
-11.0,-58.0,-56.0,-54.0,-56.0,-23.0,48.0,-44.0,-34.0,23.0,0.0
-6.0,-49.0,-45.0,-49.0,-52.0,-16.0,53.0,-33.0,-39.0,26.0,0.0
1.0,-40.0,-39.0,-34.0,-45.0,-13.0,30.0,-30.0,-37.0,43.0,0.0
22.0,-17.0,-2.0,-24.0,-18.0,-1.0,13.0,-9.0,-33.0,54.0,0.0
43.0,6.0,27.0,-10.0,10.0,12.0,-5.0,12.0,-13.0,60.0,0.0
56.0,16.0,44.0,3.0,25.0,30.0,-23.0,23.0,-3.0,49.0,0.0
73.0,35.0,60.0,13.0,45.0,40.0,-27.0,41.0,5.0,43.0,0.0
77.0,52.0,58.0,32.0,63.0,52.0,-38.0,53.0,28.0,40.0,0.0
65.0,52.0,60.0,31.0,63.0,54.0,-48.0,56.0,31.0,25.0,0.0
48.0,45.0,51.0,33.0,58.0,43.0,-42.0,47.0,39.0,24.0,0.0
36.0,33.0,40.0,29.0,40.0,36.0,-30.0,37.0,24.0,32.0,0.0
30.0,13.0,28.0,14.0,21.0,30.0,-38.0,19.0,10.0,25.0,0.0
16.0,-5.0,6.0,-4.0,3.0,3.0,-29.0,17.0,13.0,20.0,0.0
1.0,-12.0,-19.0,-15.0,-10.0,-9.0,-20.0,20.0,3.0,31.0,0.0
-3.0,-27.0,-24.0,-29.0,-12.0,-18.0,3.0,16.0,-7.0,27.0,0.0
-34.0,-44.0,-39.0,-33.0,-31.0,-28.0,24.0,0.0,-8.0,8.0,0.0
-55.0,-59.0,-62.0,-35.0,-41.0,-26.0,37.0,-13.0,-18.0,-10.0,0.0
-68.0,-61.0,-62.0,-48.0,-37.0,-18.0,43.0,-24.0,-26.0,-18.0,0.0
-61.0,-51.0,-45.0,-45.0,-19.0,-14.0,35.0,-29.0,-25.0,-30.0,0.0
-39.0,-1.0,-27.0,-26.0,-13.0,11.0,35.0,-25.0,-32.0,-33.0,0.0
0.0,49.0,-19.0,2.0,2.0,16.0,27.0,-21.0,-21.0,-15.0,0.0
30.0,70.0,1.0,27.0,38.0,32.0,9.0,-6.0,8.0,14.0,0.0
45.0,49.0,10.0,40.0,57.0,49.0,1.0,7.0,35.0,26.0,0.0
58.0,31.0,28.0,48.0,70.0,57.0,-30.0,19.0,45.0,37.0,0.0
69.0,45.0,42.0,54.0,74.0,62.0,-56.0,27.0,35.0,43.0,0.0
61.0,53.0,38.0,55.0,79.0,46.0,-59.0,31.0,39.0,35.0,0.0
37.0,49.0,30.0,37.0,68.0,26.0,-48.0,31.0,24.0,33.0,0.0
30.0,43.0,24.0,28.0,53.0,15.0,-38.0,30.0,23.0,24.0,0.0
37.0,52.0,11.0,27.0,32.0,-3.0,-33.0,32.0,16.0,13.0,0.0
16.0,26.0,-6.0,6.0,13.0,-18.0,-17.0,28.0,3.0,-3.0,0.0
-6.0,-2.0,-13.0,-4.0,-2.0,-18.0,-2.0,22.0,0.0,-15.0,0.0
-27.0,-21.0,-27.0,-20.0,-18.0,-24.0,11.0,0.0,-18.0,-26.0,0.0
-63.0,-35.0,-51.0,-33.0,-37.0,-35.0,36.0,-12.0,-39.0,-39.0,0.0
-75.0,-51.0,-59.0,-42.0,-57.0,-50.0,55.0,-13.0,-39.0,-32.0,0.0
-36.0,-35.0,-50.0,-41.0,-54.0,-39.0,51.0,1.0,-21.0,-12.0,0.0
4.0,-1.0,-32.0,-31.0,-38.0,-34.0,46.0,8.0,0.0,7.0,0.0
14.0,20.0,-15.0,-37.0,-26.0,-25.0,47.0,11.0,16.0,23.0,0.0
28.0,38.0,-3.0,-31.0,-7.0,-6.0,32.0,6.0,26.0,33.0,0.0
36.0,46.0,16.0,-21.0,12.0,8.0,14.0,19.0,24.0,25.0,0.0
50.0,53.0,38.0,0.0,21.0,27.0,-14.0,18.0,4.0,29.0,0.0
69.0,80.0,55.0,22.0,41.0,30.0,-37.0,4.0,-18.0,23.0,0.0
75.0,91.0,65.0,36.0,53.0,27.0,-48.0,7.0,-16.0,20.0,0.0
58.0,83.0,56.0,44.0,46.0,29.0,-45.0,10.0,-13.0,36.0,0.0
37.0,60.0,30.0,34.0,32.0,13.0,-43.0,11.0,-26.0,28.0,0.0
28.0,27.0,15.0,15.0,15.0,3.0,-34.0,12.0,-22.0,8.0,0.0
0.0,10.0,7.0,8.0,8.0,4.0,-11.0,3.0,-21.0,-6.0,0.0
-25.0,-5.0,-6.0,11.0,-1.0,-3.0,5.0,1.0,-21.0,-25.0,0.0
-54.0,-32.0,-27.0,11.0,-11.0,-4.0,19.0,3.0,-28.0,-37.0,0.0
-85.0,-60.0,-54.0,0.0,-16.0,-4.0,39.0,-12.0,-34.0,-47.0,0.0
-103.0,-84.0,-76.0,-15.0,-37.0,-19.0,57.0,-29.0,-31.0,-62.0,0.0
-102.0,-89.0,-90.0,-11.0,-38.0,-25.0,66.0,-38.0,-30.0,-61.0,0.0
-91.0,-69.0,-83.0,-11.0,-32.0,-19.0,56.0,-29.0,-23.0,-37.0,0.0
-74.0,-46.0,-77.0,-10.0,-25.0,-23.0,45.0,-21.0,-33.0,-29.0,0.0
-54.0,-26.0,-48.0,5.0,-22.0,-19.0,34.0,-13.0,-27.0,-29.0,0.0
-21.0,-5.0,-17.0,16.0,-3.0,3.0,18.0,-1.0,-4.0,-3.0,0.0
9.0,18.0,-9.0,30.0,18.0,10.0,-2.0,6.0,22.0,10.0,0.0
32.0,28.0,-8.0,43.0,31.0,18.0,-28.0,1.0,23.0,14.0,0.0
40.0,28.0,9.0,60.0,42.0,40.0,-51.0,7.0,24.0,13.0,0.0
52.0,28.0,25.0,73.0,53.0,40.0,-66.0,12.0,15.0,16.0,0.0
34.0,32.0,24.0,68.0,45.0,27.0,-82.0,10.0,10.0,0.0,0.0
19.0,27.0,7.0,27.0,25.0,6.0,-75.0,14.0,-2.0,-11.0,0.0
14.0,19.0,-6.0,-6.0,3.0,-14.0,-60.0,4.0,-19.0,-12.0,0.0
16.0,18.0,-7.0,-12.0,-14.0,-23.0,-36.0,4.0,-13.0,-1.0,0.0
17.0,13.0,-34.0,-14.0,-11.0,-15.0,-27.0,8.0,-11.0,1.0,0.0
-5.0,-13.0,-46.0,-29.0,-14.0,-17.0,-8.0,-2.0,-13.0,-24.0,0.0
-23.0,-36.0,-48.0,-46.0,-27.0,-30.0,26.0,-18.0,-36.0,-41.0,0.0
-37.0,-59.0,-57.0,-59.0,-40.0,-35.0,48.0,-27.0,-41.0,-38.0,0.0
-42.0,-65.0,-55.0,-58.0,-40.0,-29.0,49.0,-36.0,-31.0,-23.0,0.0
-49.0,-56.0,-42.0,-41.0,-26.0,-30.0,36.0,-28.0,-32.0,-33.0,0.0
-43.0,-43.0,-37.0,-14.0,-19.0,-24.0,21.0,-22.0,-22.0,-43.0,0.0
-18.0,-33.0,-22.0,3.0,-11.0,-10.0,15.0,-11.0,-15.0,-34.0,0.0
8.0,1.0,8.0,27.0,16.0,5.0,2.0,9.0,5.0,-15.0,0.0
25.0,21.0,31.0,34.0,33.0,10.0,-12.0,13.0,14.0,-9.0,0.0
48.0,35.0,52.0,50.0,35.0,22.0,-38.0,35.0,19.0,-11.0,0.0
67.0,54.0,66.0,62.0,50.0,26.0,-49.0,53.0,38.0,-2.0,0.0
65.0,62.0,56.0,58.0,56.0,41.0,-47.0,71.0,69.0,31.0,0.0
46.0,61.0,43.0,37.0,48.0,46.0,-41.0,73.0,67.0,45.0,0.0
26.0,45.0,25.0,23.0,38.0,46.0,-26.0,66.0,47.0,5.0,0.0
10.0,14.0,21.0,10.0,14.0,20.0,-33.0,52.0,21.0,-22.0,0.0
-4.0,-5.0,12.0,-1.0,1.0,4.0,-37.0,15.0,-5.0,-35.0,0.0
-23.0,-15.0,-4.0,-13.0,-3.0,-1.0,-22.0,0.0,-16.0,-41.0,0.0
-35.0,-10.0,-11.0,-18.0,-17.0,-10.0,4.0,-13.0,-23.0,-54.0,0.0
-52.0,-35.0,-17.0,-26.0,-35.0,-13.0,28.0,-34.0,-40.0,-58.0,0.0
-70.0,-47.0,-46.0,-40.0,-42.0,-17.0,42.0,-49.0,-61.0,-73.0,0.0
-54.0,-47.0,-65.0,-41.0,-38.0,-20.0,45.0,-47.0,-55.0,-85.0,0.0
-30.0,-28.0,-55.0,-21.0,-33.0,-1.0,51.0,-22.0,-29.0,-57.0,0.0
-27.0,-8.0,-35.0,-3.0,-38.0,14.0,51.0,-8.0,-6.0,-32.0,0.0
-14.0,3.0,1.0,20.0,-21.0,22.0,29.0,20.0,25.0,-19.0,0.0
5.0,11.0,19.0,35.0,11.0,38.0,11.0,41.0,32.0,11.0,0.0
14.0,15.0,18.0,35.0,22.0,50.0,1.0,49.0,46.0,27.0,0.0
18.0,14.0,19.0,44.0,28.0,51.0,-11.0,38.0,58.0,29.0,0.0
21.0,23.0,26.0,49.0,42.0,52.0,-35.0,26.0,37.0,21.0,0.0
11.0,23.0,37.0,49.0,50.0,47.0,-46.0,13.0,-7.0,-25.0,0.0
-22.0,7.0,38.0,52.0,36.0,43.0,-55.0,-12.0,-49.0,-66.0,0.0
-40.0,-5.0,31.0,42.0,29.0,40.0,-53.0,-16.0,-52.0,-76.0,0.0
-30.0,-17.0,14.0,11.0,2.0,20.0,-34.0,-18.0,-41.0,-56.0,0.0
-32.0,-26.0,5.0,-9.0,-19.0,-4.0,-10.0,-19.0,-39.0,-54.0,0.0
-30.0,-44.0,-13.0,-27.0,-46.0,-13.0,0.0,-28.0,-49.0,-40.0,0.0
-1.0,-56.0,-39.0,-58.0,-78.0,-36.0,9.0,-42.0,-59.0,2.0,0.0
3.0,-39.0,-45.0,-73.0,-95.0,-64.0,25.0,-55.0,-54.0,-9.0,0.0
10.0,4.0,-48.0,-63.0,-92.0,-75.0,38.0,-54.0,-48.0,-30.0,0.0
6.0,44.0,-38.0,-39.0,-85.0,-61.0,34.0,-53.0,-41.0,-16.0,0.0
4.0,46.0,-21.0,-9.0,-65.0,-34.0,36.0,-41.0,-29.0,-10.0,0.0
15.0,33.0,-18.0,15.0,-45.0,-13.0,34.0,-29.0,-11.0,-5.0,0.0
23.0,16.0,2.0,45.0,-13.0,11.0,11.0,-17.0,-12.0,-4.0,0.0
41.0,26.0,25.0,48.0,4.0,19.0,-4.0,-10.0,-10.0,3.0,0.0
69.0,57.0,37.0,31.0,11.0,14.0,-20.0,-15.0,4.0,22.0,0.0
91.0,75.0,54.0,27.0,30.0,17.0,-41.0,-17.0,22.0,31.0,0.0
79.0,77.0,60.0,36.0,38.0,21.0,-54.0,0.0,31.0,34.0,0.0
62.0,57.0,47.0,46.0,39.0,21.0,-47.0,18.0,22.0,35.0,0.0
38.0,36.0,27.0,39.0,27.0,8.0,-27.0,30.0,15.0,33.0,0.0
21.0,22.0,17.0,20.0,10.0,4.0,-19.0,29.0,18.0,26.0,0.0
3.0,5.0,25.0,11.0,-1.0,4.0,-5.0,13.0,15.0,19.0,0.0
-14.0,-10.0,25.0,4.0,-12.0,0.0,17.0,12.0,14.0,13.0,0.0
-16.0,-23.0,12.0,-15.0,-12.0,-11.0,39.0,3.0,-8.0,0.0,0.0
-36.0,-39.0,-10.0,-27.0,-35.0,-23.0,56.0,-25.0,-24.0,-20.0,0.0
-61.0,-59.0,-24.0,-41.0,-69.0,-43.0,60.0,-32.0,-25.0,-19.0,0.0
-65.0,-66.0,-36.0,-33.0,-73.0,-53.0,58.0,-29.0,-23.0,-19.0,0.0
-50.0,-52.0,-36.0,-24.0,-58.0,-43.0,62.0,-27.0,-8.0,-13.0,0.0
-37.0,-23.0,-25.0,-12.0,-35.0,-22.0,65.0,-28.0,13.0,10.0,0.0
-8.0,-7.0,0.0,4.0,-12.0,-2.0,48.0,-17.0,32.0,17.0,0.0
20.0,7.0,22.0,17.0,6.0,18.0,12.0,12.0,34.0,19.0,0.0
33.0,21.0,40.0,24.0,27.0,26.0,0.0,25.0,28.0,36.0,0.0
42.0,30.0,45.0,42.0,45.0,33.0,-15.0,28.0,34.0,50.0,0.0
58.0,50.0,66.0,48.0,59.0,46.0,-38.0,23.0,48.0,55.0,0.0
60.0,50.0,70.0,47.0,61.0,44.0,-44.0,7.0,40.0,40.0,0.0
47.0,34.0,61.0,38.0,50.0,26.0,-38.0,-7.0,16.0,43.0,0.0
23.0,7.0,32.0,16.0,35.0,9.0,-25.0,-1.0,6.0,45.0,0.0
4.0,-16.0,13.0,-1.0,26.0,-2.0,-16.0,0.0,11.0,20.0,0.0
-24.0,-37.0,2.0,-18.0,-3.0,-15.0,-4.0,1.0,1.0,-2.0,0.0
-44.0,-51.0,-13.0,-43.0,-18.0,-11.0,11.0,3.0,-4.0,-6.0,0.0
-61.0,-46.0,-45.0,-52.0,-35.0,-3.0,27.0,-3.0,-4.0,-8.0,0.0
-96.0,-57.0,-48.0,-49.0,-48.0,-14.0,40.0,-19.0,-11.0,-36.0,0.0
-130.0,-70.0,-45.0,-51.0,-52.0,-26.0,45.0,-30.0,-16.0,-58.0,0.0
-121.0,-70.0,-41.0,-47.0,-46.0,-24.0,45.0,-27.0,-23.0,-47.0,0.0
-85.0,-58.0,-38.0,-35.0,-38.0,-11.0,44.0,-21.0,-15.0,-28.0,0.0
-61.0,-33.0,-23.0,-23.0,-15.0,7.0,37.0,-11.0,-7.0,-15.0,0.0
-30.0,-6.0,-1.0,3.0,0.0,22.0,9.0,-10.0,5.0,-11.0,0.0
-2.0,15.0,12.0,22.0,15.0,23.0,-11.0,2.0,14.0,11.0,0.0
27.0,44.0,17.0,32.0,25.0,18.0,-22.0,6.0,14.0,40.0,0.0
72.0,76.0,46.0,36.0,39.0,27.0,-43.0,4.0,6.0,42.0,0.0
88.0,77.0,71.0,43.0,44.0,23.0,-53.0,13.0,21.0,38.0,0.0
88.0,83.0,63.0,50.0,38.0,13.0,-57.0,15.0,20.0,35.0,0.0
69.0,71.0,48.0,42.0,20.0,4.0,-59.0,-5.0,6.0,32.0,0.0
55.0,41.0,41.0,18.0,10.0,-14.0,-54.0,1.0,-6.0,22.0,0.0
40.0,12.0,19.0,-7.0,-3.0,-14.0,-29.0,8.0,-1.0,3.0,0.0
11.0,-2.0,-1.0,-25.0,-15.0,-11.0,-3.0,1.0,-3.0,-9.0,0.0
-19.0,-15.0,-15.0,-23.0,-22.0,-6.0,17.0,-6.0,-21.0,-2.0,0.0
-43.0,-24.0,-27.0,-42.0,-27.0,-12.0,24.0,-14.0,-38.0,-3.0,0.0
-62.0,-48.0,-50.0,-66.0,-30.0,-31.0,42.0,-33.0,-49.0,-13.0,0.0
-73.0,-52.0,-50.0,-54.0,-41.0,-40.0,61.0,-34.0,-35.0,-22.0,0.0
-61.0,-40.0,-46.0,-46.0,-36.0,-36.0,55.0,-24.0,-25.0,-14.0,0.0
-34.0,-25.0,-36.0,-39.0,-22.0,-20.0,34.0,-21.0,-12.0,4.0,0.0
-21.0,-16.0,-6.0,-22.0,-14.0,-13.0,25.0,-24.0,-2.0,15.0,0.0
-9.0,0.0,7.0,8.0,-3.0,-4.0,13.0,-10.0,6.0,21.0,0.0
18.0,29.0,15.0,35.0,21.0,1.0,-14.0,-2.0,9.0,32.0,0.0
50.0,52.0,33.0,51.0,33.0,9.0,-44.0,0.0,-1.0,36.0,0.0
67.0,78.0,53.0,59.0,45.0,22.0,-57.0,10.0,12.0,36.0,0.0
77.0,89.0,66.0,51.0,53.0,32.0,-57.0,30.0,16.0,52.0,0.0
68.0,85.0,63.0,45.0,51.0,31.0,-59.0,26.0,7.0,54.0,0.0
35.0,56.0,52.0,34.0,33.0,10.0,-49.0,18.0,-1.0,41.0,0.0
17.0,28.0,34.0,39.0,21.0,4.0,-36.0,15.0,1.0,21.0,0.0
-3.0,8.0,14.0,24.0,11.0,-3.0,-10.0,5.0,0.0,0.0,0.0
-32.0,-15.0,-9.0,10.0,1.0,-9.0,-2.0,-13.0,-15.0,0.0,0.0
-47.0,-40.0,-22.0,-7.0,-12.0,-7.0,7.0,-15.0,-17.0,5.0,0.0
-67.0,-60.0,-31.0,-25.0,-21.0,-10.0,33.0,-1.0,-10.0,0.0,0.0
-82.0,-58.0,-39.0,-36.0,-34.0,-22.0,53.0,-11.0,-16.0,-2.0,0.0
-73.0,-49.0,-48.0,-36.0,-38.0,-32.0,62.0,-11.0,-23.0,0.0,0.0
-67.0,-33.0,-38.0,-26.0,-31.0,-22.0,53.0,-22.0,-23.0,4.0,0.0
-66.0,-32.0,-29.0,-20.0,-11.0,-13.0,38.0,-25.0,-23.0,-2.0,0.0
-42.0,-13.0,-21.0,3.0,0.0,1.0,16.0,-9.0,-10.0,-1.0,0.0
-11.0,6.0,0.0,29.0,13.0,11.0,-5.0,-3.0,-2.0,8.0,0.0
9.0,16.0,10.0,42.0,25.0,9.0,-30.0,-2.0,-13.0,15.0,0.0
44.0,30.0,14.0,60.0,32.0,20.0,-42.0,9.0,17.0,18.0,0.0
59.0,49.0,24.0,69.0,52.0,30.0,-57.0,7.0,36.0,28.0,0.0
60.0,47.0,32.0,67.0,55.0,39.0,-68.0,13.0,37.0,40.0,0.0
49.0,45.0,17.0,40.0,42.0,20.0,-78.0,16.0,24.0,34.0,0.0
30.0,39.0,7.0,17.0,28.0,-1.0,-82.0,-5.0,-3.0,29.0,0.0
13.0,26.0,-10.0,5.0,19.0,-7.0,-48.0,-7.0,2.0,33.0,0.0
-3.0,0.0,-33.0,-16.0,4.0,-11.0,-16.0,-15.0,4.0,17.0,0.0
-23.0,-10.0,-48.0,-23.0,-5.0,-18.0,0.0,-26.0,1.0,13.0,0.0
-27.0,-10.0,-56.0,-37.0,-15.0,-34.0,20.0,-27.0,0.0,4.0,0.0
-34.0,-20.0,-62.0,-45.0,-17.0,-42.0,43.0,-19.0,-10.0,-4.0,0.0
-40.0,-30.0,-82.0,-46.0,-21.0,-36.0,60.0,-22.0,0.0,-5.0,0.0
-35.0,-43.0,-77.0,-41.0,-22.0,-14.0,64.0,-5.0,47.0,20.0,0.0
-26.0,-33.0,-55.0,-38.0,-28.0,-1.0,61.0,6.0,68.0,31.0,0.0
-21.0,-13.0,-42.0,-26.0,-17.0,11.0,53.0,18.0,71.0,40.0,0.0
6.0,2.0,-24.0,-1.0,16.0,25.0,29.0,36.0,76.0,46.0,0.0
42.0,17.0,-16.0,13.0,36.0,46.0,4.0,35.0,54.0,40.0,0.0
65.0,38.0,3.0,28.0,48.0,51.0,-12.0,25.0,28.0,29.0,0.0
74.0,59.0,20.0,35.0,56.0,56.0,-36.0,18.0,23.0,14.0,0.0
74.0,58.0,34.0,39.0,66.0,56.0,-66.0,16.0,9.0,-1.0,0.0
77.0,64.0,37.0,45.0,62.0,35.0,-81.0,1.0,-9.0,-14.0,0.0
65.0,59.0,20.0,36.0,51.0,17.0,-69.0,-2.0,-21.0,-16.0,0.0
41.0,67.0,16.0,23.0,40.0,11.0,-45.0,1.0,-17.0,-5.0,0.0
24.0,65.0,9.0,1.0,27.0,4.0,-31.0,-3.0,8.0,-9.0,0.0
14.0,42.0,0.0,-29.0,14.0,4.0,1.0,0.0,13.0,-22.0,0.0
-6.0,16.0,-19.0,-36.0,3.0,7.0,33.0,1.0,1.0,-24.0,0.0
-29.0,-40.0,-37.0,-48.0,-7.0,3.0,53.0,-7.0,-2.0,-28.0,0.0
-51.0,-69.0,-58.0,-68.0,-39.0,0.0,71.0,-3.0,-1.0,-34.0,0.0
-55.0,-69.0,-57.0,-66.0,-47.0,-17.0,80.0,-15.0,-4.0,-29.0,0.0
-50.0,-65.0,-44.0,-67.0,-31.0,-5.0,85.0,-30.0,-9.0,-17.0,0.0
-46.0,-52.0,-32.0,-54.0,-27.0,-6.0,77.0,-14.0,5.0,-6.0,0.0
-32.0,-28.0,-12.0,-31.0,-13.0,1.0,64.0,1.0,10.0,9.0,0.0
-23.0,-1.0,0.0,-9.0,12.0,14.0,45.0,4.0,1.0,10.0,0.0
-17.0,13.0,19.0,4.0,16.0,21.0,26.0,0.0,0.0,-4.0,0.0
8.0,37.0,44.0,37.0,19.0,28.0,9.0,18.0,9.0,3.0,0.0
35.0,41.0,56.0,78.0,34.0,35.0,-19.0,34.0,9.0,9.0,0.0
44.0,26.0,59.0,90.0,46.0,37.0,-31.0,40.0,-3.0,-6.0,0.0
25.0,15.0,41.0,69.0,39.0,26.0,-27.0,17.0,-6.0,-18.0,0.0
0.0,-4.0,17.0,46.0,16.0,12.0,-24.0,12.0,9.0,-29.0,0.0
-23.0,-22.0,0.0,39.0,16.0,9.0,-8.0,17.0,36.0,-42.0,0.0
-33.0,-23.0,-11.0,21.0,3.0,-3.0,4.0,4.0,17.0,-50.0,0.0
-34.0,-38.0,-19.0,0.0,-11.0,-21.0,24.0,-18.0,9.0,-41.0,0.0
-36.0,-47.0,-34.0,-11.0,-29.0,-34.0,41.0,-16.0,22.0,-27.0,0.0
-47.0,-53.0,-35.0,-35.0,-43.0,-52.0,55.0,-14.0,4.0,-33.0,0.0
-42.0,-62.0,-56.0,-45.0,-45.0,-50.0,73.0,-15.0,-11.0,-32.0,0.0
-35.0,-57.0,-60.0,-37.0,-51.0,-45.0,75.0,-16.0,-9.0,-25.0,0.0
-18.0,-48.0,-61.0,-34.0,-47.0,-48.0,64.0,-18.0,-11.0,-6.0,0.0
-10.0,-31.0,-42.0,-25.0,-36.0,-34.0,67.0,-8.0,5.0,2.0,0.0
4.0,-18.0,-20.0,-7.0,-9.0,-14.0,35.0,-4.0,5.0,-9.0,0.0
26.0,3.0,-3.0,10.0,9.0,1.0,9.0,0.0,0.0,-4.0,0.0
40.0,19.0,9.0,18.0,21.0,10.0,-15.0,12.0,15.0,0.0,0.0
52.0,40.0,29.0,27.0,29.0,9.0,-52.0,27.0,13.0,2.0,0.0
45.0,60.0,44.0,37.0,39.0,15.0,-77.0,19.0,16.0,2.0,0.0
32.0,55.0,48.0,23.0,43.0,21.0,-85.0,21.0,17.0,-6.0,0.0
25.0,39.0,31.0,18.0,30.0,15.0,-75.0,14.0,15.0,-11.0,0.0
8.0,24.0,18.0,21.0,14.0,1.0,-68.0,2.0,8.0,-19.0,0.0
-11.0,11.0,4.0,8.0,-2.0,-7.0,-65.0,0.0,-9.0,-26.0,0.0
-14.0,6.0,-11.0,-1.0,-15.0,-8.0,-47.0,1.0,0.0,-21.0,0.0
-24.0,-19.0,-20.0,-24.0,-26.0,-19.0,-27.0,4.0,-4.0,-27.0,0.0
-37.0,-56.0,-34.0,-40.0,-37.0,-24.0,-2.0,1.0,-19.0,3.0,0.0
-53.0,-69.0,-55.0,-51.0,-46.0,-34.0,24.0,-4.0,-31.0,29.0,0.0
-70.0,-69.0,-55.0,-60.0,-41.0,-33.0,49.0,-21.0,-31.0,19.0,0.0
-72.0,-65.0,-49.0,-54.0,-31.0,-31.0,55.0,-26.0,-24.0,-6.0,0.0
-63.0,-50.0,-36.0,-41.0,-24.0,-22.0,33.0,-21.0,-22.0,-11.0,0.0
-45.0,-39.0,-23.0,-34.0,-15.0,-15.0,8.0,-23.0,-25.0,0.0,0.0
-21.0,-23.0,-5.0,-35.0,4.0,0.0,-4.0,-19.0,-9.0,0.0,0.0
12.0,-7.0,24.0,-27.0,24.0,13.0,-20.0,-7.0,12.0,5.0,0.0
10.0,-4.0,50.0,-13.0,40.0,31.0,-28.0,0.0,14.0,4.0,0.0
29.0,20.0,57.0,14.0,54.0,44.0,-32.0,4.0,15.0,12.0,0.0
54.0,43.0,61.0,28.0,54.0,37.0,-51.0,10.0,25.0,19.0,0.0
53.0,54.0,59.0,19.0,44.0,17.0,-65.0,0.0,34.0,17.0,0.0
58.0,70.0,52.0,14.0,29.0,-4.0,-58.0,0.0,32.0,34.0,0.0
73.0,65.0,32.0,12.0,10.0,-15.0,-53.0,0.0,34.0,35.0,0.0
71.0,43.0,20.0,13.0,1.0,-27.0,-41.0,-5.0,18.0,19.0,0.0
48.0,19.0,12.0,0.0,-15.0,-32.0,-19.0,-11.0,14.0,8.0,0.0
4.0,-14.0,4.0,-17.0,-36.0,-30.0,-3.0,-17.0,15.0,-16.0,0.0
-20.0,-48.0,-15.0,-36.0,-51.0,-31.0,11.0,-31.0,12.0,-20.0,0.0
-40.0,-71.0,-27.0,-39.0,-59.0,-45.0,26.0,-44.0,-10.0,-29.0,0.0
-47.0,-71.0,-32.0,-44.0,-55.0,-53.0,31.0,-59.0,-13.0,-28.0,0.0
-46.0,-68.0,-32.0,-43.0,-44.0,-39.0,25.0,-48.0,-8.0,-15.0,0.0
-28.0,-68.0,-8.0,-39.0,-32.0,-21.0,16.0,-34.0,-8.0,-15.0,0.0
-7.0,-42.0,8.0,-20.0,-20.0,5.0,17.0,-26.0,3.0,-10.0,0.0
10.0,-5.0,29.0,-2.0,6.0,34.0,-7.0,-12.0,13.0,0.0,0.0
39.0,20.0,38.0,20.0,24.0,54.0,-32.0,-6.0,5.0,7.0,0.0
56.0,27.0,61.0,43.0,27.0,59.0,-48.0,9.0,5.0,16.0,0.0
73.0,44.0,83.0,49.0,37.0,63.0,-63.0,22.0,10.0,17.0,0.0
76.0,46.0,89.0,54.0,45.0,61.0,-76.0,25.0,13.0,16.0,0.0
60.0,43.0,73.0,54.0,46.0,50.0,-73.0,26.0,20.0,8.0,0.0
42.0,37.0,56.0,41.0,30.0,41.0,-55.0,30.0,18.0,11.0,0.0
25.0,13.0,41.0,21.0,14.0,29.0,-40.0,22.0,12.0,24.0,0.0
0.0,-14.0,28.0,0.0,3.0,14.0,-25.0,15.0,0.0,8.0,0.0
-34.0,-35.0,4.0,0.0,-11.0,4.0,-12.0,14.0,-18.0,-12.0,0.0
-38.0,-66.0,-19.0,-10.0,-23.0,-7.0,16.0,4.0,-36.0,-17.0,0.0
-37.0,-75.0,-36.0,-32.0,-48.0,-9.0,30.0,6.0,-34.0,-18.0,0.0
-42.0,-73.0,-53.0,-62.0,-58.0,-15.0,42.0,0.0,-31.0,-27.0,0.0
-51.0,-62.0,-51.0,-70.0,-45.0,-30.0,58.0,-16.0,-15.0,-14.0,0.0
-35.0,-53.0,-32.0,-60.0,-22.0,-32.0,59.0,-21.0,-12.0,-3.0,0.0
-14.0,-38.0,-24.0,-31.0,-8.0,-12.0,60.0,-12.0,-10.0,2.0,0.0
-3.0,-15.0,-12.0,7.0,7.0,14.0,51.0,-6.0,-3.0,4.0,0.0
14.0,0.0,15.0,40.0,36.0,22.0,21.0,7.0,1.0,2.0,0.0
33.0,8.0,23.0,55.0,41.0,31.0,-15.0,9.0,-10.0,1.0,0.0
51.0,32.0,23.0,57.0,36.0,35.0,-38.0,12.0,0.0,2.0,0.0
69.0,72.0,35.0,60.0,52.0,31.0,-60.0,17.0,-1.0,12.0,0.0
65.0,110.0,42.0,55.0,50.0,18.0,-68.0,18.0,-2.0,27.0,0.0
51.0,106.0,38.0,54.0,47.0,10.0,-44.0,24.0,8.0,37.0,0.0
37.0,66.0,16.0,45.0,47.0,11.0,-16.0,20.0,21.0,28.0,0.0
13.0,17.0,-16.0,37.0,29.0,8.0,6.0,20.0,21.0,28.0,0.0
-8.0,-19.0,-23.0,13.0,7.0,-5.0,24.0,24.0,21.0,1.0,0.0
-24.0,-28.0,-40.0,-13.0,-13.0,-9.0,28.0,20.0,15.0,-27.0,0.0
-54.0,-37.0,-54.0,-28.0,-21.0,-8.0,43.0,17.0,6.0,-26.0,0.0
-74.0,-60.0,-56.0,-45.0,-35.0,-19.0,58.0,17.0,-1.0,-16.0,0.0
-84.0,-66.0,-50.0,-48.0,-42.0,-34.0,74.0,11.0,-12.0,-14.0,0.0
-78.0,-59.0,-32.0,-35.0,-44.0,-29.0,69.0,10.0,-23.0,-13.0,0.0
-67.0,-51.0,-28.0,-37.0,-42.0,-20.0,52.0,1.0,-33.0,-18.0,0.0
-49.0,-34.0,-21.0,-33.0,-24.0,-21.0,40.0,-4.0,-53.0,-8.0,0.0
-22.0,-5.0,0.0,-15.0,-6.0,-14.0,20.0,-1.0,-52.0,-12.0,0.0
4.0,21.0,23.0,1.0,3.0,-4.0,-6.0,15.0,-29.0,-12.0,0.0
30.0,36.0,28.0,12.0,14.0,-5.0,-30.0,16.0,-11.0,-7.0,0.0
52.0,54.0,40.0,18.0,35.0,11.0,-30.0,29.0,-7.0,-4.0,0.0
76.0,70.0,57.0,25.0,54.0,23.0,-28.0,37.0,-11.0,6.0,0.0
78.0,74.0,74.0,32.0,57.0,19.0,-38.0,27.0,0.0,17.0,0.0
57.0,54.0,65.0,17.0,45.0,21.0,-32.0,31.0,5.0,16.0,0.0
32.0,30.0,48.0,-8.0,26.0,15.0,-34.0,9.0,-14.0,15.0,0.0
5.0,20.0,34.0,-21.0,8.0,4.0,-31.0,1.0,-22.0,20.0,0.0
-17.0,7.0,12.0,-23.0,0.0,-3.0,-18.0,2.0,-20.0,-1.0,0.0
-34.0,-4.0,-4.0,-28.0,-11.0,-19.0,0.0,0.0,-25.0,-20.0,0.0
-62.0,-22.0,-22.0,-43.0,-25.0,-32.0,19.0,-12.0,-39.0,-41.0,0.0
-81.0,-40.0,-47.0,-62.0,-41.0,-42.0,29.0,-27.0,-45.0,-38.0,0.0
-73.0,-43.0,-48.0,-69.0,-53.0,-39.0,38.0,-40.0,-40.0,-31.0,0.0
-62.0,-37.0,-43.0,-62.0,-45.0,-21.0,37.0,-27.0,-42.0,-13.0,0.0
-42.0,-29.0,-37.0,-44.0,-26.0,-9.0,49.0,-21.0,-17.0,2.0,0.0
-9.0,-4.0,-19.0,-26.0,-13.0,-5.0,37.0,-32.0,0.0,-2.0,0.0
20.0,31.0,0.0,-17.0,2.0,19.0,6.0,-35.0,-4.0,-3.0,0.0
31.0,48.0,8.0,-4.0,23.0,44.0,-17.0,-5.0,-10.0,3.0,0.0
49.0,68.0,26.0,12.0,38.0,55.0,-30.0,20.0,2.0,28.0,0.0
60.0,74.0,32.0,13.0,47.0,59.0,-43.0,29.0,9.0,46.0,0.0
52.0,72.0,41.0,11.0,44.0,48.0,-53.0,29.0,9.0,41.0,0.0
47.0,59.0,41.0,11.0,36.0,39.0,-57.0,23.0,6.0,29.0,0.0
53.0,48.0,32.0,2.0,38.0,15.0,-42.0,22.0,-10.0,20.0,0.0
43.0,43.0,32.0,-8.0,25.0,0.0,-24.0,18.0,-15.0,18.0,0.0
26.0,19.0,16.0,-2.0,18.0,-12.0,-16.0,11.0,-6.0,4.0,0.0
4.0,-8.0,-5.0,-20.0,4.0,-24.0,0.0,11.0,-3.0,-12.0,0.0
-10.0,-19.0,-28.0,-32.0,-18.0,-28.0,22.0,19.0,-4.0,-13.0,0.0
-47.0,-43.0,-38.0,-42.0,-28.0,-33.0,45.0,15.0,-22.0,-17.0,0.0
-74.0,-67.0,-68.0,-59.0,-33.0,-33.0,59.0,11.0,-30.0,-24.0,0.0
-71.0,-65.0,-63.0,-73.0,-25.0,-37.0,57.0,-3.0,-27.0,-22.0,0.0
-57.0,-56.0,-58.0,-65.0,-17.0,-27.0,47.0,-11.0,-18.0,-23.0,0.0
-30.0,-35.0,-54.0,-50.0,-12.0,-4.0,27.0,-12.0,-23.0,-19.0,0.0
3.0,-22.0,-34.0,-31.0,-9.0,0.0,21.0,1.0,-23.0,-8.0,0.0
27.0,3.0,-14.0,-10.0,6.0,10.0,4.0,11.0,-13.0,8.0,0.0
44.0,25.0,2.0,22.0,20.0,17.0,-21.0,11.0,-1.0,16.0,0.0
45.0,39.0,16.0,56.0,39.0,28.0,-44.0,28.0,8.0,17.0,0.0
47.0,51.0,20.0,56.0,54.0,34.0,-60.0,42.0,12.0,16.0,0.0
47.0,51.0,23.0,39.0,55.0,32.0,-62.0,34.0,17.0,12.0,0.0
36.0,38.0,13.0,6.0,40.0,26.0,-51.0,27.0,15.0,9.0,0.0
23.0,15.0,-4.0,-7.0,30.0,14.0,-56.0,26.0,1.0,2.0,0.0
8.0,4.0,-15.0,-8.0,20.0,1.0,-46.0,16.0,2.0,-1.0,0.0
-5.0,-22.0,-32.0,-20.0,-1.0,-15.0,-18.0,-10.0,-11.0,-14.0,0.0
-42.0,-41.0,-35.0,-22.0,-17.0,-22.0,1.0,-27.0,-14.0,-25.0,0.0
-70.0,-55.0,-54.0,-6.0,-37.0,-24.0,31.0,-25.0,-3.0,-31.0,0.0
-79.0,-60.0,-71.0,-30.0,-47.0,-27.0,44.0,-14.0,-26.0,-36.0,0.0
-65.0,-62.0,-73.0,-40.0,-55.0,-26.0,41.0,-15.0,-31.0,-12.0,0.0
-51.0,-56.0,-62.0,-29.0,-50.0,-9.0,39.0,-23.0,-20.0,-9.0,0.0
-59.0,-51.0,-60.0,-8.0,-32.0,5.0,38.0,-6.0,-10.0,-14.0,0.0
-49.0,-46.0,-46.0,5.0,-24.0,9.0,25.0,-8.0,-6.0,-16.0,0.0
-29.0,-24.0,-12.0,19.0,0.0,16.0,8.0,12.0,16.0,6.0,0.0
5.0,5.0,-6.0,27.0,15.0,27.0,-3.0,39.0,49.0,68.0,0.0
21.0,26.0,-5.0,29.0,31.0,27.0,-14.0,55.0,64.0,118.0,0.0
49.0,50.0,16.0,35.0,39.0,29.0,-38.0,58.0,52.0,113.0,0.0
53.0,66.0,41.0,55.0,48.0,22.0,-76.0,30.0,22.0,78.0,0.0
32.0,67.0,56.0,61.0,47.0,21.0,-97.0,4.0,-8.0,36.0,0.0
-1.0,55.0,66.0,50.0,34.0,0.0,-95.0,-17.0,-48.0,3.0,0.0
-17.0,41.0,45.0,42.0,22.0,-4.0,-80.0,-21.0,-69.0,-22.0,0.0
-21.0,24.0,32.0,29.0,-2.0,-8.0,-68.0,-23.0,-73.0,-42.0,0.0
-9.0,21.0,32.0,19.0,-29.0,-24.0,-39.0,-27.0,-59.0,-45.0,0.0
7.0,27.0,36.0,1.0,-40.0,-28.0,-8.0,-17.0,-26.0,-20.0,0.0
8.0,19.0,11.0,-26.0,-57.0,-35.0,6.0,-24.0,-16.0,-11.0,0.0
-8.0,0.0,-10.0,-49.0,-67.0,-29.0,20.0,-33.0,-28.0,-22.0,0.0
-21.0,2.0,-25.0,-59.0,-63.0,-19.0,45.0,-26.0,-36.0,-31.0,0.0
-26.0,1.0,-22.0,-46.0,-40.0,9.0,62.0,-3.0,-17.0,-33.0,0.0
-43.0,-8.0,-15.0,-29.0,-20.0,25.0,60.0,6.0,-8.0,-39.0,0.0
-27.0,-13.0,-2.0,-16.0,-13.0,30.0,39.0,-1.0,0.0,-16.0,0.0
63.0,64.0,51.0,43.0,47.0,85.0,-56.0,33.0,42.0,45.0,0.0
66.0,50.0,37.0,41.0,45.0,78.0,-52.0,36.0,45.0,52.0,0.0
46.0,21.0,30.0,33.0,22.0,59.0,-28.0,34.0,47.0,57.0,0.0
14.0,5.0,25.0,16.0,4.0,47.0,-16.0,21.0,33.0,34.0,0.0
1.0,-8.0,1.0,11.0,-6.0,36.0,7.0,14.0,26.0,9.0,0.0
-10.0,-27.0,-11.0,-1.0,-22.0,27.0,27.0,26.0,43.0,-4.0,0.0
-24.0,-39.0,-25.0,-18.0,-31.0,10.0,34.0,12.0,38.0,0.0,0.0
-40.0,-54.0,-45.0,-24.0,-46.0,-12.0,55.0,-7.0,22.0,4.0,0.0
-64.0,-66.0,-51.0,-31.0,-58.0,-23.0,79.0,-12.0,8.0,0.0,0.0
-57.0,-73.0,-44.0,-23.0,-60.0,-10.0,75.0,-15.0,2.0,-8.0,0.0
-51.0,-53.0,-40.0,-6.0,-50.0,1.0,61.0,-13.0,-10.0,-20.0,0.0
-28.0,-24.0,-24.0,8.0,-47.0,10.0,38.0,-27.0,-9.0,-23.0,0.0
0.0,-9.0,3.0,16.0,-29.0,25.0,26.0,-34.0,-12.0,-29.0,0.0
29.0,6.0,25.0,38.0,-1.0,42.0,19.0,-17.0,-29.0,-34.0,0.0
39.0,24.0,38.0,46.0,23.0,54.0,-18.0,-4.0,-37.0,-33.0,0.0
50.0,36.0,55.0,50.0,35.0,60.0,-47.0,4.0,-27.0,-7.0,0.0
56.0,59.0,74.0,67.0,43.0,66.0,-57.0,19.0,7.0,17.0,0.0
65.0,63.0,68.0,64.0,38.0,70.0,-59.0,33.0,23.0,35.0,0.0
57.0,40.0,35.0,47.0,28.0,59.0,-47.0,34.0,32.0,28.0,0.0
26.0,25.0,2.0,31.0,13.0,52.0,-28.0,25.0,34.0,13.0,0.0
-3.0,7.0,-1.0,15.0,0.0,32.0,-9.0,2.0,19.0,-8.0,0.0
-18.0,-5.0,-8.0,-2.0,-6.0,11.0,-5.0,-17.0,6.0,-22.0,0.0
-28.0,2.0,-6.0,-32.0,-32.0,-9.0,9.0,-33.0,-11.0,-48.0,0.0
-49.0,23.0,-26.0,-47.0,-34.0,-20.0,22.0,-50.0,-29.0,-60.0,0.0
-70.0,13.0,-46.0,-51.0,-27.0,-32.0,40.0,-53.0,-37.0,-68.0,0.0
-61.0,-8.0,-34.0,-53.0,-32.0,-33.0,63.0,-37.0,-36.0,-46.0,0.0
-58.0,-25.0,-25.0,-44.0,-32.0,-20.0,65.0,-11.0,-25.0,-38.0,0.0
-43.0,-37.0,-25.0,-36.0,-14.0,-15.0,61.0,-4.0,-22.0,-33.0,0.0
-18.0,-28.0,-23.0,-31.0,-8.0,-16.0,57.0,4.0,-16.0,-23.0,0.0
10.0,1.0,-18.0,-14.0,0.0,-2.0,37.0,13.0,8.0,-16.0,0.0
27.0,29.0,-5.0,7.0,21.0,7.0,18.0,18.0,28.0,-2.0,0.0
45.0,46.0,16.0,11.0,41.0,14.0,0.0,31.0,45.0,10.0,0.0
56.0,64.0,52.0,20.0,52.0,31.0,-18.0,29.0,40.0,18.0,0.0
64.0,68.0,58.0,30.0,56.0,27.0,-30.0,39.0,42.0,23.0,0.0
57.0,54.0,54.0,20.0,45.0,21.0,-38.0,39.0,48.0,35.0,0.0
44.0,44.0,39.0,16.0,27.0,20.0,-34.0,41.0,51.0,29.0,0.0
39.0,35.0,33.0,18.0,18.0,7.0,-20.0,38.0,51.0,38.0,0.0
20.0,9.0,29.0,23.0,0.0,0.0,-15.0,12.0,36.0,30.0,0.0
-3.0,-4.0,7.0,16.0,-14.0,-3.0,-15.0,-3.0,20.0,-12.0,0.0
-18.0,3.0,-6.0,-1.0,-22.0,-6.0,-3.0,-13.0,3.0,-12.0,0.0
-32.0,-14.0,-7.0,-31.0,-44.0,-6.0,33.0,-22.0,-2.0,-10.0,0.0
-47.0,-40.0,-2.0,-50.0,-57.0,-6.0,60.0,-25.0,-4.0,-10.0,0.0
-54.0,-50.0,-10.0,-50.0,-51.0,0.0,70.0,-24.0,3.0,-19.0,0.0
-53.0,-51.0,-8.0,-48.0,-42.0,5.0,63.0,-19.0,31.0,-21.0,0.0
-37.0,-37.0,-12.0,-37.0,-37.0,13.0,46.0,-18.0,61.0,-16.0,0.0
-18.0,-17.0,0.0,-8.0,-25.0,24.0,39.0,-22.0,47.0,-18.0,0.0
0.0,3.0,29.0,16.0,3.0,33.0,30.0,-11.0,50.0,-13.0,0.0
15.0,23.0,45.0,20.0,26.0,45.0,16.0,10.0,52.0,3.0,0.0
30.0,29.0,60.0,38.0,41.0,55.0,7.0,23.0,51.0,14.0,0.0
53.0,34.0,80.0,61.0,43.0,57.0,-11.0,34.0,55.0,28.0,0.0
65.0,26.0,78.0,63.0,35.0,50.0,-29.0,29.0,42.0,41.0,0.0
49.0,22.0,72.0,56.0,31.0,46.0,-35.0,17.0,29.0,35.0,0.0
35.0,14.0,43.0,46.0,12.0,28.0,-36.0,4.0,31.0,15.0,0.0
29.0,0.0,26.0,12.0,0.0,22.0,-17.0,2.0,23.0,1.0,0.0
14.0,-4.0,2.0,-16.0,-22.0,13.0,6.0,4.0,15.0,-3.0,0.0
0.0,-20.0,1.0,-10.0,-42.0,0.0,28.0,-3.0,3.0,-6.0,0.0
-16.0,-23.0,-1.0,-3.0,-52.0,-23.0,45.0,-6.0,-6.0,7.0,0.0
-31.0,-42.0,-36.0,-12.0,-67.0,-50.0,59.0,-21.0,-2.0,19.0,0.0
-47.0,-64.0,-58.0,-34.0,-65.0,-45.0,71.0,-24.0,-12.0,3.0,0.0
-45.0,-67.0,-52.0,-50.0,-60.0,-32.0,87.0,-33.0,-14.0,-12.0,0.0
-29.0,-60.0,-27.0,-49.0,-50.0,-25.0,71.0,-24.0,-13.0,-12.0,0.0
-27.0,-43.0,-12.0,-38.0,-39.0,-22.0,60.0,-10.0,-7.0,-2.0,0.0
7.0,-13.0,3.0,-25.0,-18.0,-5.0,45.0,0.0,10.0,7.0,0.0
39.0,8.0,20.0,-10.0,0.0,9.0,18.0,10.0,10.0,19.0,0.0
54.0,24.0,38.0,1.0,21.0,18.0,1.0,19.0,14.0,34.0,0.0
71.0,38.0,50.0,17.0,38.0,31.0,-14.0,22.0,22.0,26.0,0.0
76.0,46.0,59.0,42.0,45.0,41.0,-33.0,31.0,18.0,21.0,0.0
63.0,37.0,37.0,48.0,42.0,37.0,-45.0,32.0,24.0,24.0,0.0
51.0,21.0,19.0,42.0,35.0,19.0,-40.0,41.0,21.0,35.0,0.0
34.0,6.0,13.0,32.0,32.0,3.0,-28.0,28.0,25.0,35.0,0.0
9.0,0.0,0.0,22.0,17.0,-2.0,-25.0,17.0,8.0,12.0,0.0
-20.0,-16.0,-4.0,17.0,-3.0,-2.0,-9.0,15.0,-5.0,-5.0,0.0
-46.0,-45.0,-4.0,-3.0,-12.0,-13.0,1.0,16.0,-9.0,-20.0,0.0
-67.0,-60.0,-11.0,-4.0,-16.0,-29.0,13.0,-2.0,-18.0,-35.0,0.0
-78.0,-60.0,-36.0,-1.0,-30.0,-39.0,33.0,-25.0,-42.0,-65.0,0.0
-91.0,-73.0,-40.0,-11.0,-36.0,-31.0,35.0,-36.0,-54.0,-79.0,0.0
-82.0,-61.0,-44.0,-21.0,-24.0,-25.0,25.0,-33.0,-50.0,-70.0,0.0
-53.0,-37.0,-27.0,-12.0,-23.0,-19.0,28.0,-22.0,-45.0,-47.0,0.0
-38.0,-10.0,-6.0,1.0,-16.0,-13.0,27.0,-13.0,-48.0,-39.0,0.0
1.0,17.0,6.0,23.0,6.0,-3.0,7.0,-3.0,-19.0,-16.0,0.0
51.0,49.0,35.0,36.0,24.0,-1.0,-18.0,14.0,-8.0,9.0,0.0
82.0,74.0,61.0,49.0,34.0,10.0,-38.0,14.0,-8.0,23.0,0.0
111.0,84.0,73.0,60.0,44.0,23.0,-44.0,23.0,5.0,29.0,0.0
123.0,87.0,78.0,56.0,52.0,22.0,-55.0,29.0,0.0,33.0,0.0
103.0,77.0,61.0,29.0,43.0,18.0,-61.0,28.0,-7.0,39.0,0.0
76.0,53.0,29.0,9.0,33.0,0.0,-61.0,23.0,0.0,47.0,0.0
54.0,31.0,5.0,7.0,22.0,-24.0,-49.0,30.0,8.0,49.0,0.0
40.0,11.0,-4.0,-10.0,-6.0,-29.0,-25.0,19.0,12.0,52.0,0.0
13.0,-11.0,-14.0,-14.0,-25.0,-30.0,2.0,18.0,23.0,49.0,0.0
-11.0,-28.0,-31.0,-30.0,-39.0,-24.0,25.0,27.0,19.0,33.0,0.0
-48.0,-51.0,-46.0,-41.0,-49.0,-25.0,43.0,11.0,-19.0,-8.0,0.0
-67.0,-63.0,-53.0,-33.0,-49.0,-34.0,55.0,-13.0,-41.0,-28.0,0.0
-33.0,-36.0,-44.0,-23.0,-51.0,-42.0,46.0,-37.0,-54.0,-10.0,0.0
-9.0,-16.0,-32.0,-22.0,-46.0,-38.0,58.0,-38.0,-44.0,33.0,0.0
-9.0,-1.0,-36.0,-17.0,-37.0,-25.0,53.0,-36.0,-34.0,34.0,0.0
2.0,15.0,-30.0,4.0,-23.0,-12.0,26.0,-20.0,-34.0,24.0,0.0
35.0,31.0,8.0,23.0,-6.0,0.0,14.0,5.0,2.0,18.0,0.0
57.0,39.0,20.0,29.0,11.0,2.0,12.0,24.0,18.0,32.0,0.0
72.0,47.0,33.0,35.0,36.0,10.0,0.0,31.0,35.0,44.0,0.0
85.0,65.0,45.0,50.0,55.0,8.0,-33.0,18.0,5.0,33.0,0.0
74.0,66.0,50.0,70.0,66.0,14.0,-45.0,6.0,-35.0,8.0,0.0
40.0,49.0,44.0,65.0,57.0,7.0,-45.0,-11.0,-40.0,-4.0,0.0
22.0,35.0,26.0,53.0,49.0,3.0,-31.0,-13.0,-30.0,21.0,0.0
5.0,2.0,4.0,39.0,33.0,-6.0,-9.0,-10.0,-30.0,18.0,0.0
-8.0,-19.0,-12.0,14.0,13.0,-18.0,7.0,-21.0,-34.0,-6.0,0.0
-19.0,-29.0,-21.0,6.0,0.0,-26.0,20.0,-20.0,-41.0,-19.0,0.0
-38.0,-41.0,-34.0,-3.0,-11.0,-34.0,37.0,-16.0,-33.0,-24.0,0.0
-54.0,-58.0,-47.0,-24.0,-25.0,-55.0,63.0,-13.0,-28.0,-31.0,0.0
-75.0,-69.0,-39.0,-37.0,-49.0,-60.0,75.0,-28.0,-27.0,-22.0,0.0
-91.0,-73.0,-29.0,-62.0,-47.0,-52.0,64.0,-29.0,-22.0,-18.0,0.0
-63.0,-64.0,-20.0,-40.0,-28.0,-46.0,54.0,-22.0,-19.0,-34.0,0.0
-47.0,-60.0,-23.0,-27.0,-12.0,-46.0,45.0,-17.0,-8.0,-37.0,0.0
-34.0,-45.0,-19.0,-9.0,3.0,-38.0,25.0,2.0,-5.0,-17.0,0.0
-13.0,-20.0,4.0,14.0,16.0,-21.0,11.0,18.0,5.0,5.0,0.0
5.0,3.0,34.0,41.0,29.0,-13.0,-1.0,22.0,17.0,6.0,0.0
20.0,21.0,49.0,63.0,43.0,-11.0,-12.0,28.0,43.0,21.0,0.0
27.0,29.0,50.0,50.0,43.0,-5.0,-29.0,38.0,57.0,40.0,0.0
27.0,33.0,49.0,35.0,39.0,0.0,-53.0,36.0,43.0,32.0,0.0
14.0,21.0,36.0,25.0,38.0,-3.0,-51.0,28.0,41.0,30.0,0.0
6.0,6.0,26.0,17.0,24.0,-15.0,-39.0,29.0,33.0,32.0,0.0
0.0,-11.0,20.0,1.0,9.0,-30.0,-25.0,18.0,20.0,14.0,0.0
-28.0,-35.0,4.0,-10.0,-5.0,-46.0,-6.0,-3.0,7.0,0.0,0.0
-55.0,-60.0,-20.0,-23.0,-18.0,-48.0,-3.0,-14.0,-3.0,-4.0,0.0
-71.0,-78.0,-37.0,-20.0,-29.0,-50.0,18.0,-28.0,-3.0,-5.0,0.0
-89.0,-88.0,-38.0,-24.0,-43.0,-55.0,47.0,-45.0,-4.0,-7.0,0.0
-101.0,-89.0,-48.0,-36.0,-55.0,-63.0,47.0,-51.0,0.0,-17.0,0.0
-87.0,-80.0,-65.0,-42.0,-54.0,-62.0,42.0,-49.0,0.0,-13.0,0.0
-85.0,-62.0,-42.0,-32.0,-42.0,-56.0,36.0,-43.0,7.0,-11.0,0.0
-69.0,-46.0,-19.0,-1.0,-28.0,-45.0,24.0,-44.0,2.0,-2.0,0.0
-29.0,-2.0,9.0,8.0,-13.0,-32.0,-2.0,-30.0,9.0,18.0,0.0
11.0,54.0,37.0,18.0,3.0,-11.0,-32.0,-5.0,26.0,36.0,0.0
39.0,88.0,46.0,30.0,21.0,3.0,-45.0,-3.0,37.0,41.0,0.0
86.0,85.0,57.0,42.0,48.0,13.0,-54.0,16.0,65.0,54.0,0.0
109.0,61.0,79.0,51.0,47.0,13.0,-76.0,31.0,64.0,73.0,0.0
98.0,65.0,80.0,59.0,26.0,8.0,-82.0,23.0,35.0,71.0,0.0
82.0,65.0,62.0,46.0,5.0,21.0,-54.0,24.0,41.0,56.0,0.0
38.0,26.0,41.0,28.0,0.0,18.0,-32.0,10.0,43.0,45.0,0.0
8.0,-1.0,39.0,6.0,-11.0,14.0,-17.0,-21.0,18.0,15.0,0.0
-21.0,-11.0,26.0,0.0,-23.0,7.0,-18.0,-40.0,-11.0,-29.0,0.0
-43.0,-36.0,-3.0,-6.0,-24.0,-2.0,-10.0,-32.0,-21.0,-53.0,0.0
-58.0,-49.0,-38.0,-18.0,-28.0,5.0,32.0,-14.0,-2.0,-43.0,0.0
-75.0,-62.0,-56.0,-29.0,-52.0,-1.0,65.0,-20.0,0.0,-42.0,0.0
-69.0,-60.0,-59.0,-33.0,-50.0,-5.0,71.0,-22.0,0.0,-46.0,0.0
-52.0,-44.0,-42.0,-34.0,-30.0,2.0,66.0,-28.0,0.0,-48.0,0.0
-39.0,-37.0,-22.0,-31.0,-27.0,11.0,58.0,-20.0,1.0,-43.0,0.0
-21.0,-27.0,-10.0,-9.0,-16.0,21.0,23.0,-11.0,12.0,-33.0,0.0
-9.0,0.0,16.0,2.0,0.0,33.0,-2.0,-4.0,6.0,-17.0,0.0
8.0,20.0,35.0,19.0,7.0,37.0,-12.0,7.0,17.0,-3.0,0.0
27.0,33.0,47.0,35.0,26.0,48.0,-28.0,16.0,35.0,14.0,0.0
62.0,37.0,54.0,35.0,37.0,49.0,-50.0,22.0,27.0,25.0,0.0
72.0,53.0,59.0,33.0,53.0,44.0,-61.0,15.0,24.0,19.0,0.0
49.0,35.0,49.0,12.0,44.0,31.0,-69.0,16.0,15.0,14.0,0.0
22.0,11.0,38.0,-2.0,33.0,13.0,-55.0,23.0,-4.0,12.0,0.0
0.0,-13.0,10.0,-22.0,27.0,1.0,-37.0,0.0,-12.0,-7.0,0.0
