channel0,channel1,channel2,channel3,channel4,channel5,channel6,channel7,channel8,channel9,true_locs
5.0,32.0,24.0,29.0,16.0,7.0,-72.0,-45.0,-49.0,-18.0,0.0
-32.0,-12.0,0.0,3.0,1.0,5.0,-44.0,-46.0,-74.0,-53.0,0.0
-53.0,-36.0,-13.0,-13.0,-12.0,13.0,-5.0,-28.0,-92.0,-78.0,0.0
-50.0,-31.0,-15.0,-13.0,-11.0,23.0,-23.0,-37.0,-92.0,-77.0,0.0
-28.0,-29.0,-12.0,-23.0,-23.0,23.0,-47.0,-45.0,-77.0,-76.0,0.0
-7.0,-28.0,-10.0,-22.0,-23.0,29.0,-14.0,-31.0,-80.0,-74.0,0.0
9.0,-20.0,-5.0,-18.0,-27.0,26.0,76.0,-6.0,-70.0,-64.0,0.0
43.0,0.0,8.0,-21.0,-18.0,15.0,97.0,-7.0,-60.0,-26.0,0.0
79.0,23.0,1.0,-16.0,-20.0,-4.0,47.0,-18.0,-46.0,34.0,0.0
71.0,39.0,3.0,-18.0,-16.0,-14.0,7.0,-12.0,-34.0,68.0,0.0
54.0,33.0,11.0,-10.0,-8.0,-15.0,-2.0,-11.0,7.0,114.0,0.0
47.0,24.0,24.0,8.0,12.0,-7.0,21.0,-6.0,14.0,101.0,0.0
24.0,13.0,22.0,15.0,28.0,6.0,21.0,0.0,6.0,33.0,0.0
-3.0,-7.0,14.0,21.0,32.0,30.0,23.0,1.0,-14.0,-9.0,0.0
-14.0,-14.0,5.0,25.0,33.0,33.0,15.0,-4.0,-52.0,-12.0,0.0
6.0,-10.0,-2.0,12.0,26.0,13.0,-4.0,-18.0,-83.0,2.0,0.0
32.0,-17.0,-27.0,-17.0,-2.0,-26.0,-24.0,-10.0,-20.0,3.0,0.0
36.0,-22.0,-31.0,-38.0,-12.0,-42.0,-20.0,12.0,73.0,20.0,0.0
31.0,-17.0,-10.0,-19.0,-3.0,-20.0,-1.0,12.0,66.0,-2.0,0.0
14.0,-24.0,-7.0,-10.0,1.0,-9.0,-9.0,-3.0,18.0,-4.0,0.0
10.0,-24.0,-8.0,-17.0,-13.0,-30.0,-38.0,-10.0,12.0,8.0,0.0
8.0,-7.0,0.0,-26.0,-28.0,-47.0,-43.0,-4.0,47.0,-3.0,0.0
31.0,1.0,-8.0,-27.0,-26.0,-54.0,-39.0,3.0,91.0,43.0,0.0
47.0,-8.0,-10.0,-23.0,-22.0,-41.0,-26.0,13.0,107.0,118.0,0.0
55.0,-19.0,-19.0,-14.0,-15.0,-38.0,-14.0,8.0,83.0,164.0,0.0
69.0,-20.0,-13.0,-12.0,1.0,-35.0,-15.0,-8.0,25.0,92.0,0.0
79.0,1.0,9.0,4.0,11.0,-35.0,-9.0,-4.0,6.0,9.0,0.0
78.0,29.0,36.0,6.0,13.0,-27.0,-1.0,9.0,15.0,-3.0,0.0
55.0,41.0,37.0,-1.0,16.0,-24.0,-7.0,10.0,3.0,-1.0,0.0
-17.0,33.0,43.0,-2.0,22.0,-14.0,-8.0,10.0,19.0,11.0,0.0
-87.0,7.0,29.0,-3.0,15.0,-6.0,0.0,27.0,37.0,-22.0,0.0
-122.0,-26.0,10.0,-10.0,7.0,8.0,-2.0,27.0,11.0,-73.0,0.0
-102.0,-35.0,-2.0,-26.0,0.0,7.0,32.0,22.0,-23.0,-55.0,0.0
-46.0,-16.0,7.0,-34.0,-8.0,-8.0,54.0,17.0,-31.0,9.0,0.0
-26.0,-4.0,23.0,-22.0,-8.0,-17.0,28.0,0.0,-23.0,33.0,0.0
-31.0,-4.0,20.0,-2.0,-9.0,-17.0,-4.0,-17.0,-25.0,20.0,0.0
-28.0,-17.0,11.0,8.0,-7.0,-14.0,-23.0,-25.0,-32.0,7.0,0.0
-36.0,-7.0,-1.0,14.0,2.0,-15.0,-19.0,-42.0,-47.0,-34.0,0.0
-63.0,-19.0,-18.0,19.0,14.0,3.0,-18.0,-35.0,-34.0,-50.0,0.0
-54.0,-15.0,-13.0,24.0,17.0,-2.0,-30.0,-14.0,5.0,-22.0,0.0
-19.0,9.0,2.0,21.0,10.0,-25.0,-47.0,-6.0,51.0,56.0,0.0
5.0,5.0,1.0,1.0,11.0,-36.0,-50.0,-6.0,54.0,120.0,0.0
17.0,13.0,5.0,-17.0,10.0,-28.0,-26.0,-8.0,0.0,113.0,0.0
2.0,22.0,7.0,-17.0,18.0,-9.0,-2.0,-16.0,-65.0,45.0,0.0
-37.0,0.0,14.0,-11.0,18.0,4.0,36.0,-31.0,-115.0,-106.0,0.0
-37.0,9.0,18.0,-6.0,17.0,12.0,97.0,7.0,-57.0,-154.0,0.0
3.0,40.0,37.0,9.0,15.0,0.0,82.0,30.0,34.0,-104.0,0.0
18.0,50.0,47.0,23.0,23.0,-8.0,35.0,3.0,26.0,-91.0,0.0
10.0,28.0,29.0,22.0,13.0,-14.0,19.0,1.0,-11.0,-90.0,0.0
-9.0,4.0,34.0,19.0,11.0,-7.0,30.0,16.0,-30.0,-93.0,0.0
-35.0,-17.0,14.0,14.0,9.0,2.0,49.0,18.0,-20.0,-97.0,0.0
-52.0,-27.0,-12.0,6.0,3.0,4.0,35.0,13.0,0.0,-92.0,0.0
-54.0,-25.0,-14.0,1.0,4.0,0.0,21.0,7.0,-2.0,-88.0,0.0
-58.0,-29.0,-6.0,-3.0,3.0,-1.0,19.0,6.0,-20.0,-94.0,0.0
-51.0,-25.0,-9.0,-8.0,-3.0,-9.0,1.0,-1.0,-44.0,-82.0,0.0
-34.0,-18.0,-11.0,-10.0,-16.0,-14.0,-2.0,0.0,-45.0,-71.0,0.0
-2.0,-11.0,-5.0,-20.0,-18.0,-14.0,-16.0,-14.0,1.0,-47.0,0.0
34.0,4.0,-10.0,-14.0,-29.0,-31.0,-30.0,0.0,84.0,17.0,0.0
56.0,19.0,3.0,2.0,-29.0,-36.0,-18.0,17.0,101.0,35.0,0.0
60.0,35.0,20.0,5.0,-25.0,-28.0,-14.0,5.0,63.0,24.0,0.0
60.0,33.0,8.0,-12.0,-20.0,-32.0,-15.0,0.0,39.0,27.0,0.0
56.0,25.0,0.0,-9.0,-24.0,-23.0,-7.0,9.0,28.0,44.0,0.0
48.0,11.0,2.0,0.0,-13.0,-7.0,6.0,17.0,28.0,24.0,0.0
35.0,12.0,-3.0,0.0,-9.0,-12.0,-1.0,9.0,22.0,9.0,0.0
27.0,10.0,-1.0,1.0,-18.0,-22.0,-14.0,-8.0,11.0,19.0,0.0
34.0,8.0,15.0,4.0,-19.0,-8.0,-8.0,-27.0,-22.0,51.0,0.0
101.0,29.0,23.0,11.0,-4.0,3.0,-26.0,-72.0,-89.0,56.0,0.0
47.0,3.0,14.0,19.0,3.0,5.0,-42.0,-62.0,-89.0,40.0,0.0
9.0,-1.0,7.0,14.0,19.0,2.0,-44.0,-40.0,-49.0,-17.0,0.0
21.0,33.0,36.0,23.0,34.0,0.0,-54.0,-3.0,48.0,8.0,0.0
11.0,61.0,55.0,43.0,36.0,-13.0,-54.0,18.0,99.0,54.0,0.0
-5.0,45.0,45.0,59.0,47.0,-10.0,-56.0,29.0,96.0,88.0,0.0
-12.0,13.0,31.0,52.0,51.0,0.0,-48.0,33.0,76.0,89.0,0.0
-79.0,-40.0,-22.0,-12.0,2.0,8.0,69.0,22.0,-9.0,-17.0,0.0
-118.0,-73.0,-70.0,-45.0,-29.0,15.0,160.0,17.0,-64.0,-93.0,0.0
-83.0,-41.0,-46.0,-21.0,-20.0,15.0,109.0,5.0,-55.0,-75.0,0.0
-60.0,-21.0,-28.0,-5.0,-15.0,18.0,79.0,3.0,-51.0,-56.0,0.0
-59.0,-9.0,-19.0,-7.0,-1.0,21.0,99.0,18.0,-33.0,-77.0,0.0
-50.0,1.0,-9.0,-20.0,6.0,20.0,97.0,23.0,-18.0,-67.0,0.0
-34.0,1.0,-4.0,-20.0,0.0,13.0,69.0,19.0,-3.0,-22.0,0.0
-17.0,16.0,0.0,-18.0,-10.0,7.0,40.0,9.0,-4.0,5.0,0.0
-35.0,20.0,-23.0,-25.0,-5.0,20.0,37.0,-6.0,-21.0,-9.0,0.0
-41.0,1.0,-31.0,-29.0,-6.0,25.0,50.0,-23.0,-53.0,-30.0,0.0
-39.0,-15.0,-29.0,-16.0,-19.0,20.0,43.0,-38.0,-101.0,-67.0,0.0
-41.0,-29.0,-22.0,-1.0,-21.0,3.0,9.0,-50.0,-109.0,-59.0,0.0
-39.0,-22.0,-18.0,-9.0,-20.0,-1.0,11.0,-34.0,-72.0,0.0,0.0
-43.0,5.0,-6.0,1.0,-7.0,10.0,22.0,-11.0,-33.0,0.0,0.0
-70.0,8.0,-10.0,11.0,-3.0,7.0,11.0,16.0,18.0,-20.0,0.0
-79.0,-2.0,-32.0,-14.0,-10.0,-5.0,2.0,15.0,49.0,-9.0,0.0
-40.0,14.0,-32.0,-5.0,-16.0,-8.0,-7.0,0.0,24.0,1.0,0.0
27.0,52.0,-7.0,7.0,-16.0,-5.0,-23.0,-8.0,25.0,38.0,0.0
75.0,57.0,2.0,21.0,-8.0,3.0,-23.0,-11.0,53.0,96.0,0.0
78.0,58.0,22.0,23.0,0.0,14.0,-17.0,-14.0,26.0,98.0,0.0
72.0,64.0,25.0,7.0,0.0,16.0,-14.0,-20.0,4.0,79.0,0.0
43.0,59.0,13.0,13.0,-8.0,13.0,-11.0,-19.0,-17.0,42.0,0.0
-28.0,33.0,12.0,29.0,-3.0,26.0,2.0,-17.0,-37.0,-34.0,0.0
-98.0,-5.0,6.0,25.0,12.0,39.0,20.0,-6.0,-54.0,-88.0,0.0
-114.0,-43.0,-8.0,9.0,2.0,30.0,13.0,23.0,-4.0,-39.0,0.0
-91.0,-56.0,-16.0,0.0,-11.0,15.0,3.0,32.0,36.0,51.0,0.0
-66.0,-45.0,-8.0,0.0,-16.0,7.0,4.0,23.0,34.0,79.0,0.0
-23.0,-26.0,1.0,-2.0,-16.0,-5.0,-11.0,10.0,37.0,114.0,1.0
17.0,2.0,20.0,7.0,-10.0,-6.0,-39.0,-3.0,19.0,138.0,1.0
45.0,19.0,23.0,19.0,-8.0,0.0,-56.0,-12.0,6.0,136.0,1.0
57.0,28.0,11.0,4.0,-3.0,-3.0,-67.0,-1.0,1.0,140.0,1.0
40.0,25.0,5.0,-9.0,-4.0,-2.0,-57.0,15.0,24.0,121.0,1.0
6.0,3.0,7.0,6.0,9.0,7.0,-27.0,36.0,60.0,73.0,1.0
-41.0,7.0,16.0,17.0,21.0,11.0,-5.0,31.0,62.0,10.0,1.0
-69.0,-4.0,3.0,0.0,11.0,-6.0,-33.0,0.0,52.0,21.0,1.0
-62.0,-13.0,0.0,-27.0,-13.0,-15.0,-70.0,-20.0,32.0,103.0,1.0
-49.0,-17.0,-17.0,-1.0,-4.0,6.0,-59.0,-32.0,-21.0,62.0,1.0
-31.0,-4.0,4.0,30.0,12.0,30.0,-7.0,-34.0,-54.0,-35.0,1.0
-12.0,6.0,21.0,38.0,36.0,41.0,15.0,-23.0,-65.0,-62.0,1.0
-20.0,0.0,24.0,36.0,45.0,41.0,-21.0,-43.0,-88.0,-74.0,1.0
-29.0,-4.0,31.0,45.0,33.0,39.0,-43.0,-56.0,-97.0,-92.0,1.0
-31.0,-6.0,14.0,47.0,19.0,36.0,-26.0,-26.0,-87.0,-103.0,1.0
-48.0,-2.0,17.0,36.0,5.0,41.0,18.0,-12.0,-81.0,-90.0,1.0
-61.0,7.0,6.0,31.0,8.0,57.0,97.0,9.0,-68.0,-73.0,1.0
-35.0,19.0,10.0,43.0,16.0,49.0,101.0,12.0,-51.0,-37.0,1.0
0.0,17.0,0.0,37.0,8.0,9.0,17.0,-5.0,-20.0,14.0,0.0
29.0,14.0,-6.0,22.0,2.0,0.0,-25.0,6.0,20.0,58.0,0.0
67.0,34.0,2.0,26.0,3.0,1.0,-24.0,19.0,45.0,105.0,0.0
104.0,51.0,15.0,19.0,6.0,0.0,-20.0,9.0,53.0,139.0,0.0
110.0,43.0,16.0,12.0,5.0,2.0,-35.0,-3.0,57.0,163.0,0.0
103.0,32.0,4.0,18.0,-6.0,-9.0,-46.0,-2.0,60.0,198.0,0.0
59.0,3.0,-32.0,-8.0,-31.0,-27.0,-11.0,-5.0,11.0,172.0,0.0
-10.0,-32.0,-53.0,-30.0,-41.0,-12.0,49.0,-17.0,-62.0,25.0,0.0
-22.0,-17.0,-12.0,-10.0,-17.0,9.0,74.0,-3.0,-51.0,-57.0,0.0
-27.0,1.0,6.0,9.0,-7.0,22.0,54.0,27.0,46.0,-60.0,0.0
-35.0,10.0,7.0,21.0,8.0,32.0,31.0,39.0,104.0,-65.0,0.0
-8.0,5.0,12.0,27.0,24.0,30.0,17.0,18.0,77.0,-50.0,0.0
16.0,10.0,22.0,21.0,28.0,13.0,-12.0,-6.0,42.0,-17.0,0.0
32.0,9.0,10.0,23.0,10.0,0.0,-41.0,-17.0,52.0,14.0,0.0
43.0,25.0,3.0,18.0,4.0,-7.0,-50.0,-24.0,63.0,25.0,0.0
31.0,19.0,-20.0,24.0,2.0,-3.0,-56.0,-35.0,27.0,-6.0,0.0
11.0,-1.0,-19.0,36.0,2.0,13.0,-52.0,-38.0,-7.0,-36.0,0.0
-23.0,-24.0,-26.0,27.0,-10.0,18.0,-61.0,-36.0,-14.0,-47.0,0.0
-33.0,-43.0,-36.0,12.0,-5.0,26.0,-55.0,-28.0,-13.0,-44.0,0.0
-9.0,-23.0,-32.0,-7.0,-9.0,35.0,-28.0,-16.0,-2.0,-11.0,0.0
32.0,19.0,-11.0,-17.0,-15.0,24.0,30.0,-6.0,16.0,16.0,0.0
53.0,50.0,-1.0,-3.0,-12.0,6.0,79.0,4.0,31.0,34.0,0.0
61.0,48.0,-6.0,16.0,-13.0,-13.0,44.0,-1.0,35.0,51.0,0.0
66.0,36.0,7.0,23.0,-13.0,-24.0,0.0,-39.0,5.0,33.0,0.0
79.0,42.0,10.0,1.0,-26.0,-31.0,-27.0,-66.0,-36.0,19.0,0.0
82.0,31.0,18.0,-10.0,-27.0,-24.0,-42.0,-61.0,-55.0,23.0,0.0
56.0,17.0,27.0,-4.0,-22.0,-3.0,-46.0,-42.0,-55.0,7.0,0.0
11.0,11.0,35.0,18.0,-6.0,14.0,-33.0,-28.0,-56.0,-30.0,0.0
-33.0,-2.0,25.0,35.0,0.0,22.0,6.0,-16.0,-66.0,-74.0,0.0
-72.0,-7.0,33.0,56.0,5.0,37.0,48.0,-6.0,-47.0,-86.0,0.0
-85.0,-7.0,41.0,65.0,9.0,25.0,0.0,-7.0,33.0,-55.0,0.0
-62.0,-7.0,39.0,46.0,6.0,14.0,-33.0,-30.0,68.0,-28.0,0.0
-55.0,-36.0,-13.0,1.0,-18.0,5.0,-8.0,-41.0,8.0,-20.0,0.0
-48.0,-38.0,-37.0,-19.0,-23.0,4.0,-18.0,-41.0,-19.0,0.0,0.0
-35.0,-38.0,-37.0,-30.0,-17.0,6.0,-35.0,-38.0,-10.0,10.0,0.0
-20.0,-56.0,-54.0,-44.0,-20.0,-5.0,-18.0,6.0,57.0,61.0,0.0
8.0,-50.0,-40.0,-41.0,-12.0,-6.0,-11.0,69.0,132.0,135.0,0.0
56.0,-10.0,-20.0,-25.0,8.0,-8.0,-31.0,79.0,125.0,189.0,0.0
85.0,9.0,-15.0,-14.0,9.0,-9.0,-49.0,43.0,94.0,200.0,0.0
78.0,-7.0,-33.0,-27.0,-7.0,-11.0,-17.0,17.0,43.0,144.0,0.0
60.0,0.0,-26.0,-22.0,-3.0,-7.0,8.0,0.0,27.0,87.0,0.0
47.0,17.0,13.0,-14.0,15.0,0.0,16.0,-5.0,23.0,55.0,0.0
-21.0,0.0,6.0,-18.0,13.0,14.0,41.0,16.0,10.0,-4.0,0.0
-108.0,-53.0,-34.0,-47.0,-11.0,19.0,131.0,38.0,-36.0,-91.0,0.0
-107.0,-57.0,-34.0,-37.0,0.0,23.0,155.0,46.0,-36.0,-70.0,0.0
-83.0,-39.0,-20.0,-10.0,7.0,12.0,95.0,31.0,-7.0,-11.0,0.0
-71.0,-18.0,-23.0,-1.0,0.0,7.0,55.0,19.0,2.0,6.0,0.0
-51.0,-1.0,-27.0,-7.0,0.0,2.0,23.0,12.0,-2.0,47.0,0.0
-41.0,0.0,-31.0,-11.0,3.0,3.0,18.0,12.0,-7.0,57.0,0.0
-12.0,0.0,-15.0,4.0,1.0,13.0,28.0,11.0,9.0,29.0,0.0
4.0,-19.0,-26.0,0.0,-3.0,11.0,9.0,4.0,7.0,31.0,0.0
24.0,-15.0,-15.0,0.0,-4.0,12.0,-2.0,-3.0,-1.0,102.0,0.0
60.0,-10.0,-9.0,-16.0,-7.0,-6.0,5.0,-20.0,-3.0,218.0,0.0
73.0,-14.0,-17.0,-40.0,-11.0,-10.0,11.0,-27.0,-36.0,209.0,0.0
77.0,-3.0,0.0,-34.0,6.0,-6.0,6.0,-21.0,-58.0,113.0,0.0
67.0,10.0,10.0,-11.0,14.0,-2.0,-8.0,-23.0,-68.0,39.0,0.0
16.0,10.0,11.0,-9.0,10.0,4.0,8.0,-12.0,-44.0,-56.0,0.0
-47.0,-30.0,11.0,9.0,16.0,4.0,36.0,9.0,-13.0,-141.0,0.0
-51.0,-34.0,12.0,25.0,34.0,17.0,45.0,14.0,-23.0,-160.0,0.0
16.0,2.0,23.0,33.0,24.0,15.0,39.0,10.0,4.0,-83.0,0.0
79.0,40.0,30.0,37.0,13.0,7.0,24.0,7.0,36.0,-14.0,0.0
79.0,48.0,38.0,47.0,15.0,1.0,3.0,8.0,35.0,4.0,0.0
65.0,49.0,40.0,51.0,23.0,3.0,-9.0,17.0,20.0,-16.0,0.0
31.0,35.0,54.0,46.0,35.0,11.0,-5.0,9.0,-22.0,-68.0,0.0
-33.0,10.0,33.0,21.0,31.0,27.0,16.0,10.0,-50.0,-110.0,0.0
-112.0,-28.0,-5.0,10.0,21.0,27.0,34.0,5.0,-80.0,-190.0,0.0
-134.0,-45.0,-9.0,2.0,26.0,12.0,34.0,2.0,-69.0,-235.0,0.0
-95.0,-34.0,-2.0,-1.0,31.0,0.0,27.0,23.0,-24.0,-171.0,0.0
-62.0,-28.0,-14.0,-10.0,18.0,2.0,21.0,31.0,-8.0,-125.0,0.0
-32.0,-13.0,-14.0,-5.0,16.0,1.0,17.0,17.0,-15.0,-92.0,0.0
0.0,3.0,-2.0,-3.0,31.0,0.0,3.0,-1.0,-17.0,-54.0,0.0
2.0,14.0,20.0,-5.0,42.0,5.0,4.0,-7.0,-31.0,-42.0,0.0
4.0,13.0,18.0,10.0,48.0,12.0,-2.0,-7.0,-51.0,-38.0,0.0
20.0,13.0,12.0,4.0,42.0,8.0,0.0,0.0,-75.0,-37.0,0.0
29.0,25.0,12.0,6.0,40.0,18.0,29.0,4.0,-77.0,-44.0,0.0
33.0,34.0,13.0,7.0,37.0,19.0,58.0,3.0,-84.0,-52.0,0.0
23.0,32.0,15.0,4.0,37.0,10.0,33.0,-19.0,-93.0,-53.0,0.0
17.0,31.0,22.0,12.0,29.0,-18.0,7.0,-38.0,-99.0,-35.0,0.0
27.0,13.0,14.0,-8.0,15.0,-14.0,-4.0,-26.0,-68.0,29.0,0.0
22.0,15.0,6.0,-12.0,4.0,-5.0,-14.0,-10.0,13.0,67.0,0.0
0.0,28.0,26.0,7.0,9.0,-3.0,-28.0,12.0,66.0,39.0,0.0
-21.0,34.0,19.0,19.0,20.0,8.0,-24.0,5.0,41.0,-29.0,0.0
-10.0,32.0,19.0,16.0,20.0,3.0,-20.0,-5.0,44.0,-16.0,0.0
-1.0,21.0,9.0,-1.0,7.0,-5.0,-12.0,2.0,58.0,39.0,0.0
15.0,16.0,27.0,-2.0,21.0,0.0,8.0,1.0,51.0,32.0,0.0
29.0,32.0,25.0,20.0,39.0,10.0,14.0,5.0,17.0,-9.0,0.0
25.0,37.0,19.0,26.0,51.0,11.0,7.0,0.0,-1.0,-39.0,0.0
21.0,21.0,1.0,13.0,43.0,21.0,25.0,17.0,-9.0,-35.0,0.0
24.0,2.0,-13.0,2.0,32.0,23.0,32.0,41.0,-1.0,-11.0,0.0
9.0,-39.0,-49.0,-17.0,16.0,3.0,5.0,42.0,29.0,33.0,0.0
0.0,-70.0,-75.0,-40.0,-14.0,-25.0,-24.0,44.0,130.0,158.0,0.0
28.0,-57.0,-65.0,-37.0,-15.0,-23.0,-20.0,70.0,218.0,235.0,0.0
54.0,-32.0,-42.0,-21.0,0.0,1.0,-7.0,79.0,213.0,188.0,0.0
73.0,6.0,-22.0,5.0,18.0,14.0,-11.0,48.0,128.0,113.0,0.0
58.0,47.0,-8.0,16.0,27.0,22.0,-21.0,14.0,37.0,32.0,0.0
33.0,72.0,14.0,18.0,29.0,23.0,-24.0,-3.0,-4.0,-7.0,0.0
18.0,47.0,14.0,18.0,14.0,14.0,-31.0,8.0,-15.0,-15.0,0.0
12.0,14.0,9.0,11.0,14.0,12.0,-22.0,8.0,-10.0,-15.0,0.0
0.0,5.0,4.0,8.0,19.0,7.0,-13.0,-11.0,-11.0,-36.0,0.0
-13.0,14.0,-2.0,5.0,20.0,0.0,-22.0,-19.0,-15.0,-50.0,0.0
-12.0,-12.0,-18.0,-2.0,3.0,-10.0,-18.0,-16.0,-1.0,-26.0,0.0
4.0,-36.0,-38.0,1.0,-2.0,-8.0,-21.0,-5.0,5.0,-23.0,0.0
8.0,-36.0,-30.0,8.0,3.0,-1.0,-13.0,1.0,-4.0,-20.0,0.0
16.0,-20.0,-20.0,10.0,4.0,-7.0,-5.0,6.0,-17.0,-25.0,0.0
23.0,-11.0,-11.0,11.0,3.0,-18.0,-8.0,-5.0,-31.0,-18.0,0.0
17.0,-12.0,0.0,4.0,-3.0,-12.0,0.0,-8.0,-15.0,-6.0,0.0
15.0,-25.0,-2.0,-11.0,-6.0,-7.0,-12.0,0.0,16.0,-9.0,0.0
13.0,-24.0,2.0,-18.0,-9.0,-8.0,-14.0,19.0,28.0,-10.0,0.0
15.0,-14.0,-13.0,-11.0,-16.0,-15.0,-18.0,16.0,18.0,-8.0,0.0
11.0,-3.0,-8.0,7.0,-14.0,-12.0,-28.0,12.0,5.0,-14.0,0.0
19.0,8.0,14.0,29.0,0.0,-7.0,-39.0,-8.0,6.0,-12.0,0.0
20.0,4.0,31.0,37.0,6.0,-15.0,-48.0,-7.0,12.0,11.0,0.0
37.0,13.0,0.0,19.0,-3.0,-19.0,-73.0,-15.0,20.0,31.0,0.0
45.0,-7.0,-27.0,-1.0,-13.0,-16.0,-78.0,-23.0,10.0,36.0,0.0
45.0,-24.0,-42.0,-5.0,-23.0,-3.0,-62.0,-37.0,-9.0,37.0,0.0
63.0,-15.0,-29.0,2.0,-26.0,0.0,-14.0,-44.0,-26.0,58.0,0.0
86.0,14.0,-6.0,18.0,-20.0,-8.0,74.0,-26.0,-44.0,48.0,0.0
59.0,16.0,15.0,13.0,-11.0,-5.0,96.0,-24.0,-69.0,-45.0,0.0
0.0,-11.0,41.0,16.0,13.0,11.0,54.0,-19.0,-77.0,-125.0,0.0
-24.0,-21.0,56.0,27.0,21.0,28.0,40.0,2.0,-63.0,-133.0,0.0
-37.0,-14.0,45.0,49.0,29.0,25.0,33.0,21.0,-51.0,-134.0,0.0
-59.0,-20.0,43.0,57.0,29.0,31.0,25.0,17.0,-69.0,-155.0,0.0
-48.0,-18.0,46.0,47.0,28.0,28.0,5.0,6.0,-59.0,-136.0,0.0
-7.0,0.0,13.0,35.0,16.0,18.0,-32.0,0.0,-9.0,-73.0,0.0
15.0,-4.0,-8.0,13.0,5.0,-8.0,-63.0,-17.0,23.0,-10.0,0.0
66.0,-3.0,-17.0,-4.0,-1.0,-42.0,-92.0,-37.0,26.0,44.0,0.0
126.0,11.0,-33.0,-11.0,-11.0,-48.0,-113.0,-31.0,14.0,78.0,0.0
130.0,-3.0,-24.0,-9.0,-23.0,-32.0,-98.0,-31.0,17.0,75.0,0.0
76.0,-18.0,-20.0,-19.0,-28.0,-18.0,-51.0,-31.0,10.0,24.0,0.0
-13.0,-35.0,-21.0,-13.0,-25.0,0.0,34.0,-14.0,-19.0,-43.0,0.0
-121.0,-71.0,-29.0,-10.0,-13.0,21.0,112.0,25.0,-9.0,-86.0,0.0
-179.0,-70.0,-21.0,7.0,19.0,49.0,143.0,35.0,-18.0,-165.0,0.0
-162.0,-59.0,11.0,-1.0,30.0,48.0,110.0,18.0,-6.0,-183.0,0.0
-119.0,-51.0,11.0,4.0,12.0,21.0,104.0,28.0,79.0,-108.0,0.0
-83.0,-26.0,17.0,21.0,11.0,20.0,119.0,41.0,90.0,-59.0,0.0
-56.0,-8.0,16.0,2.0,19.0,15.0,101.0,44.0,53.0,-53.0,0.0
-31.0,11.0,2.0,3.0,31.0,10.0,74.0,56.0,31.0,-39.0,0.0
-16.0,5.0,-2.0,3.0,22.0,1.0,36.0,46.0,43.0,-26.0,0.0
-3.0,3.0,-10.0,-9.0,6.0,-10.0,20.0,42.0,62.0,-26.0,0.0
10.0,2.0,-13.0,-14.0,-2.0,-5.0,26.0,35.0,73.0,-24.0,0.0
9.0,14.0,-8.0,-15.0,-2.0,-3.0,19.0,19.0,64.0,-5.0,0.0
3.0,15.0,-1.0,-18.0,3.0,2.0,6.0,12.0,37.0,24.0,0.0
6.0,14.0,7.0,-13.0,2.0,2.0,-3.0,5.0,11.0,43.0,0.0
10.0,19.0,13.0,-16.0,-1.0,-3.0,-19.0,10.0,-2.0,13.0,0.0
6.0,20.0,18.0,-18.0,3.0,-10.0,-22.0,0.0,5.0,-26.0,0.0
11.0,18.0,18.0,-14.0,-7.0,-7.0,-13.0,-3.0,-13.0,-30.0,0.0
37.0,29.0,19.0,-17.0,-12.0,-8.0,-21.0,-10.0,-41.0,-19.0,0.0
48.0,27.0,14.0,-20.0,-9.0,3.0,-21.0,-16.0,-47.0,-10.0,0.0
46.0,30.0,9.0,-22.0,-15.0,10.0,-17.0,-17.0,-47.0,-6.0,0.0
53.0,33.0,10.0,2.0,-15.0,12.0,-16.0,-8.0,-35.0,1.0,0.0
43.0,29.0,22.0,20.0,-4.0,13.0,-24.0,-3.0,-20.0,18.0,0.0
17.0,18.0,18.0,27.0,-1.0,23.0,-19.0,-1.0,1.0,35.0,0.0
23.0,21.0,26.0,27.0,0.0,15.0,-30.0,4.0,4.0,73.0,0.0
40.0,26.0,38.0,21.0,-1.0,-12.0,-42.0,-4.0,-11.0,99.0,0.0
24.0,22.0,12.0,19.0,-6.0,-13.0,-48.0,-5.0,0.0,74.0,0.0
-9.0,0.0,-5.0,25.0,-3.0,-7.0,-50.0,10.0,68.0,55.0,0.0
-5.0,4.0,8.0,34.0,9.0,4.0,-55.0,17.0,44.0,14.0,0.0
-13.0,-20.0,8.0,24.0,2.0,30.0,-2.0,4.0,-24.0,-45.0,0.0
-40.0,-61.0,-20.0,11.0,-12.0,36.0,53.0,1.0,-89.0,-93.0,0.0
-39.0,-55.0,-25.0,11.0,-10.0,30.0,42.0,-14.0,-107.0,-123.0,0.0
-47.0,-19.0,-19.0,-4.0,-14.0,5.0,5.0,-40.0,-118.0,-135.0,0.0
-60.0,-14.0,-10.0,-12.0,-14.0,-1.0,8.0,-24.0,-108.0,-110.0,0.0
-60.0,-28.0,-15.0,-13.0,-17.0,-14.0,20.0,-9.0,-81.0,-81.0,0.0
-46.0,-23.0,-34.0,-12.0,-20.0,-17.0,0.0,-3.0,-47.0,-51.0,0.0
-16.0,-11.0,-33.0,-10.0,-23.0,-12.0,-27.0,15.0,36.0,13.0,0.0
18.0,12.0,-8.0,-22.0,-12.0,-16.0,-59.0,15.0,117.0,91.0,0.0
59.0,32.0,0.0,-33.0,-11.0,-26.0,-98.0,0.0,120.0,186.0,0.0
61.0,23.0,0.0,-37.0,-18.0,-36.0,-126.0,-8.0,121.0,280.0,0.0
28.0,3.0,-7.0,-14.0,-23.0,-45.0,-130.0,-11.0,101.0,209.0,0.0
11.0,15.0,18.0,16.0,-2.0,-28.0,-113.0,-4.0,38.0,-21.0,0.0
23.0,46.0,65.0,40.0,21.0,-7.0,-80.0,12.0,6.0,-111.0,0.0
-10.0,32.0,34.0,36.0,34.0,8.0,-19.0,29.0,-47.0,-165.0,0.0
-98.0,-50.0,-55.0,-25.0,-9.0,23.0,108.0,46.0,-113.0,-233.0,0.0
-114.0,-90.0,-84.0,-44.0,-41.0,24.0,191.0,52.0,-109.0,-178.0,0.0
-60.0,-67.0,-76.0,-29.0,-49.0,8.0,139.0,19.0,-88.0,-92.0,0.0
-2.0,-28.0,-51.0,-29.0,-45.0,-19.0,72.0,6.0,-47.0,4.0,0.0
26.0,1.0,-38.0,-29.0,-51.0,-23.0,42.0,8.0,8.0,89.0,0.0
28.0,4.0,-19.0,-24.0,-43.0,-24.0,20.0,-2.0,15.0,86.0,0.0
21.0,0.0,-7.0,-25.0,-44.0,-22.0,7.0,-10.0,11.0,58.0,0.0
-12.0,-13.0,-8.0,-27.0,-41.0,-16.0,-7.0,1.0,40.0,79.0,0.0
-87.0,-69.0,-31.0,-27.0,-35.0,0.0,16.0,20.0,50.0,49.0,0.0
-131.0,-77.0,-34.0,-21.0,-25.0,15.0,60.0,51.0,53.0,18.0,0.0
-124.0,-52.0,-24.0,-2.0,-21.0,16.0,73.0,50.0,43.0,33.0,0.0
-98.0,-44.0,-14.0,1.0,-17.0,15.0,54.0,31.0,22.0,51.0,0.0
-61.0,-24.0,-18.0,7.0,-5.0,9.0,29.0,15.0,9.0,77.0,0.0
-32.0,-11.0,-16.0,15.0,-12.0,12.0,13.0,12.0,15.0,93.0,0.0
-9.0,-7.0,-10.0,7.0,-19.0,11.0,10.0,20.0,11.0,99.0,0.0
7.0,1.0,-7.0,3.0,-9.0,14.0,4.0,17.0,22.0,95.0,0.0
21.0,19.0,-12.0,-5.0,-6.0,12.0,1.0,15.0,25.0,89.0,0.0
31.0,16.0,-12.0,-11.0,-13.0,6.0,12.0,15.0,16.0,84.0,0.0
31.0,25.0,-20.0,-5.0,-18.0,14.0,26.0,0.0,-22.0,22.0,0.0
0.0,12.0,-14.0,0.0,-12.0,21.0,25.0,-18.0,-60.0,-81.0,0.0
-42.0,0.0,-8.0,-4.0,8.0,23.0,27.0,-11.0,-54.0,-129.0,0.0
-71.0,-3.0,-6.0,-1.0,13.0,33.0,30.0,10.0,-36.0,-152.0,0.0
-61.0,-3.0,-2.0,11.0,12.0,47.0,35.0,14.0,-31.0,-137.0,0.0
-45.0,-19.0,4.0,4.0,10.0,40.0,35.0,10.0,-35.0,-85.0,0.0
-26.0,-18.0,-9.0,7.0,-2.0,33.0,21.0,-7.0,-36.0,-29.0,0.0
-2.0,-9.0,-2.0,21.0,-6.0,31.0,8.0,-6.0,-31.0,-6.0,0.0
11.0,-1.0,-4.0,17.0,-14.0,26.0,1.0,-3.0,-8.0,-16.0,0.0
18.0,-13.0,-8.0,4.0,-23.0,8.0,-17.0,-2.0,60.0,-5.0,0.0
24.0,-25.0,-21.0,-2.0,-20.0,-2.0,-29.0,16.0,135.0,59.0,0.0
35.0,-1.0,-15.0,3.0,-14.0,1.0,-32.0,24.0,123.0,100.0,0.0
29.0,38.0,25.0,23.0,-2.0,2.0,-36.0,0.0,52.0,65.0,0.0
9.0,50.0,29.0,23.0,3.0,1.0,-37.0,-19.0,4.0,40.0,0.0
-2.0,38.0,17.0,21.0,16.0,12.0,-19.0,-14.0,1.0,15.0,0.0
9.0,29.0,14.0,15.0,19.0,16.0,-8.0,-8.0,1.0,-7.0,0.0
20.0,29.0,19.0,10.0,13.0,14.0,-8.0,-21.0,-13.0,-13.0,0.0
13.0,29.0,19.0,12.0,8.0,6.0,-11.0,-19.0,-19.0,-20.0,0.0
21.0,18.0,21.0,8.0,19.0,5.0,-4.0,-13.0,-15.0,-14.0,0.0
27.0,24.0,21.0,9.0,10.0,4.0,-5.0,-9.0,-8.0,2.0,0.0
28.0,22.0,23.0,1.0,8.0,4.0,0.0,-16.0,-3.0,29.0,0.0
26.0,1.0,24.0,4.0,0.0,1.0,-6.0,-12.0,-10.0,27.0,0.0
29.0,-12.0,29.0,18.0,-2.0,3.0,-11.0,-7.0,-7.0,26.0,0.0
21.0,4.0,23.0,19.0,8.0,-6.0,-16.0,-7.0,-1.0,23.0,0.0
-4.0,13.0,31.0,15.0,14.0,-5.0,-28.0,-15.0,-9.0,-14.0,0.0
0.0,17.0,23.0,3.0,14.0,3.0,-24.0,-23.0,-25.0,-29.0,0.0
18.0,12.0,9.0,-1.0,6.0,-5.0,-15.0,-22.0,-23.0,-19.0,0.0
49.0,15.0,11.0,10.0,4.0,-3.0,0.0,-10.0,-16.0,-5.0,0.0
59.0,8.0,12.0,-2.0,-9.0,-3.0,0.0,-5.0,-6.0,60.0,0.0
52.0,-3.0,14.0,-11.0,-11.0,-14.0,-7.0,-21.0,-22.0,90.0,0.0
59.0,10.0,30.0,-6.0,-2.0,-10.0,-3.0,-26.0,-51.0,55.0,0.0
45.0,19.0,33.0,1.0,-8.0,-11.0,10.0,-20.0,-57.0,-6.0,0.0
13.0,4.0,34.0,-1.0,-7.0,10.0,26.0,-3.0,-37.0,-56.0,0.0
7.0,-1.0,33.0,7.0,17.0,17.0,37.0,4.0,-8.0,-45.0,0.0
26.0,16.0,30.0,0.0,9.0,-1.0,30.0,-7.0,-13.0,-20.0,0.0
61.0,39.0,25.0,-14.0,-7.0,-14.0,1.0,-24.0,-9.0,-1.0,0.0
71.0,35.0,19.0,-27.0,-14.0,-33.0,-13.0,-27.0,18.0,48.0,0.0
47.0,0.0,-13.0,-61.0,-25.0,-56.0,-7.0,-9.0,56.0,83.0,0.0
20.0,-12.0,-21.0,-58.0,-26.0,-48.0,0.0,18.0,48.0,59.0,0.0
-19.0,-22.0,-10.0,-50.0,-22.0,-37.0,-5.0,16.0,14.0,9.0,0.0
-58.0,-29.0,-5.0,-45.0,-15.0,-32.0,-20.0,-5.0,-39.0,-29.0,0.0
-30.0,-15.0,-7.0,-34.0,-16.0,-33.0,-23.0,-24.0,-59.0,-6.0,0.0
60.0,-7.0,-1.0,-55.0,-36.0,-67.0,-51.0,-34.0,-38.0,76.0,0.0
167.0,9.0,-6.0,-45.0,-51.0,-81.0,-72.0,-16.0,39.0,163.0,0.0
214.0,39.0,9.0,-6.0,-39.0,-64.0,-59.0,-17.0,56.0,162.0,0.0
178.0,50.0,16.0,25.0,-25.0,-52.0,-42.0,-20.0,20.0,91.0,0.0
94.0,42.0,20.0,41.0,-11.0,-32.0,-28.0,0.0,-1.0,29.0,0.0
-7.0,19.0,22.0,53.0,9.0,-6.0,-23.0,0.0,-22.0,-39.0,0.0
-63.0,0.0,32.0,59.0,15.0,9.0,-18.0,-4.0,-28.0,-75.0,0.0
-73.0,-7.0,18.0,66.0,21.0,13.0,-31.0,4.0,3.0,-43.0,0.0
-68.0,-28.0,35.0,65.0,16.0,5.0,-42.0,28.0,99.0,21.0,0.0
-61.0,-44.0,31.0,52.0,23.0,0.0,-58.0,28.0,126.0,10.0,0.0
-75.0,-67.0,0.0,31.0,19.0,3.0,-77.0,8.0,50.0,-131.0,0.0
-93.0,-80.0,-24.0,12.0,1.0,6.0,-57.0,21.0,22.0,-224.0,0.0
-94.0,-65.0,-29.0,-1.0,-18.0,18.0,23.0,63.0,3.0,-202.0,0.0
-73.0,-30.0,-11.0,-4.0,-11.0,36.0,95.0,56.0,-10.0,-175.0,0.0
-58.0,-15.0,16.0,0.0,-3.0,46.0,109.0,19.0,-10.0,-130.0,0.0
-46.0,-20.0,13.0,5.0,0.0,49.0,110.0,6.0,-23.0,-86.0,0.0
-40.0,-8.0,18.0,9.0,3.0,56.0,151.0,28.0,-11.0,-54.0,0.0
-23.0,8.0,20.0,15.0,5.0,41.0,131.0,21.0,-4.0,-33.0,0.0
4.0,31.0,35.0,27.0,5.0,25.0,58.0,8.0,4.0,-9.0,0.0
20.0,27.0,8.0,21.0,-13.0,11.0,23.0,1.0,-10.0,-2.0,0.0
-1.0,0.0,-21.0,-14.0,-34.0,0.0,43.0,2.0,-48.0,-25.0,0.0
14.0,5.0,-11.0,-18.0,-23.0,-3.0,42.0,0.0,-53.0,-15.0,0.0
47.0,16.0,3.0,-6.0,-5.0,-16.0,14.0,-4.0,-46.0,30.0,0.0
55.0,6.0,6.0,-8.0,-7.0,-8.0,3.0,0.0,-35.0,42.0,0.0
50.0,7.0,-10.0,-6.0,-7.0,-1.0,-1.0,0.0,-26.0,41.0,0.0
53.0,18.0,1.0,-3.0,-12.0,-3.0,-16.0,0.0,-16.0,67.0,0.0
50.0,33.0,26.0,2.0,-8.0,-17.0,-42.0,-14.0,-16.0,90.0,0.0
33.0,38.0,10.0,3.0,-7.0,-21.0,-59.0,-17.0,-35.0,63.0,0.0
9.0,31.0,16.0,0.0,-12.0,-20.0,-56.0,-18.0,-33.0,-1.0,0.0
-17.0,22.0,15.0,4.0,-13.0,-13.0,-50.0,-11.0,-23.0,-37.0,0.0
-19.0,27.0,24.0,13.0,-13.0,-8.0,-16.0,15.0,-4.0,-45.0,0.0
-5.0,31.0,24.0,19.0,-2.0,-8.0,-13.0,16.0,13.0,-22.0,0.0
0.0,22.0,5.0,9.0,-1.0,0.0,-40.0,-8.0,10.0,49.0,0.0
-18.0,-5.0,-9.0,-16.0,-11.0,-14.0,-29.0,-29.0,-3.0,115.0,0.0
-24.0,-12.0,-34.0,-25.0,-25.0,-19.0,8.0,-39.0,-43.0,126.0,0.0
7.0,7.0,-25.0,-19.0,-18.0,-10.0,73.0,-30.0,-62.0,51.0,0.0
30.0,27.0,-22.0,-16.0,-14.0,-4.0,84.0,-9.0,-54.0,-26.0,0.0
37.0,26.0,-13.0,-9.0,-8.0,-12.0,47.0,-19.0,-43.0,-81.0,0.0
27.0,6.0,-14.0,-14.0,-17.0,-21.0,32.0,-15.0,-25.0,-68.0,0.0
3.0,-12.0,-25.0,-30.0,-30.0,-26.0,40.0,10.0,-6.0,-38.0,0.0
-1.0,-9.0,-41.0,-27.0,-38.0,-17.0,25.0,15.0,-6.0,16.0,0.0
-10.0,-3.0,-32.0,-9.0,-35.0,-23.0,11.0,4.0,-8.0,28.0,0.0
-35.0,-2.0,-14.0,3.0,-11.0,-1.0,6.0,0.0,-26.0,-5.0,0.0
-81.0,-5.0,-6.0,11.0,7.0,16.0,5.0,2.0,-24.0,-38.0,0.0
-108.0,-24.0,-2.0,4.0,6.0,11.0,0.0,-4.0,-23.0,-49.0,0.0
-101.0,-26.0,-15.0,-20.0,-10.0,5.0,-27.0,-26.0,-39.0,-49.0,0.0
-72.0,-21.0,-20.0,-27.0,-18.0,0.0,-27.0,-40.0,-50.0,-7.0,0.0
-32.0,-3.0,-23.0,-23.0,-19.0,-10.0,13.0,-40.0,-47.0,37.0,0.0
2.0,20.0,-18.0,-22.0,-11.0,-11.0,28.0,-43.0,-41.0,66.0,0.0
29.0,24.0,-17.0,-27.0,-18.0,-11.0,-6.0,-46.0,-21.0,95.0,0.0
23.0,20.0,-20.0,-17.0,-19.0,-6.0,-29.0,-16.0,17.0,109.0,0.0
-19.0,-6.0,-25.0,-21.0,-7.0,12.0,0.0,0.0,47.0,93.0,0.0
-30.0,-37.0,-25.0,-26.0,1.0,30.0,35.0,12.0,43.0,54.0,0.0
-20.0,-21.0,-18.0,-20.0,5.0,35.0,12.0,18.0,27.0,-32.0,0.0
-15.0,5.0,-7.0,-2.0,8.0,24.0,8.0,25.0,23.0,-66.0,0.0
-6.0,28.0,4.0,5.0,8.0,18.0,29.0,25.0,18.0,-63.0,0.0
0.0,25.0,-7.0,0.0,4.0,9.0,24.0,-2.0,2.0,-40.0,0.0
22.0,3.0,-26.0,-20.0,-4.0,-3.0,-2.0,-23.0,0.0,-1.0,0.0
32.0,4.0,-22.0,-13.0,-16.0,-1.0,-10.0,-21.0,5.0,44.0,0.0
37.0,26.0,0.0,-11.0,-21.0,10.0,-2.0,-7.0,34.0,70.0,0.0
10.0,42.0,0.0,-15.0,-17.0,12.0,-8.0,-7.0,18.0,25.0,0.0
-4.0,36.0,3.0,0.0,1.0,10.0,-14.0,-14.0,4.0,-18.0,0.0
-16.0,24.0,-3.0,-9.0,3.0,10.0,-18.0,5.0,27.0,11.0,0.0
-28.0,6.0,-9.0,-10.0,0.0,7.0,-10.0,17.0,47.0,45.0,0.0
-34.0,2.0,-10.0,-5.0,1.0,3.0,-15.0,0.0,32.0,24.0,0.0
-10.0,9.0,-5.0,-8.0,-7.0,12.0,-28.0,-10.0,17.0,7.0,0.0
22.0,17.0,6.0,0.0,-2.0,5.0,-37.0,-6.0,34.0,37.0,0.0
22.0,24.0,14.0,3.0,4.0,6.0,-32.0,-10.0,31.0,29.0,0.0
7.0,29.0,24.0,12.0,5.0,9.0,-52.0,-8.0,21.0,8.0,0.0
8.0,30.0,36.0,14.0,13.0,8.0,-60.0,-16.0,13.0,13.0,0.0
-9.0,18.0,24.0,3.0,16.0,13.0,-50.0,-13.0,-5.0,-20.0,0.0
-50.0,-22.0,-4.0,-23.0,-7.0,10.0,4.0,-13.0,-28.0,-77.0,0.0
-59.0,-18.0,-16.0,-28.0,-5.0,18.0,54.0,-6.0,-29.0,-89.0,0.0
-39.0,12.0,0.0,-9.0,3.0,19.0,47.0,-8.0,-19.0,-59.0,0.0
-19.0,21.0,0.0,-8.0,11.0,6.0,18.0,-13.0,-34.0,-50.0,0.0
-28.0,12.0,-3.0,6.0,27.0,6.0,-17.0,-19.0,-37.0,-56.0,0.0
-23.0,12.0,9.0,19.0,29.0,5.0,-45.0,-19.0,-24.0,-15.0,0.0
-7.0,33.0,26.0,20.0,36.0,-10.0,-59.0,-8.0,4.0,36.0,0.0
-4.0,37.0,13.0,14.0,28.0,-14.0,-56.0,-3.0,15.0,43.0,0.0
-4.0,22.0,4.0,1.0,10.0,-8.0,-50.0,-4.0,15.0,39.0,0.0
-9.0,14.0,-1.0,-9.0,2.0,-11.0,-46.0,-10.0,2.0,15.0,0.0
1.0,30.0,18.0,0.0,7.0,-9.0,-60.0,-16.0,-14.0,-11.0,0.0
0.0,16.0,14.0,8.0,13.0,-6.0,-85.0,-15.0,-17.0,-18.0,0.0
-26.0,-22.0,-23.0,-9.0,4.0,-13.0,-65.0,-18.0,-27.0,-3.0,0.0
-69.0,-74.0,-54.0,-51.0,-26.0,-13.0,33.0,-6.0,-40.0,-20.0,0.0
-56.0,-68.0,-53.0,-48.0,-26.0,3.0,81.0,18.0,-37.0,-27.0,0.0
-18.0,-36.0,-37.0,-32.0,-13.0,0.0,41.0,15.0,-30.0,-22.0,0.0
-20.0,-36.0,-29.0,-30.0,-8.0,-19.0,12.0,18.0,-10.0,-6.0,0.0
-42.0,-45.0,-31.0,-23.0,-10.0,-33.0,16.0,42.0,6.0,12.0,0.0
-50.0,-34.0,-35.0,-19.0,-16.0,-49.0,23.0,44.0,19.0,29.0,0.0
-21.0,-12.0,-26.0,-28.0,-13.0,-47.0,8.0,30.0,22.0,39.0,0.0
-5.0,20.0,-12.0,-29.0,-11.0,-47.0,-10.0,23.0,34.0,38.0,0.0
3.0,37.0,-2.0,-34.0,-11.0,-33.0,-15.0,19.0,50.0,20.0,0.0
16.0,41.0,6.0,-31.0,-6.0,-28.0,-21.0,3.0,29.0,1.0,0.0
29.0,33.0,9.0,-18.0,-4.0,-36.0,-39.0,-19.0,11.0,5.0,0.0
56.0,24.0,16.0,-13.0,-6.0,-37.0,-42.0,-15.0,22.0,37.0,0.0
73.0,23.0,9.0,-13.0,-2.0,-31.0,-40.0,-27.0,24.0,48.0,0.0
53.0,13.0,1.0,-12.0,-2.0,-24.0,-33.0,-50.0,3.0,25.0,0.0
44.0,7.0,-15.0,-9.0,-10.0,-18.0,-30.0,-39.0,5.0,31.0,0.0
44.0,4.0,-9.0,-6.0,-7.0,-15.0,-33.0,-27.0,22.0,44.0,0.0
20.0,8.0,8.0,0.0,0.0,-19.0,-28.0,-30.0,27.0,38.0,0.0
13.0,20.0,19.0,-1.0,8.0,-13.0,-28.0,-21.0,22.0,38.0,0.0
39.0,33.0,21.0,3.0,1.0,-10.0,-29.0,-15.0,31.0,76.0,0.0
86.0,36.0,15.0,2.0,4.0,-12.0,-39.0,-7.0,53.0,130.0,0.0
128.0,53.0,11.0,11.0,26.0,-21.0,-46.0,3.0,61.0,173.0,0.0
146.0,49.0,0.0,17.0,37.0,-21.0,-44.0,0.0,60.0,209.0,0.0
127.0,29.0,-6.0,10.0,20.0,-26.0,-56.0,-6.0,53.0,192.0,0.0
100.0,28.0,6.0,20.0,5.0,-31.0,-73.0,-24.0,42.0,94.0,0.0
65.0,32.0,6.0,20.0,14.0,-30.0,-78.0,-26.0,38.0,33.0,0.0
0.0,-8.0,-24.0,-12.0,0.0,-24.0,-47.0,-30.0,-16.0,-48.0,0.0
-55.0,-48.0,-40.0,-22.0,-3.0,-12.0,3.0,-4.0,-26.0,-92.0,0.0
-76.0,-49.0,-24.0,-7.0,9.0,7.0,45.0,30.0,7.0,-89.0,0.0
-101.0,-40.0,0.0,12.0,26.0,26.0,124.0,45.0,-5.0,-127.0,0.0
-100.0,-24.0,17.0,6.0,52.0,24.0,139.0,40.0,-22.0,-151.0,0.0
-73.0,-10.0,22.0,-10.0,41.0,14.0,76.0,10.0,-40.0,-136.0,0.0
-42.0,-10.0,11.0,-19.0,18.0,0.0,37.0,-8.0,-44.0,-97.0,0.0
-15.0,-8.0,3.0,-28.0,10.0,-2.0,29.0,-11.0,-42.0,-64.0,0.0
-11.0,-1.0,5.0,-13.0,5.0,2.0,27.0,-27.0,-34.0,-45.0,0.0
2.0,-1.0,2.0,7.0,5.0,19.0,18.0,-25.0,-31.0,-33.0,0.0
25.0,-1.0,3.0,16.0,15.0,25.0,5.0,-20.0,-41.0,-13.0,0.0
39.0,-1.0,9.0,21.0,25.0,22.0,6.0,-19.0,-49.0,12.0,0.0
28.0,0.0,3.0,21.0,19.0,5.0,11.0,-21.0,-33.0,35.0,0.0
4.0,-5.0,0.0,20.0,21.0,-2.0,9.0,-16.0,-40.0,22.0,0.0
-2.0,0.0,-8.0,15.0,12.0,-8.0,0.0,-11.0,-70.0,-27.0,0.0
0.0,9.0,0.0,12.0,13.0,3.0,5.0,0.0,-75.0,-33.0,0.0
-1.0,18.0,15.0,15.0,16.0,17.0,6.0,-1.0,-82.0,-35.0,0.0
-11.0,19.0,25.0,17.0,29.0,25.0,0.0,-1.0,-93.0,-56.0,0.0
-13.0,5.0,10.0,2.0,8.0,10.0,-7.0,26.0,5.0,-21.0,0.0
-7.0,-13.0,-4.0,-19.0,0.0,-1.0,-7.0,74.0,163.0,43.0,0.0
20.0,-13.0,0.0,-12.0,11.0,-7.0,-4.0,65.0,167.0,46.0,0.0
20.0,0.0,-4.0,-5.0,21.0,-2.0,-7.0,32.0,102.0,26.0,0.0
18.0,6.0,-4.0,-10.0,12.0,0.0,-14.0,22.0,53.0,27.0,0.0
38.0,24.0,-9.0,-13.0,3.0,-6.0,-14.0,35.0,65.0,32.0,0.0
49.0,18.0,0.0,-17.0,3.0,-6.0,-6.0,31.0,75.0,67.0,0.0
54.0,11.0,5.0,-12.0,-5.0,-1.0,-20.0,26.0,80.0,123.0,0.0
46.0,-3.0,-9.0,-13.0,-17.0,-15.0,-29.0,16.0,39.0,149.0,0.0
20.0,-19.0,-12.0,-9.0,-12.0,-18.0,-21.0,-1.0,-8.0,67.0,0.0
-16.0,-13.0,-5.0,12.0,11.0,0.0,1.0,8.0,-32.0,-49.0,0.0
-48.0,1.0,12.0,20.0,36.0,11.0,16.0,22.0,-41.0,-109.0,0.0
-50.0,8.0,27.0,27.0,39.0,20.0,16.0,18.0,-48.0,-140.0,0.0
-50.0,4.0,27.0,29.0,47.0,18.0,10.0,12.0,-46.0,-113.0,0.0
-42.0,-8.0,28.0,24.0,46.0,13.0,-1.0,22.0,-15.0,-51.0,0.0
-31.0,-5.0,14.0,29.0,39.0,5.0,-5.0,33.0,20.0,3.0,0.0
-5.0,-1.0,17.0,31.0,25.0,3.0,-20.0,36.0,42.0,31.0,0.0
25.0,8.0,29.0,22.0,25.0,9.0,-36.0,24.0,43.0,38.0,0.0
37.0,21.0,36.0,18.0,15.0,9.0,-51.0,1.0,20.0,14.0,0.0
9.0,15.0,31.0,12.0,12.0,9.0,-52.0,-13.0,0.0,-15.0,0.0
-40.0,-1.0,20.0,8.0,10.0,13.0,-32.0,-17.0,-23.0,-55.0,0.0
-76.0,-26.0,19.0,-3.0,-2.0,9.0,-1.0,-18.0,-48.0,-99.0,0.0
-64.0,-32.0,8.0,-3.0,3.0,5.0,23.0,-5.0,-49.0,-104.0,0.0
-31.0,-26.0,11.0,6.0,7.0,0.0,51.0,14.0,-39.0,-80.0,0.0
-14.0,-18.0,10.0,12.0,12.0,0.0,36.0,14.0,-25.0,-53.0,0.0
8.0,-13.0,20.0,10.0,10.0,-4.0,8.0,14.0,-12.0,-22.0,0.0
31.0,0.0,22.0,15.0,9.0,-10.0,-18.0,4.0,0.0,-13.0,0.0
38.0,7.0,20.0,3.0,12.0,-16.0,-39.0,10.0,9.0,-18.0,0.0
30.0,-4.0,8.0,-19.0,12.0,-10.0,-44.0,14.0,10.0,-40.0,0.0
24.0,-2.0,-2.0,-17.0,0.0,1.0,-25.0,10.0,-3.0,-57.0,0.0
14.0,5.0,-5.0,-24.0,-12.0,5.0,12.0,1.0,-15.0,-52.0,0.0
13.0,0.0,-14.0,-28.0,-13.0,7.0,81.0,12.0,-20.0,-35.0,0.0
18.0,0.0,-21.0,-25.0,-12.0,-1.0,100.0,10.0,-25.0,-19.0,0.0
9.0,-2.0,-22.0,-37.0,-1.0,-13.0,47.0,7.0,-1.0,-2.0,0.0
8.0,2.0,-23.0,-22.0,3.0,-10.0,15.0,9.0,13.0,33.0,0.0
15.0,4.0,-18.0,-11.0,-6.0,-10.0,10.0,8.0,22.0,59.0,0.0
27.0,7.0,0.0,-20.0,-11.0,-10.0,0.0,0.0,10.0,94.0,0.0
37.0,-2.0,1.0,-23.0,-12.0,-21.0,-13.0,-7.0,8.0,137.0,0.0
44.0,-9.0,-8.0,-21.0,-10.0,-23.0,-11.0,-12.0,27.0,159.0,0.0
58.0,-7.0,-9.0,-7.0,4.0,-14.0,-12.0,-7.0,19.0,100.0,0.0
54.0,1.0,-2.0,-2.0,21.0,0.0,0.0,-4.0,-15.0,14.0,0.0
60.0,-7.0,-1.0,1.0,21.0,0.0,0.0,0.0,-21.0,-9.0,0.0
78.0,0.0,5.0,31.0,20.0,-1.0,-3.0,-1.0,-15.0,-11.0,0.0
60.0,10.0,22.0,43.0,25.0,-6.0,18.0,1.0,-23.0,-38.0,0.0
14.0,-6.0,17.0,43.0,15.0,1.0,17.0,7.0,-23.0,-26.0,0.0
-11.0,-10.0,25.0,33.0,19.0,3.0,0.0,4.0,-15.0,-13.0,0.0
-25.0,6.0,24.0,25.0,17.0,-9.0,-6.0,-10.0,-16.0,-3.0,0.0
-17.0,-4.0,21.0,11.0,8.0,-18.0,-5.0,-10.0,8.0,53.0,0.0
-4.0,-8.0,13.0,14.0,5.0,-15.0,-10.0,-1.0,23.0,74.0,0.0
-12.0,-15.0,18.0,11.0,9.0,-6.0,-17.0,12.0,20.0,42.0,0.0
-20.0,-37.0,9.0,-3.0,8.0,-2.0,-10.0,15.0,20.0,31.0,0.0
-12.0,-42.0,-23.0,-17.0,2.0,-6.0,-13.0,11.0,42.0,68.0,0.0
-3.0,-35.0,-21.0,-13.0,0.0,-5.0,-18.0,7.0,36.0,91.0,0.0
-7.0,-23.0,-5.0,-5.0,0.0,4.0,-15.0,-5.0,12.0,64.0,0.0
-32.0,-29.0,-8.0,2.0,1.0,12.0,-6.0,0.0,-6.0,27.0,0.0
-36.0,-28.0,-24.0,10.0,-5.0,18.0,1.0,10.0,13.0,32.0,0.0
-26.0,-20.0,-28.0,5.0,-15.0,17.0,-11.0,16.0,47.0,44.0,0.0
-17.0,-17.0,-25.0,13.0,-9.0,15.0,-13.0,11.0,44.0,28.0,0.0
-13.0,-14.0,-22.0,11.0,-1.0,25.0,5.0,6.0,18.0,17.0,0.0
-6.0,-5.0,-22.0,3.0,-11.0,29.0,5.0,9.0,9.0,21.0,0.0
14.0,-5.0,-19.0,-5.0,-16.0,19.0,-11.0,10.0,-4.0,26.0,0.0
13.0,-4.0,-11.0,-12.0,-6.0,20.0,-21.0,11.0,-12.0,9.0,0.0
8.0,-22.0,-7.0,-19.0,5.0,19.0,-19.0,2.0,-41.0,-7.0,0.0
12.0,-18.0,-5.0,-35.0,13.0,18.0,-9.0,-4.0,-52.0,-32.0,0.0
17.0,7.0,13.0,-32.0,19.0,23.0,-2.0,-17.0,-62.0,-51.0,0.0
8.0,17.0,20.0,-7.0,19.0,20.0,-8.0,-20.0,-70.0,-71.0,0.0
14.0,12.0,21.0,13.0,17.0,6.0,-8.0,-21.0,-66.0,-64.0,0.0
28.0,14.0,4.0,25.0,16.0,0.0,-16.0,-22.0,-65.0,-57.0,0.0
45.0,17.0,13.0,15.0,11.0,0.0,-23.0,-28.0,-58.0,-38.0,0.0
75.0,26.0,28.0,3.0,7.0,-4.0,-32.0,-25.0,-12.0,2.0,0.0
112.0,30.0,13.0,-11.0,-3.0,-17.0,-42.0,-2.0,63.0,80.0,0.0
110.0,31.0,3.0,-28.0,-12.0,-19.0,-44.0,-6.0,65.0,127.0,0.0
93.0,33.0,-1.0,-18.0,-13.0,-20.0,-58.0,-26.0,7.0,136.0,0.0
68.0,25.0,3.0,0.0,-4.0,-19.0,-60.0,-28.0,-12.0,113.0,0.0
12.0,4.0,-5.0,1.0,2.0,-5.0,-47.0,-20.0,-29.0,-15.0,0.0
-47.0,-7.0,-9.0,-4.0,14.0,8.0,-41.0,2.0,-39.0,-143.0,0.0
-86.0,-23.0,-18.0,-29.0,-3.0,-10.0,-38.0,17.0,20.0,-100.0,0.0
-80.0,-18.0,-37.0,-49.0,-20.0,-24.0,-18.0,31.0,38.0,-79.0,0.0
-78.0,-15.0,-34.0,-48.0,-16.0,-12.0,30.0,37.0,34.0,-96.0,0.0
-77.0,-23.0,-18.0,-25.0,-3.0,-4.0,36.0,35.0,53.0,-79.0,0.0
-62.0,-29.0,1.0,-11.0,3.0,3.0,20.0,44.0,86.0,-32.0,0.0
-23.0,-17.0,20.0,2.0,11.0,9.0,30.0,43.0,79.0,-3.0,0.0
-15.0,-1.0,18.0,26.0,26.0,11.0,26.0,16.0,16.0,-17.0,0.0
-30.0,-17.0,7.0,32.0,29.0,9.0,18.0,3.0,-21.0,-28.0,0.0
-41.0,-19.0,1.0,24.0,21.0,9.0,2.0,-3.0,-24.0,-34.0,0.0
-37.0,-13.0,-3.0,26.0,16.0,7.0,-2.0,-18.0,-30.0,-40.0,0.0
-30.0,-14.0,7.0,25.0,3.0,-5.0,-4.0,-18.0,-12.0,-12.0,0.0
-51.0,-28.0,4.0,18.0,-5.0,-2.0,-7.0,-6.0,11.0,0.0,0.0
-75.0,-48.0,3.0,22.0,-5.0,3.0,-3.0,2.0,18.0,-15.0,0.0
-76.0,-46.0,-3.0,26.0,-4.0,6.0,0.0,1.0,5.0,-21.0,0.0
-59.0,-38.0,-5.0,14.0,-12.0,-1.0,-2.0,-3.0,-1.0,6.0,0.0
-39.0,-33.0,-2.0,4.0,-13.0,4.0,0.0,0.0,4.0,35.0,0.0
-27.0,-26.0,-4.0,5.0,-11.0,10.0,3.0,0.0,0.0,30.0,0.0
-18.0,-15.0,-3.0,6.0,-6.0,17.0,-4.0,2.0,7.0,15.0,0.0
-8.0,1.0,0.0,26.0,0.0,14.0,-6.0,8.0,18.0,6.0,0.0
7.0,23.0,13.0,29.0,2.0,16.0,-5.0,20.0,40.0,27.0,0.0
17.0,22.0,10.0,7.0,-7.0,13.0,-10.0,22.0,60.0,59.0,0.0
32.0,23.0,1.0,-1.0,-16.0,5.0,-16.0,23.0,75.0,106.0,0.0
48.0,19.0,0.0,4.0,-12.0,0.0,-19.0,20.0,73.0,164.0,0.0
34.0,15.0,0.0,-1.0,-20.0,-10.0,-5.0,5.0,27.0,157.0,0.0
10.0,6.0,0.0,-7.0,-16.0,-11.0,6.0,-2.0,-19.0,9.0,0.0
-4.0,4.0,2.0,-6.0,-13.0,4.0,9.0,12.0,-21.0,-55.0,0.0
13.0,5.0,-3.0,7.0,-11.0,14.0,1.0,12.0,-36.0,-30.0,0.0
31.0,16.0,7.0,12.0,2.0,11.0,-15.0,-4.0,-44.0,-8.0,0.0
62.0,23.0,13.0,2.0,-8.0,-5.0,-30.0,-11.0,-40.0,21.0,0.0
73.0,27.0,28.0,-7.0,-18.0,-11.0,-30.0,-5.0,-33.0,3.0,0.0
50.0,24.0,17.0,-21.0,-17.0,-10.0,-16.0,0.0,-14.0,-15.0,0.0
13.0,4.0,13.0,-23.0,-21.0,-9.0,-6.0,17.0,12.0,-15.0,0.0
-10.0,-1.0,14.0,-21.0,-23.0,-4.0,-7.0,11.0,-12.0,-51.0,0.0
-8.0,5.0,13.0,-22.0,-26.0,1.0,2.0,0.0,-42.0,-80.0,0.0
-11.0,3.0,6.0,-22.0,-24.0,11.0,7.0,11.0,-33.0,-47.0,0.0
-14.0,-12.0,10.0,-9.0,-18.0,14.0,10.0,14.0,-33.0,-44.0,0.0
-17.0,5.0,31.0,-3.0,-10.0,12.0,1.0,-7.0,-43.0,-39.0,0.0
-5.0,18.0,23.0,-4.0,-6.0,10.0,-24.0,-33.0,-67.0,-29.0,0.0
5.0,12.0,38.0,0.0,-2.0,20.0,-24.0,-25.0,-56.0,-24.0,0.0
4.0,-2.0,41.0,3.0,6.0,31.0,-18.0,3.0,-21.0,-4.0,0.0
20.0,3.0,23.0,5.0,11.0,14.0,-36.0,16.0,-3.0,11.0,0.0
31.0,16.0,23.0,-2.0,4.0,0.0,-43.0,14.0,22.0,38.0,0.0
-13.0,-21.0,-6.0,-28.0,-16.0,-1.0,1.0,16.0,19.0,19.0,0.0
-51.0,-62.0,-42.0,-53.0,-35.0,12.0,70.0,20.0,-4.0,-21.0,0.0
-40.0,-51.0,-29.0,-42.0,-37.0,8.0,67.0,20.0,1.0,-21.0,0.0
-53.0,-47.0,-26.0,-23.0,-30.0,15.0,51.0,11.0,22.0,-33.0,0.0
-94.0,-51.0,-15.0,-17.0,-24.0,31.0,31.0,11.0,15.0,-74.0,0.0
-109.0,-52.0,-6.0,0.0,-9.0,35.0,4.0,22.0,-10.0,-90.0,0.0
-98.0,-35.0,0.0,2.0,-3.0,43.0,5.0,13.0,-21.0,-77.0,0.0
-56.0,-17.0,11.0,-12.0,-2.0,35.0,-2.0,17.0,-15.0,-52.0,0.0
-24.0,5.0,27.0,-18.0,0.0,5.0,-11.0,26.0,16.0,-10.0,0.0
-11.0,10.0,13.0,-20.0,-4.0,7.0,-10.0,27.0,44.0,18.0,0.0
-11.0,2.0,24.0,-25.0,-17.0,0.0,-4.0,20.0,41.0,23.0,0.0
0.0,5.0,0.0,-39.0,-18.0,-2.0,3.0,24.0,48.0,46.0,0.0
15.0,-4.0,-14.0,-35.0,-10.0,0.0,10.0,38.0,54.0,94.0,0.0
19.0,-12.0,-23.0,-29.0,-10.0,0.0,12.0,35.0,43.0,116.0,0.0
9.0,-14.0,-22.0,-23.0,-6.0,5.0,17.0,34.0,32.0,80.0,0.0
-5.0,-5.0,-19.0,-21.0,-11.0,6.0,5.0,25.0,13.0,34.0,0.0
-18.0,3.0,-20.0,-8.0,-15.0,2.0,7.0,17.0,0.0,12.0,0.0
-14.0,0.0,-6.0,5.0,-11.0,6.0,16.0,15.0,-1.0,-2.0,0.0
-1.0,3.0,5.0,-4.0,-10.0,3.0,7.0,12.0,-10.0,-18.0,0.0
-6.0,10.0,-1.0,-11.0,-6.0,-1.0,1.0,-6.0,-23.0,-33.0,0.0
-22.0,5.0,4.0,-8.0,1.0,4.0,4.0,-13.0,-31.0,-40.0,0.0
-19.0,8.0,8.0,10.0,4.0,3.0,-3.0,-15.0,-37.0,-40.0,0.0
-14.0,9.0,13.0,20.0,9.0,3.0,-18.0,-20.0,-48.0,-44.0,0.0
-6.0,16.0,4.0,13.0,9.0,-1.0,-18.0,-13.0,-35.0,-30.0,0.0
3.0,19.0,6.0,9.0,0.0,-3.0,-16.0,-2.0,-15.0,0.0,0.0
11.0,17.0,0.0,-3.0,-8.0,-13.0,-17.0,-4.0,-2.0,21.0,0.0
13.0,18.0,-1.0,-19.0,-5.0,-26.0,-6.0,-6.0,9.0,37.0,0.0
23.0,20.0,2.0,-25.0,-2.0,-25.0,-1.0,-2.0,13.0,44.0,0.0
25.0,21.0,6.0,-13.0,2.0,-14.0,2.0,4.0,12.0,55.0,0.0
44.0,22.0,11.0,3.0,0.0,-1.0,-4.0,7.0,17.0,70.0,0.0
78.0,37.0,19.0,2.0,10.0,-4.0,-22.0,5.0,20.0,105.0,0.0
104.0,47.0,22.0,9.0,14.0,-13.0,-29.0,-6.0,0.0,104.0,0.0
135.0,49.0,9.0,31.0,1.0,-26.0,-30.0,-25.0,-9.0,114.0,0.0
154.0,44.0,-1.0,26.0,-6.0,-40.0,-50.0,-28.0,3.0,126.0,0.0
149.0,47.0,10.0,28.0,-9.0,-34.0,-71.0,-19.0,26.0,102.0,0.0
146.0,56.0,20.0,35.0,3.0,-13.0,-74.0,-21.0,28.0,89.0,0.0
70.0,39.0,0.0,9.0,1.0,3.0,-47.0,-22.0,-3.0,-28.0,0.0
-47.0,-1.0,-31.0,-16.0,-18.0,2.0,16.0,-21.0,-56.0,-220.0,0.0
-67.0,-15.0,-24.0,-4.0,-11.0,15.0,55.0,-16.0,-51.0,-228.0,0.0
-50.0,-18.0,0.0,4.0,-7.0,16.0,45.0,-34.0,-34.0,-123.0,0.0
-36.0,-11.0,2.0,-2.0,-7.0,5.0,27.0,-44.0,-50.0,-80.0,0.0
-32.0,18.0,10.0,-1.0,4.0,4.0,14.0,-56.0,-103.0,-120.0,0.0
-68.0,6.0,11.0,23.0,26.0,-10.0,2.0,-71.0,-165.0,-176.0,0.0
-109.0,-20.0,4.0,44.0,35.0,19.0,20.0,-58.0,-163.0,-217.0,0.0
-110.0,-35.0,10.0,30.0,36.0,31.0,26.0,-28.0,-97.0,-160.0,0.0
-86.0,-45.0,3.0,24.0,30.0,23.0,21.0,19.0,17.0,-48.0,0.0
-51.0,-43.0,-4.0,23.0,22.0,16.0,15.0,32.0,48.0,-21.0,0.0
-19.0,-32.0,-10.0,9.0,16.0,1.0,11.0,19.0,38.0,-21.0,0.0
-6.0,-23.0,-19.0,-15.0,2.0,-10.0,-7.0,13.0,106.0,29.0,0.0
19.0,-6.0,-17.0,-28.0,-3.0,-18.0,-10.0,25.0,187.0,84.0,0.0
29.0,4.0,-5.0,-15.0,9.0,-6.0,2.0,27.0,164.0,79.0,0.0
10.0,-4.0,-7.0,4.0,7.0,14.0,0.0,3.0,104.0,46.0,0.0
-9.0,-13.0,-18.0,1.0,7.0,11.0,-6.0,-4.0,75.0,38.0,0.0
-11.0,-15.0,-22.0,-9.0,-1.0,-3.0,0.0,-3.0,53.0,36.0,0.0
-10.0,7.0,-15.0,-15.0,-16.0,-13.0,17.0,-3.0,25.0,18.0,0.0
-2.0,7.0,-18.0,-21.0,-20.0,-11.0,29.0,-10.0,16.0,16.0,0.0
4.0,-5.0,-25.0,-18.0,-19.0,-2.0,26.0,-4.0,11.0,30.0,0.0
18.0,-4.0,-13.0,-9.0,-12.0,2.0,13.0,2.0,12.0,41.0,0.0
19.0,14.0,-14.0,0.0,-9.0,9.0,21.0,0.0,16.0,42.0,0.0
25.0,22.0,-15.0,-6.0,-12.0,5.0,25.0,-9.0,17.0,40.0,0.0
17.0,26.0,-12.0,0.0,-5.0,8.0,36.0,-4.0,-5.0,11.0,0.0
-4.0,10.0,-11.0,11.0,10.0,15.0,35.0,0.0,-14.0,10.0,0.0
-12.0,7.0,-8.0,15.0,19.0,17.0,24.0,3.0,-9.0,24.0,0.0
0.0,12.0,-13.0,15.0,11.0,13.0,14.0,3.0,-8.0,38.0,0.0
10.0,16.0,-4.0,19.0,2.0,12.0,2.0,4.0,-10.0,40.0,0.0
14.0,8.0,-5.0,17.0,1.0,2.0,-8.0,0.0,-9.0,36.0,0.0
7.0,0.0,-11.0,7.0,-7.0,0.0,-14.0,-10.0,3.0,53.0,0.0
6.0,-5.0,-9.0,0.0,-3.0,0.0,-13.0,-10.0,9.0,58.0,0.0
0.0,-13.0,-2.0,3.0,-3.0,1.0,-3.0,-11.0,0.0,51.0,0.0
-11.0,-18.0,0.0,5.0,-6.0,-3.0,0.0,-10.0,-5.0,35.0,0.0
-14.0,-23.0,-3.0,5.0,-5.0,-12.0,2.0,-11.0,-18.0,18.0,0.0
-2.0,-29.0,6.0,23.0,-1.0,-16.0,10.0,-6.0,-17.0,3.0,0.0
17.0,-18.0,8.0,34.0,8.0,-3.0,10.0,2.0,-23.0,-4.0,0.0
20.0,-9.0,-1.0,32.0,5.0,-7.0,6.0,0.0,-25.0,3.0,0.0
25.0,-5.0,0.0,22.0,-1.0,-19.0,8.0,1.0,-7.0,20.0,0.0
41.0,19.0,0.0,19.0,-2.0,-11.0,0.0,0.0,0.0,54.0,0.0
62.0,22.0,7.0,18.0,2.0,-26.0,-3.0,-9.0,7.0,94.0,0.0
73.0,24.0,18.0,10.0,4.0,-29.0,-6.0,-20.0,16.0,81.0,0.0
83.0,24.0,12.0,4.0,2.0,-25.0,-10.0,-17.0,19.0,63.0,0.0
83.0,19.0,15.0,14.0,8.0,-30.0,-14.0,-14.0,17.0,30.0,0.0
62.0,0.0,11.0,8.0,9.0,-26.0,-8.0,23.0,65.0,8.0,0.0
32.0,-13.0,10.0,-1.0,11.0,-16.0,-4.0,47.0,88.0,-9.0,0.0
26.0,-8.0,11.0,-1.0,14.0,-7.0,-18.0,25.0,73.0,5.0,0.0
41.0,-1.0,7.0,-6.0,13.0,-19.0,-45.0,-1.0,46.0,69.0,0.0
33.0,-12.0,2.0,-8.0,13.0,-18.0,-48.0,-19.0,11.0,87.0,0.0
1.0,-23.0,10.0,7.0,16.0,6.0,-29.0,-31.0,-30.0,-27.0,0.0
-32.0,-36.0,5.0,22.0,26.0,21.0,3.0,-32.0,-72.0,-140.0,0.0
-45.0,-38.0,0.0,20.0,27.0,21.0,13.0,-30.0,-101.0,-187.0,0.0
-30.0,-32.0,-5.0,10.0,20.0,4.0,0.0,-30.0,-91.0,-161.0,0.0
-21.0,-27.0,-4.0,7.0,12.0,0.0,-9.0,-26.0,-72.0,-127.0,0.0
-30.0,-20.0,8.0,9.0,0.0,0.0,7.0,-19.0,-54.0,-134.0,0.0
-52.0,-17.0,38.0,12.0,13.0,0.0,33.0,6.0,-19.0,-103.0,0.0
-65.0,-16.0,30.0,-2.0,18.0,-2.0,17.0,18.0,10.0,-32.0,0.0
-52.0,-12.0,0.0,-16.0,21.0,-18.0,-7.0,21.0,7.0,7.0,0.0
-21.0,-3.0,0.0,-9.0,19.0,-19.0,-37.0,14.0,30.0,0.0,0.0
0.0,13.0,20.0,4.0,32.0,-20.0,-73.0,-9.0,48.0,-29.0,0.0
16.0,24.0,23.0,16.0,40.0,-10.0,-103.0,-35.0,11.0,-24.0,0.0
49.0,42.0,44.0,10.0,22.0,-5.0,-82.0,-32.0,8.0,56.0,0.0
78.0,72.0,55.0,11.0,21.0,-9.0,-62.0,4.0,37.0,146.0,0.0
98.0,94.0,72.0,32.0,28.0,-6.0,-87.0,1.0,36.0,166.0,0.0
74.0,96.0,71.0,49.0,25.0,-10.0,-109.0,-30.0,26.0,104.0,0.0
-19.0,38.0,27.0,22.0,2.0,-16.0,-107.0,-15.0,10.0,-6.0,0.0
-124.0,-33.0,-3.0,-14.0,-15.0,-4.0,-80.0,9.0,-29.0,-147.0,0.0
-208.0,-87.0,-30.0,-30.0,-13.0,21.0,-3.0,12.0,-77.0,-284.0,0.0
-209.0,-99.0,-21.0,-29.0,-3.0,47.0,114.0,40.0,-76.0,-270.0,0.0
-140.0,-77.0,8.0,-13.0,8.0,55.0,136.0,44.0,-49.0,-192.0,0.0
-107.0,-68.0,-18.0,-17.0,-2.0,34.0,171.0,44.0,-47.0,-149.0,0.0
-98.0,-75.0,-53.0,-20.0,-21.0,21.0,275.0,71.0,-64.0,-123.0,0.0
-56.0,-42.0,-56.0,-33.0,-12.0,20.0,242.0,87.0,-49.0,-70.0,0.0
-9.0,-13.0,-36.0,-38.0,-6.0,3.0,141.0,73.0,-7.0,4.0,0.0
28.0,-14.0,-34.0,-9.0,0.0,-6.0,96.0,57.0,8.0,76.0,0.0
37.0,-25.0,-34.0,-12.0,-7.0,-10.0,63.0,33.0,-4.0,112.0,0.0
47.0,-21.0,-18.0,-5.0,-2.0,-20.0,43.0,1.0,-18.0,104.0,0.0
24.0,-15.0,-2.0,1.0,-2.0,-24.0,32.0,-22.0,-42.0,47.0,0.0
0.0,-7.0,3.0,-3.0,-11.0,-13.0,23.0,-21.0,-58.0,-65.0,0.0
-2.0,-3.0,0.0,0.0,-25.0,-1.0,38.0,18.0,-18.0,-64.0,0.0
-31.0,-35.0,-20.0,-16.0,-20.0,6.0,44.0,50.0,0.0,-47.0,0.0
-60.0,-33.0,-23.0,-11.0,-17.0,4.0,49.0,44.0,18.0,-55.0,0.0
-59.0,-11.0,-4.0,1.0,-13.0,3.0,49.0,31.0,6.0,-48.0,0.0
-63.0,-12.0,0.0,3.0,-6.0,14.0,33.0,15.0,-24.0,-47.0,0.0
-56.0,-11.0,3.0,12.0,6.0,24.0,0.0,4.0,-38.0,-40.0,0.0
-36.0,-7.0,11.0,14.0,5.0,10.0,-30.0,-10.0,-48.0,-23.0,0.0
-12.0,-6.0,8.0,15.0,-4.0,6.0,-39.0,-16.0,-44.0,-12.0,0.0
-5.0,-1.0,7.0,16.0,0.0,4.0,-42.0,-6.0,-21.0,-8.0,0.0
-2.0,1.0,3.0,23.0,2.0,8.0,-42.0,-1.0,-1.0,9.0,0.0
8.0,1.0,1.0,20.0,8.0,8.0,-39.0,-4.0,13.0,32.0,0.0
10.0,-5.0,15.0,21.0,2.0,14.0,-41.0,-4.0,28.0,44.0,0.0
3.0,-10.0,1.0,20.0,-7.0,17.0,-37.0,-1.0,24.0,37.0,0.0
-9.0,-16.0,-6.0,7.0,-6.0,0.0,-32.0,14.0,18.0,22.0,0.0
-14.0,-16.0,-26.0,3.0,-2.0,17.0,5.0,25.0,33.0,24.0,0.0
1.0,-9.0,-26.0,-2.0,-6.0,36.0,32.0,14.0,43.0,45.0,0.0
9.0,0.0,-20.0,-7.0,-1.0,33.0,13.0,-9.0,16.0,76.0,0.0
3.0,5.0,-18.0,-1.0,2.0,31.0,-20.0,-22.0,-30.0,53.0,0.0
8.0,17.0,-17.0,7.0,8.0,27.0,-11.0,-19.0,-55.0,0.0,0.0
16.0,33.0,-11.0,14.0,12.0,26.0,-5.0,-17.0,-72.0,-51.0,0.0
20.0,37.0,0.0,22.0,10.0,27.0,-15.0,-34.0,-106.0,-79.0,0.0
18.0,38.0,8.0,16.0,3.0,27.0,-21.0,-46.0,-126.0,-84.0,0.0
15.0,36.0,16.0,7.0,7.0,37.0,-9.0,-47.0,-133.0,-82.0,0.0
15.0,30.0,28.0,7.0,16.0,53.0,5.0,-38.0,-136.0,-72.0,0.0
19.0,24.0,5.0,3.0,8.0,45.0,-4.0,-15.0,-100.0,-59.0,0.0
13.0,-2.0,-13.0,-27.0,-5.0,15.0,-30.0,25.0,7.0,3.0,0.0
11.0,-5.0,-19.0,-34.0,-21.0,0.0,-31.0,51.0,70.0,52.0,0.0
5.0,-4.0,-25.0,-33.0,-31.0,-11.0,-29.0,53.0,82.0,96.0,0.0
-9.0,-27.0,-30.0,-41.0,-39.0,-16.0,-31.0,36.0,69.0,117.0,0.0
-17.0,-39.0,-23.0,-33.0,-36.0,-20.0,-41.0,25.0,57.0,140.0,0.0
0.0,-33.0,-12.0,-34.0,-32.0,-23.0,-48.0,19.0,98.0,176.0,0.0
36.0,-14.0,11.0,-25.0,-16.0,-22.0,-25.0,40.0,147.0,191.0,0.0
75.0,1.0,22.0,0.0,-5.0,-17.0,-7.0,44.0,104.0,166.0,0.0
84.0,-3.0,23.0,7.0,-6.0,-3.0,7.0,19.0,53.0,117.0,0.0
74.0,-13.0,11.0,4.0,-2.0,4.0,12.0,8.0,25.0,76.0,0.0
74.0,-3.0,8.0,-9.0,4.0,3.0,5.0,-6.0,5.0,57.0,0.0
67.0,5.0,13.0,1.0,2.0,5.0,1.0,-6.0,-10.0,35.0,0.0
28.0,4.0,2.0,-2.0,-3.0,13.0,-9.0,-9.0,-4.0,-2.0,0.0
7.0,10.0,6.0,8.0,5.0,16.0,-11.0,-12.0,7.0,-32.0,0.0
0.0,6.0,17.0,19.0,22.0,15.0,4.0,-16.0,15.0,-50.0,0.0
7.0,-17.0,14.0,18.0,20.0,12.0,11.0,-2.0,54.0,-24.0,0.0
9.0,-30.0,-7.0,1.0,2.0,4.0,3.0,11.0,93.0,52.0,0.0
17.0,-18.0,-21.0,-25.0,-8.0,-14.0,-11.0,17.0,114.0,141.0,0.0
0.0,-2.0,-11.0,-34.0,-15.0,-20.0,-16.0,6.0,119.0,130.0,0.0
-19.0,10.0,0.0,-23.0,-7.0,-14.0,-4.0,2.0,105.0,38.0,0.0
-38.0,18.0,20.0,0.0,7.0,16.0,23.0,16.0,71.0,-48.0,0.0
-57.0,15.0,29.0,16.0,34.0,37.0,47.0,5.0,4.0,-139.0,0.0
-67.0,0.0,38.0,28.0,45.0,38.0,53.0,-1.0,-37.0,-183.0,0.0
-71.0,-4.0,34.0,30.0,50.0,43.0,56.0,-12.0,-60.0,-210.0,0.0
-72.0,-3.0,11.0,22.0,42.0,39.0,48.0,-18.0,-75.0,-214.0,0.0
-51.0,2.0,16.0,10.0,17.0,30.0,36.0,-25.0,-75.0,-178.0,0.0
-15.0,8.0,16.0,3.0,7.0,13.0,27.0,-27.0,-57.0,-142.0,0.0
5.0,8.0,19.0,-3.0,5.0,-1.0,26.0,-22.0,-52.0,-92.0,0.0
6.0,-2.0,2.0,-12.0,-8.0,5.0,14.0,-30.0,-70.0,-48.0,0.0
-7.0,-8.0,3.0,-24.0,-20.0,4.0,-6.0,-45.0,-85.0,-34.0,0.0
-4.0,-9.0,5.0,-15.0,-16.0,-2.0,-11.0,-60.0,-94.0,-48.0,0.0
-1.0,-11.0,13.0,-11.0,0.0,-9.0,-10.0,-61.0,-69.0,-47.0,0.0
-9.0,-15.0,6.0,-16.0,-3.0,-9.0,-13.0,-35.0,19.0,-44.0,0.0
1.0,-7.0,27.0,3.0,-2.0,-11.0,-10.0,-20.0,78.0,-9.0,0.0
31.0,2.0,39.0,17.0,0.0,-5.0,2.0,-26.0,44.0,5.0,0.0
58.0,1.0,45.0,23.0,3.0,-1.0,17.0,-33.0,1.0,-13.0,0.0
66.0,2.0,38.0,22.0,9.0,0.0,22.0,-30.0,-22.0,2.0,0.0
62.0,-1.0,14.0,15.0,8.0,-8.0,7.0,-40.0,-46.0,33.0,0.0
51.0,-5.0,22.0,8.0,5.0,-14.0,-18.0,-35.0,-39.0,54.0,0.0
44.0,-8.0,2.0,-15.0,-7.0,-41.0,-32.0,4.0,60.0,117.0,0.0
35.0,-23.0,-9.0,-37.0,-19.0,-54.0,-33.0,57.0,176.0,184.0,0.0
26.0,-24.0,3.0,-22.0,-7.0,-35.0,-16.0,48.0,165.0,161.0,0.0
25.0,-10.0,5.0,0.0,-2.0,-21.0,-4.0,18.0,90.0,107.0,0.0
28.0,-9.0,16.0,4.0,-3.0,-24.0,-7.0,16.0,56.0,82.0,0.0
20.0,-1.0,3.0,-5.0,1.0,-15.0,-10.0,16.0,38.0,80.0,0.0
-8.0,-6.0,-2.0,2.0,2.0,-6.0,6.0,7.0,21.0,68.0,0.0
-6.0,4.0,-10.0,6.0,0.0,-6.0,0.0,-3.0,-6.0,49.0,0.0
0.0,13.0,-17.0,9.0,-5.0,-13.0,0.0,-6.0,-20.0,47.0,0.0
9.0,2.0,-22.0,3.0,-4.0,-15.0,3.0,-11.0,-21.0,47.0,0.0
13.0,0.0,-15.0,1.0,-4.0,-2.0,-5.0,-7.0,-37.0,38.0,0.0
15.0,8.0,1.0,9.0,8.0,0.0,-10.0,-14.0,-48.0,15.0,0.0
16.0,25.0,11.0,4.0,14.0,1.0,-17.0,-11.0,-44.0,10.0,0.0
16.0,16.0,0.0,-17.0,10.0,5.0,-26.0,-12.0,-28.0,28.0,0.0
6.0,2.0,4.0,-29.0,9.0,9.0,-21.0,-2.0,-8.0,43.0,0.0
-2.0,-19.0,-28.0,-37.0,7.0,12.0,-10.0,16.0,12.0,43.0,0.0
-10.0,-37.0,-52.0,-55.0,-3.0,0.0,-12.0,27.0,59.0,51.0,0.0
-3.0,-35.0,-40.0,-60.0,-17.0,-7.0,-22.0,19.0,71.0,62.0,0.0
30.0,-9.0,-23.0,-51.0,-10.0,0.0,-19.0,7.0,25.0,87.0,0.0
75.0,8.0,-21.0,-30.0,-3.0,-12.0,-12.0,-2.0,11.0,138.0,0.0
91.0,16.0,3.0,-26.0,-8.0,-16.0,-19.0,-8.0,3.0,155.0,0.0
107.0,23.0,-3.0,-2.0,-11.0,-15.0,-15.0,-3.0,-2.0,145.0,0.0
90.0,23.0,4.0,13.0,4.0,-5.0,-6.0,0.0,-34.0,88.0,0.0
11.0,8.0,2.0,22.0,20.0,2.0,5.0,-21.0,-74.0,-1.0,0.0
-64.0,-21.0,16.0,24.0,23.0,20.0,13.0,-37.0,-95.0,-48.0,0.0
-84.0,-37.0,-3.0,13.0,14.0,25.0,17.0,-31.0,-71.0,-17.0,0.0
-34.0,-16.0,-20.0,13.0,16.0,8.0,5.0,-12.0,30.0,86.0,0.0
26.0,12.0,-18.0,10.0,17.0,1.0,-14.0,15.0,112.0,211.0,0.0
44.0,30.0,0.0,13.0,18.0,-5.0,-29.0,4.0,100.0,244.0,0.0
33.0,19.0,-1.0,10.0,4.0,-16.0,-50.0,-3.0,78.0,171.0,0.0
15.0,26.0,0.0,14.0,9.0,-32.0,-60.0,16.0,87.0,39.0,0.0
-19.0,29.0,8.0,22.0,21.0,-20.0,-43.0,42.0,116.0,8.0,0.0
-46.0,18.0,26.0,14.0,36.0,9.0,-37.0,45.0,89.0,-35.0,0.0
-63.0,10.0,30.0,20.0,51.0,18.0,-46.0,31.0,9.0,-70.0,0.0
-59.0,-10.0,13.0,24.0,43.0,19.0,-28.0,15.0,-46.0,-80.0,0.0
-49.0,-14.0,28.0,18.0,29.0,28.0,39.0,15.0,-74.0,-105.0,0.0
-42.0,-39.0,3.0,-12.0,5.0,20.0,86.0,1.0,-114.0,-140.0,0.0
-3.0,-46.0,-18.0,-30.0,-18.0,5.0,60.0,-24.0,-143.0,-127.0,0.0
30.0,-20.0,-26.0,-24.0,-22.0,-12.0,22.0,-23.0,-119.0,-47.0,0.0
39.0,-19.0,-31.0,-23.0,-28.0,-34.0,-12.0,-13.0,-56.0,9.0,0.0
36.0,-11.0,-32.0,-17.0,-28.0,-31.0,-43.0,0.0,-14.0,25.0,0.0
-4.0,-4.0,-20.0,-8.0,-26.0,-15.0,-38.0,-6.0,-13.0,2.0,0.0
-79.0,-7.0,-18.0,0.0,-12.0,10.0,-7.0,-2.0,-24.0,-61.0,0.0
-118.0,0.0,4.0,15.0,11.0,20.0,40.0,12.0,-30.0,-112.0,0.0
-98.0,15.0,14.0,24.0,20.0,9.0,45.0,26.0,-14.0,-109.0,0.0
-72.0,20.0,16.0,20.0,24.0,0.0,-5.0,4.0,-1.0,-81.0,0.0
-57.0,7.0,12.0,24.0,20.0,-1.0,-35.0,-4.0,2.0,-50.0,0.0
-42.0,6.0,10.0,23.0,14.0,6.0,-42.0,-7.0,5.0,-43.0,0.0
-22.0,15.0,15.0,32.0,17.0,-4.0,-58.0,-11.0,7.0,-44.0,0.0
-19.0,16.0,4.0,30.0,20.0,-7.0,-93.0,-15.0,4.0,-49.0,0.0
-35.0,4.0,-15.0,17.0,-1.0,-6.0,-84.0,-14.0,-7.0,-45.0,0.0
-44.0,-18.0,-32.0,-3.0,-25.0,-10.0,-46.0,6.0,-1.0,-45.0,0.0
-19.0,-23.0,-33.0,-2.0,-20.0,-4.0,-14.0,29.0,6.0,-38.0,0.0
-9.0,-9.0,-17.0,-1.0,-15.0,2.0,-36.0,37.0,11.0,-33.0,0.0
1.0,0.0,-15.0,-11.0,-18.0,9.0,-9.0,25.0,8.0,-27.0,0.0
25.0,6.0,-16.0,-14.0,-23.0,2.0,2.0,8.0,-1.0,-6.0,0.0
36.0,-1.0,-17.0,-25.0,-31.0,-6.0,-11.0,-12.0,-4.0,5.0,0.0
54.0,10.0,-4.0,-49.0,-45.0,-1.0,48.0,-2.0,2.0,38.0,0.0
76.0,36.0,-5.0,-46.0,-38.0,-5.0,95.0,17.0,6.0,71.0,0.0
80.0,41.0,3.0,-26.0,-21.0,-12.0,37.0,3.0,15.0,80.0,0.0
30.0,24.0,7.0,-15.0,-8.0,-5.0,-21.0,-17.0,10.0,42.0,0.0
-22.0,0.0,-13.0,-13.0,-3.0,10.0,-30.0,-21.0,-13.0,-23.0,0.0
-54.0,-7.0,-11.0,-7.0,-2.0,25.0,13.0,0.0,-33.0,-110.0,0.0
-70.0,-8.0,-1.0,11.0,0.0,42.0,98.0,37.0,-37.0,-150.0,0.0
-77.0,-13.0,-15.0,9.0,-3.0,44.0,175.0,60.0,-45.0,-158.0,0.0
-67.0,-3.0,0.0,11.0,-5.0,31.0,133.0,48.0,-52.0,-143.0,0.0
-48.0,1.0,2.0,17.0,-5.0,16.0,60.0,25.0,-42.0,-112.0,0.0
-10.0,14.0,-2.0,5.0,-10.0,5.0,13.0,-4.0,-31.0,-38.0,0.0
19.0,20.0,-13.0,-10.0,-24.0,-11.0,-19.0,-16.0,12.0,74.0,0.0
33.0,12.0,-11.0,-10.0,-27.0,-27.0,-27.0,-16.0,45.0,131.0,0.0
41.0,0.0,-19.0,-19.0,-27.0,-33.0,-36.0,-22.0,73.0,157.0,0.0
17.0,-16.0,-32.0,-31.0,-23.0,-20.0,-31.0,-19.0,70.0,114.0,0.0
-23.0,-19.0,-30.0,-24.0,-19.0,2.0,-32.0,-20.0,43.0,16.0,0.0
-42.0,-11.0,-38.0,-10.0,-5.0,14.0,-36.0,-16.0,26.0,-49.0,0.0
-51.0,-13.0,-25.0,2.0,4.0,18.0,-28.0,-25.0,5.0,-82.0,0.0
-26.0,-3.0,-3.0,18.0,16.0,24.0,-53.0,-37.0,0.0,-69.0,0.0
-27.0,-2.0,-7.0,9.0,8.0,8.0,-65.0,-37.0,-7.0,-45.0,0.0
-68.0,-38.0,-32.0,-26.0,-25.0,0.0,12.0,-11.0,-27.0,-62.0,0.0
-73.0,-64.0,-50.0,-42.0,-41.0,3.0,112.0,18.0,-30.0,-64.0,0.0
-30.0,-35.0,-22.0,-40.0,-31.0,17.0,85.0,34.0,-11.0,-9.0,0.0
26.0,-11.0,-9.0,-28.0,-27.0,4.0,28.0,19.0,-2.0,46.0,0.0
61.0,-15.0,-8.0,-23.0,-18.0,-8.0,0.0,17.0,16.0,104.0,0.0
84.0,-15.0,-14.0,-33.0,-24.0,-13.0,-14.0,21.0,60.0,159.0,0.0
106.0,3.0,-8.0,-25.0,-21.0,-15.0,-24.0,18.0,74.0,145.0,0.0
83.0,1.0,-1.0,-2.0,-5.0,-8.0,-18.0,5.0,57.0,93.0,0.0
57.0,7.0,0.0,6.0,0.0,2.0,-12.0,5.0,38.0,44.0,0.0
54.0,47.0,35.0,14.0,0.0,12.0,-9.0,19.0,28.0,-27.0,0.0
-4.0,82.0,54.0,22.0,5.0,4.0,-11.0,4.0,11.0,-110.0,0.0
-83.0,57.0,22.0,21.0,12.0,6.0,-13.0,-9.0,-5.0,-133.0,0.0
-116.0,11.0,-1.0,21.0,19.0,18.0,-10.0,-11.0,-17.0,-68.0,0.0
-112.0,-21.0,-19.0,3.0,11.0,-1.0,-10.0,-25.0,-43.0,-7.0,0.0
-90.0,-24.0,-33.0,-1.0,-6.0,-11.0,-19.0,-35.0,-57.0,-54.0,0.0
-75.0,-18.0,-32.0,-2.0,-19.0,-14.0,-32.0,-18.0,-56.0,-68.0,0.0
-61.0,-14.0,-13.0,3.0,-12.0,-6.0,-30.0,-14.0,-60.0,-50.0,0.0
-41.0,-3.0,3.0,13.0,7.0,0.0,-13.0,-2.0,-25.0,-38.0,0.0
-19.0,5.0,3.0,23.0,12.0,6.0,-5.0,16.0,8.0,-2.0,0.0
-23.0,4.0,0.0,31.0,2.0,8.0,4.0,24.0,1.0,21.0,0.0
-19.0,-6.0,6.0,31.0,-1.0,9.0,-2.0,29.0,-9.0,23.0,0.0
-9.0,-6.0,5.0,24.0,0.0,6.0,-6.0,21.0,-15.0,37.0,0.0
7.0,-3.0,13.0,22.0,0.0,-2.0,-22.0,8.0,1.0,47.0,0.0
10.0,0.0,17.0,18.0,0.0,-5.0,-29.0,-3.0,25.0,50.0,0.0
12.0,0.0,4.0,21.0,0.0,-12.0,-19.0,-11.0,22.0,38.0,0.0
15.0,-14.0,20.0,17.0,9.0,-8.0,-10.0,0.0,11.0,26.0,0.0
19.0,-14.0,25.0,13.0,2.0,-8.0,-3.0,5.0,-2.0,39.0,0.0
19.0,-3.0,37.0,16.0,1.0,-8.0,-14.0,0.0,-15.0,36.0,0.0
27.0,-2.0,29.0,11.0,4.0,-6.0,-21.0,-14.0,-13.0,16.0,0.0
20.0,-10.0,33.0,20.0,10.0,0.0,-11.0,-29.0,-42.0,-15.0,0.0
6.0,-2.0,20.0,24.0,3.0,8.0,-6.0,-48.0,-117.0,-55.0,0.0
-17.0,13.0,26.0,24.0,8.0,7.0,-7.0,-72.0,-165.0,-76.0,0.0
-13.0,11.0,10.0,16.0,4.0,4.0,-8.0,-70.0,-176.0,-71.0,0.0
-1.0,11.0,-7.0,5.0,-10.0,-6.0,-8.0,-58.0,-174.0,-66.0,0.0
-7.0,5.0,-9.0,-1.0,-1.0,-3.0,-11.0,-39.0,-173.0,-62.0,0.0
2.0,-3.0,-2.0,-2.0,5.0,-4.0,-4.0,-27.0,-160.0,-66.0,0.0
12.0,3.0,-15.0,-12.0,0.0,-27.0,-4.0,-17.0,-101.0,-36.0,0.0
16.0,12.0,-18.0,-15.0,-2.0,-41.0,-18.0,-13.0,-58.0,-35.0,0.0
23.0,7.0,-13.0,-15.0,3.0,-41.0,-28.0,5.0,47.0,-15.0,0.0
56.0,17.0,-5.0,-15.0,2.0,-45.0,-27.0,44.0,217.0,40.0,0.0
98.0,37.0,27.0,-4.0,-2.0,-39.0,-26.0,53.0,300.0,106.0,0.0
123.0,49.0,27.0,-13.0,-8.0,-22.0,-22.0,36.0,264.0,198.0,0.0
114.0,33.0,22.0,-17.0,-20.0,-19.0,-12.0,13.0,168.0,221.0,0.0
83.0,11.0,3.0,-8.0,-17.0,-20.0,-10.0,5.0,104.0,199.0,0.0
47.0,-11.0,-4.0,-21.0,-11.0,-16.0,-3.0,23.0,92.0,180.0,0.0
-8.0,-42.0,0.0,-49.0,9.0,-1.0,13.0,28.0,70.0,30.0,0.0
-52.0,-40.0,18.0,-33.0,18.0,17.0,30.0,40.0,46.0,-108.0,0.0
-62.0,-33.0,5.0,-24.0,6.0,12.0,29.0,44.0,44.0,-116.0,0.0
-47.0,-30.0,-11.0,-26.0,9.0,10.0,29.0,43.0,57.0,-83.0,0.0
-19.0,-20.0,-6.0,-16.0,2.0,4.0,31.0,27.0,48.0,-26.0,0.0
12.0,5.0,-2.0,-7.0,-3.0,-4.0,16.0,4.0,23.0,7.0,0.0
33.0,18.0,0.0,-4.0,-10.0,0.0,9.0,-10.0,6.0,14.0,0.0
44.0,20.0,15.0,2.0,-8.0,13.0,16.0,-10.0,0.0,17.0,0.0
47.0,26.0,16.0,9.0,5.0,18.0,26.0,-2.0,-21.0,3.0,0.0
46.0,22.0,20.0,10.0,18.0,23.0,37.0,-4.0,-34.0,-20.0,0.0
44.0,14.0,21.0,14.0,28.0,20.0,31.0,-16.0,-50.0,-33.0,0.0
30.0,20.0,24.0,20.0,37.0,20.0,19.0,-18.0,-51.0,-42.0,0.0
29.0,34.0,15.0,16.0,28.0,16.0,23.0,-18.0,-69.0,-53.0,0.0
40.0,15.0,24.0,15.0,28.0,7.0,16.0,-23.0,-71.0,-49.0,0.0
60.0,-7.0,10.0,12.0,30.0,-2.0,0.0,-30.0,-81.0,-38.0,0.0
71.0,-8.0,12.0,9.0,15.0,-14.0,-6.0,-22.0,-65.0,-23.0,0.0
61.0,-17.0,-19.0,-18.0,-19.0,-43.0,-25.0,-3.0,31.0,40.0,0.0
31.0,-31.0,-55.0,-51.0,-55.0,-61.0,-41.0,14.0,132.0,121.0,0.0
11.0,-15.0,-45.0,-45.0,-53.0,-28.0,-33.0,4.0,128.0,99.0,0.0
0.0,-8.0,-38.0,-23.0,-40.0,-19.0,-10.0,-15.0,77.0,75.0,0.0
-47.0,-33.0,-15.0,-9.0,-18.0,-4.0,18.0,-6.0,42.0,27.0,0.0
-72.0,-30.0,-10.0,10.0,-2.0,8.0,35.0,-1.0,8.0,-48.0,0.0
-77.0,-7.0,-1.0,26.0,2.0,17.0,25.0,-14.0,-28.0,-103.0,0.0
-53.0,-2.0,13.0,13.0,8.0,23.0,19.0,-19.0,-30.0,-91.0,0.0
-28.0,-5.0,8.0,-3.0,19.0,21.0,19.0,-9.0,-16.0,-63.0,0.0
-19.0,-6.0,24.0,-8.0,29.0,17.0,22.0,0.0,-16.0,-85.0,0.0
-32.0,-3.0,11.0,-10.0,26.0,14.0,10.0,3.0,-19.0,-85.0,0.0
-27.0,-7.0,0.0,-23.0,22.0,16.0,-2.0,-8.0,-19.0,-73.0,0.0
-27.0,-60.0,-3.0,-52.0,9.0,-30.0,-70.0,-38.0,-105.0,-105.0,0.0
-14.0,-54.0,0.0,-48.0,13.0,-32.0,-78.0,-35.0,-113.0,-87.0,0.0
25.0,19.0,3.0,-16.0,22.0,26.0,1.0,2.0,5.0,0.0,0.0
41.0,27.0,2.0,-15.0,20.0,23.0,19.0,8.0,23.0,36.0,0.0
30.0,3.0,-18.0,-16.0,15.0,17.0,15.0,0.0,16.0,29.0,0.0
27.0,6.0,-17.0,-3.0,11.0,15.0,10.0,-2.0,0.0,38.0,0.0
38.0,8.0,5.0,6.0,11.0,18.0,-9.0,-15.0,-5.0,35.0,0.0
23.0,8.0,21.0,13.0,12.0,21.0,-12.0,-28.0,0.0,-11.0,0.0
10.0,27.0,19.0,31.0,22.0,30.0,-5.0,-20.0,0.0,-39.0,0.0
-13.0,35.0,36.0,31.0,26.0,41.0,0.0,0.0,-3.0,-77.0,0.0
-28.0,34.0,49.0,25.0,25.0,43.0,1.0,19.0,14.0,-77.0,0.0
-48.0,8.0,25.0,18.0,19.0,44.0,9.0,24.0,1.0,-75.0,0.0
-85.0,-17.0,-5.0,0.0,-14.0,38.0,29.0,16.0,-35.0,-89.0,0.0
-74.0,-23.0,-15.0,-10.0,-22.0,17.0,26.0,1.0,-29.0,-41.0,0.0
-25.0,-2.0,-4.0,-17.0,-18.0,3.0,-5.0,-4.0,-9.0,13.0,0.0
24.0,18.0,2.0,-18.0,-13.0,9.0,-16.0,-6.0,3.0,52.0,0.0
54.0,23.0,-4.0,-19.0,-12.0,7.0,-22.0,-6.0,26.0,82.0,0.0
78.0,22.0,-4.0,-19.0,-14.0,-5.0,-35.0,-10.0,35.0,88.0,0.0
89.0,19.0,-17.0,-12.0,-11.0,-11.0,-31.0,-7.0,34.0,78.0,0.0
71.0,18.0,-5.0,-12.0,-7.0,-3.0,-26.0,-5.0,21.0,45.0,0.0
32.0,17.0,-1.0,-6.0,1.0,12.0,-19.0,-16.0,0.0,0.0,0.0
-13.0,10.0,3.0,-13.0,-11.0,18.0,1.0,-2.0,-19.0,-44.0,0.0
-46.0,4.0,-12.0,-9.0,-18.0,25.0,31.0,13.0,-25.0,-62.0,0.0
-49.0,4.0,-5.0,7.0,-7.0,32.0,48.0,25.0,-18.0,-37.0,0.0
-60.0,4.0,8.0,24.0,6.0,22.0,33.0,31.0,3.0,-17.0,0.0
-83.0,-5.0,14.0,28.0,13.0,25.0,8.0,37.0,23.0,-19.0,0.0
-82.0,-21.0,4.0,32.0,6.0,24.0,1.0,36.0,26.0,-28.0,0.0
-59.0,-17.0,17.0,34.0,12.0,26.0,-4.0,22.0,16.0,-36.0,0.0
-10.0,10.0,17.0,38.0,16.0,24.0,-21.0,22.0,17.0,-23.0,0.0
32.0,48.0,18.0,43.0,16.0,8.0,-45.0,31.0,40.0,-18.0,0.0
26.0,47.0,12.0,43.0,5.0,3.0,-57.0,35.0,49.0,-3.0,0.0
-13.0,6.0,-7.0,8.0,-6.0,-7.0,-37.0,17.0,24.0,22.0,0.0
-30.0,-28.0,-26.0,-27.0,-19.0,-21.0,12.0,1.0,-23.0,68.0,0.0
-26.0,-16.0,-20.0,-19.0,-11.0,-2.0,26.0,-9.0,-35.0,51.0,0.0
-50.0,-12.0,-24.0,0.0,-2.0,17.0,8.0,-6.0,-36.0,-60.0,0.0
-62.0,-20.0,-18.0,5.0,-4.0,25.0,9.0,2.0,-16.0,-91.0,0.0
-61.0,-11.0,-7.0,-1.0,-2.0,17.0,14.0,0.0,13.0,-73.0,0.0
-61.0,-6.0,0.0,0.0,-7.0,18.0,6.0,7.0,42.0,-31.0,0.0
-54.0,-7.0,2.0,4.0,-11.0,10.0,-29.0,-37.0,4.0,-30.0,0.0
-48.0,-4.0,-2.0,0.0,-9.0,0.0,-42.0,-61.0,-59.0,-82.0,0.0
-45.0,-6.0,6.0,-6.0,2.0,-1.0,5.0,-39.0,-73.0,-107.0,0.0
-28.0,3.0,4.0,3.0,1.0,2.0,44.0,-20.0,-80.0,-109.0,0.0
-16.0,2.0,9.0,2.0,-7.0,4.0,7.0,-27.0,-90.0,-101.0,0.0
-6.0,9.0,22.0,-2.0,-9.0,5.0,-11.0,-47.0,-97.0,-68.0,0.0
11.0,26.0,38.0,-6.0,-1.0,-4.0,-4.0,-38.0,-83.0,-26.0,0.0
10.0,22.0,17.0,-4.0,-17.0,-14.0,-14.0,-37.0,-77.0,-9.0,0.0
6.0,16.0,-3.0,-15.0,-40.0,-8.0,-8.0,-48.0,-48.0,-22.0,0.0
22.0,27.0,6.0,-15.0,-43.0,12.0,65.0,-3.0,75.0,0.0,0.0
45.0,53.0,33.0,6.0,-28.0,20.0,146.0,60.0,161.0,63.0,0.0
32.0,44.0,17.0,13.0,-12.0,25.0,126.0,68.0,128.0,76.0,0.0
0.0,33.0,-9.0,14.0,-12.0,14.0,93.0,49.0,85.0,26.0,0.0
-40.0,24.0,-14.0,11.0,-13.0,4.0,66.0,40.0,68.0,-9.0,0.0
-63.0,17.0,-5.0,20.0,0.0,4.0,20.0,41.0,77.0,-24.0,0.0
-31.0,17.0,7.0,19.0,10.0,14.0,-6.0,28.0,64.0,-1.0,0.0
13.0,24.0,18.0,11.0,15.0,3.0,-30.0,-1.0,19.0,25.0,0.0
29.0,24.0,8.0,4.0,15.0,-14.0,-61.0,-43.0,-26.0,-43.0,0.0
38.0,41.0,1.0,6.0,11.0,-24.0,-107.0,-53.0,-55.0,-114.0,0.0
62.0,56.0,19.0,28.0,23.0,-22.0,-128.0,-54.0,-44.0,-95.0,0.0
59.0,39.0,31.0,31.0,34.0,-8.0,-133.0,-68.0,-76.0,-112.0,0.0
10.0,-18.0,-14.0,10.0,6.0,-1.0,-88.0,-67.0,-107.0,-155.0,0.0
-49.0,-75.0,-72.0,-24.0,-43.0,7.0,55.0,-38.0,-88.0,-112.0,0.0
-11.0,-62.0,-62.0,-29.0,-52.0,12.0,179.0,-1.0,-66.0,18.0,0.0
60.0,-23.0,-56.0,-25.0,-32.0,8.0,153.0,18.0,-45.0,126.0,0.0
88.0,-19.0,-57.0,-19.0,-26.0,3.0,92.0,27.0,-18.0,148.0,0.0
89.0,-24.0,-57.0,-20.0,-37.0,-3.0,95.0,39.0,30.0,127.0,0.0
70.0,-8.0,-40.0,-6.0,-24.0,14.0,113.0,50.0,49.0,110.0,0.0
9.0,-7.0,-43.0,-2.0,-20.0,10.0,69.0,32.0,1.0,29.0,0.0
-67.0,-65.0,-69.0,-21.0,-31.0,-23.0,38.0,54.0,31.0,-23.0,0.0
-104.0,-78.0,-93.0,-28.0,-34.0,-30.0,39.0,83.0,119.0,2.0,0.0
-101.0,-47.0,-61.0,-16.0,-10.0,-4.0,64.0,103.0,177.0,44.0,0.0
-84.0,-14.0,-23.0,4.0,20.0,26.0,74.0,95.0,137.0,35.0,0.0
-47.0,-9.0,-9.0,6.0,20.0,22.0,48.0,67.0,78.0,-7.0,0.0
-33.0,-20.0,-17.0,8.0,5.0,11.0,23.0,46.0,67.0,9.0,0.0
-32.0,-15.0,-33.0,11.0,-3.0,14.0,18.0,47.0,76.0,21.0,0.0
-50.0,5.0,-12.0,13.0,-6.0,18.0,18.0,27.0,44.0,-16.0,0.0
-38.0,20.0,-10.0,6.0,-18.0,3.0,6.0,3.0,22.0,-35.0,0.0
2.0,16.0,-20.0,2.0,-22.0,-6.0,-8.0,0.0,14.0,-34.0,0.0
39.0,26.0,-12.0,1.0,-22.0,-9.0,-14.0,7.0,17.0,8.0,0.0
49.0,29.0,-3.0,-4.0,-7.0,-10.0,-2.0,12.0,30.0,65.0,0.0
41.0,34.0,-2.0,-7.0,-5.0,-11.0,-1.0,-1.0,-2.0,83.0,0.0
37.0,58.0,20.0,0.0,6.0,-11.0,-19.0,-20.0,-45.0,57.0,0.0
26.0,57.0,25.0,17.0,11.0,-13.0,-32.0,-24.0,-49.0,16.0,0.0
-10.0,26.0,18.0,20.0,12.0,-1.0,-20.0,-13.0,-32.0,-8.0,0.0
-17.0,12.0,1.0,8.0,14.0,18.0,5.0,4.0,2.0,15.0,0.0
10.0,4.0,12.0,0.0,10.0,16.0,11.0,18.0,16.0,42.0,0.0
24.0,2.0,15.0,-5.0,5.0,10.0,9.0,18.0,8.0,44.0,0.0
27.0,-7.0,2.0,-7.0,-5.0,-12.0,-3.0,-7.0,2.0,55.0,0.0
28.0,-5.0,3.0,9.0,-12.0,-26.0,-18.0,-24.0,-16.0,40.0,0.0
10.0,-7.0,-4.0,19.0,-2.0,-26.0,-25.0,-27.0,-38.0,4.0,0.0
2.0,-4.0,7.0,24.0,0.0,-28.0,-20.0,-26.0,-52.0,-17.0,0.0
12.0,1.0,5.0,15.0,-10.0,-26.0,-17.0,-20.0,-36.0,29.0,0.0
25.0,-6.0,-15.0,8.0,-23.0,-34.0,-32.0,-3.0,16.0,115.0,0.0
19.0,-18.0,-22.0,4.0,-19.0,-31.0,-36.0,17.0,49.0,121.0,0.0
14.0,-9.0,-9.0,11.0,-2.0,-20.0,-37.0,26.0,42.0,81.0,0.0
25.0,4.0,6.0,16.0,-7.0,-11.0,-39.0,12.0,31.0,49.0,0.0
3.0,-19.0,-22.0,-16.0,-29.0,-5.0,-5.0,18.0,22.0,19.0,0.0
-18.0,-46.0,-29.0,-59.0,-47.0,-14.0,25.0,29.0,13.0,13.0,0.0
10.0,-34.0,-16.0,-54.0,-38.0,-15.0,10.0,15.0,11.0,33.0,0.0
27.0,-13.0,-13.0,-34.0,-23.0,-14.0,-3.0,15.0,13.0,38.0,0.0
19.0,-8.0,-8.0,-24.0,-13.0,-9.0,2.0,21.0,16.0,44.0,0.0
20.0,-18.0,-13.0,-29.0,-10.0,-9.0,-1.0,15.0,23.0,77.0,0.0
19.0,-29.0,-7.0,-28.0,-16.0,-11.0,-21.0,-3.0,3.0,96.0,0.0
-2.0,-33.0,-8.0,-19.0,-19.0,-6.0,-23.0,-8.0,-15.0,61.0,0.0
-47.0,-31.0,2.0,-8.0,-13.0,-2.0,-13.0,-2.0,-20.0,12.0,0.0
-62.0,-35.0,4.0,5.0,-5.0,-8.0,-14.0,-12.0,-26.0,-11.0,0.0
-73.0,-29.0,-2.0,23.0,-3.0,-12.0,-6.0,-5.0,-37.0,-29.0,0.0
-66.0,-27.0,-13.0,34.0,6.0,-4.0,1.0,14.0,-52.0,-41.0,0.0
-38.0,-17.0,-14.0,25.0,11.0,12.0,5.0,22.0,-48.0,-33.0,0.0
-15.0,-8.0,-7.0,25.0,2.0,19.0,-8.0,17.0,-40.0,-18.0,0.0
5.0,-5.0,3.0,30.0,1.0,10.0,-17.0,7.0,-40.0,-5.0,0.0
18.0,0.0,-3.0,19.0,-10.0,-7.0,-16.0,4.0,-32.0,22.0,0.0
20.0,-4.0,-19.0,10.0,-1.0,-19.0,-10.0,0.0,-17.0,52.0,0.0
24.0,0.0,-14.0,-13.0,12.0,-12.0,-7.0,7.0,-7.0,44.0,0.0
26.0,13.0,4.0,-20.0,13.0,-16.0,-16.0,10.0,2.0,44.0,0.0
26.0,8.0,20.0,-13.0,11.0,-20.0,-22.0,11.0,9.0,41.0,0.0
37.0,13.0,23.0,-15.0,17.0,-20.0,-23.0,1.0,4.0,37.0,0.0
38.0,10.0,22.0,-25.0,21.0,-26.0,-24.0,-15.0,-6.0,48.0,0.0
18.0,-11.0,7.0,-24.0,16.0,-15.0,-23.0,-15.0,-11.0,36.0,0.0
7.0,-23.0,-5.0,-24.0,25.0,-7.0,-29.0,-7.0,-13.0,30.0,0.0
-6.0,-16.0,-2.0,-29.0,25.0,-6.0,-13.0,-6.0,-6.0,34.0,0.0
-9.0,-16.0,-14.0,-35.0,14.0,-18.0,8.0,-5.0,0.0,34.0,0.0
2.0,-13.0,-23.0,-31.0,1.0,-30.0,6.0,0.0,-11.0,46.0,0.0
24.0,16.0,-8.0,-17.0,-4.0,-31.0,-12.0,-6.0,-6.0,42.0,0.0
43.0,23.0,12.0,-10.0,-4.0,-22.0,-19.0,1.0,25.0,41.0,0.0
38.0,3.0,29.0,-9.0,-10.0,-19.0,-19.0,-1.0,41.0,75.0,0.0
13.0,-10.0,20.0,-3.0,-19.0,-20.0,-14.0,-8.0,12.0,115.0,0.0
21.0,-20.0,-4.0,-21.0,-28.0,-26.0,-14.0,-5.0,-14.0,151.0,0.0
35.0,-16.0,-2.0,-19.0,-20.0,-26.0,-14.0,-15.0,-22.0,82.0,0.0
38.0,14.0,15.0,-1.0,-11.0,-28.0,-8.0,-9.0,-9.0,16.0,0.0
18.0,21.0,23.0,20.0,5.0,-12.0,-3.0,-2.0,-20.0,-26.0,0.0
-2.0,21.0,24.0,31.0,17.0,7.0,16.0,-7.0,-37.0,-72.0,0.0
-20.0,7.0,5.0,39.0,24.0,5.0,26.0,-3.0,-28.0,-68.0,0.0
-39.0,-19.0,-9.0,39.0,22.0,0.0,18.0,11.0,-8.0,-60.0,0.0
-12.0,-34.0,-9.0,35.0,12.0,-9.0,0.0,12.0,-4.0,-51.0,0.0
18.0,-19.0,-13.0,34.0,10.0,-8.0,-1.0,11.0,4.0,-27.0,0.0
23.0,-9.0,-8.0,23.0,2.0,-7.0,-10.0,3.0,0.0,-26.0,0.0
25.0,0.0,-11.0,23.0,1.0,-9.0,-12.0,6.0,-7.0,-28.0,0.0
32.0,3.0,-13.0,27.0,-7.0,-11.0,-17.0,4.0,-20.0,-31.0,0.0
27.0,26.0,0.0,26.0,-1.0,-11.0,-27.0,1.0,-40.0,-21.0,0.0
30.0,43.0,5.0,27.0,10.0,-15.0,-34.0,-15.0,-49.0,6.0,0.0
41.0,26.0,14.0,35.0,15.0,-23.0,-39.0,-22.0,-46.0,33.0,0.0
49.0,27.0,18.0,35.0,1.0,-21.0,-41.0,-31.0,-40.0,65.0,0.0
50.0,41.0,19.0,24.0,-9.0,-36.0,-63.0,-49.0,-41.0,43.0,0.0
62.0,38.0,17.0,20.0,-8.0,-49.0,-71.0,-39.0,-56.0,11.0,0.0
61.0,16.0,13.0,15.0,-4.0,-29.0,-47.0,-36.0,-36.0,8.0,0.0
40.0,-8.0,6.0,2.0,-9.0,-26.0,-13.0,-30.0,6.0,-7.0,0.0
28.0,-7.0,10.0,-1.0,-6.0,-22.0,-19.0,-22.0,49.0,-76.0,0.0
60.0,20.0,20.0,7.0,-8.0,-13.0,-6.0,-3.0,47.0,-77.0,0.0
76.0,22.0,22.0,15.0,11.0,-9.0,9.0,2.0,6.0,-57.0,0.0
53.0,17.0,12.0,18.0,17.0,-16.0,-27.0,-25.0,-27.0,-81.0,0.0
44.0,19.0,25.0,23.0,9.0,-20.0,-81.0,-44.0,-38.0,-79.0,0.0
33.0,5.0,29.0,23.0,4.0,-29.0,-123.0,-35.0,-25.0,-54.0,0.0
11.0,-13.0,8.0,12.0,-6.0,-20.0,-129.0,-34.0,-47.0,-67.0,0.0
-3.0,-31.0,-8.0,-7.0,-13.0,9.0,-76.0,-32.0,-70.0,-92.0,0.0
-23.0,-39.0,-14.0,-14.0,-8.0,44.0,45.0,-7.0,-78.0,-99.0,0.0
-23.0,-25.0,4.0,12.0,3.0,55.0,207.0,18.0,-43.0,-88.0,0.0
-14.0,-4.0,19.0,35.0,21.0,44.0,255.0,35.0,-17.0,-59.0,0.0
-25.0,-5.0,25.0,24.0,20.0,32.0,161.0,33.0,7.0,-26.0,0.0
-27.0,1.0,27.0,8.0,15.0,16.0,94.0,19.0,0.0,-10.0,0.0
7.0,28.0,26.0,-1.0,11.0,14.0,62.0,0.0,-8.0,7.0,0.0
42.0,36.0,57.0,-14.0,17.0,0.0,28.0,-10.0,-20.0,8.0,0.0
19.0,23.0,48.0,-10.0,24.0,-5.0,17.0,-2.0,-26.0,-44.0,0.0
-19.0,6.0,19.0,-25.0,18.0,-12.0,42.0,9.0,-4.0,-101.0,0.0
-13.0,-6.0,0.0,-46.0,11.0,-22.0,73.0,13.0,21.0,-85.0,0.0
17.0,-13.0,0.0,-33.0,23.0,-6.0,65.0,5.0,0.0,-52.0,0.0
39.0,-11.0,18.0,1.0,23.0,-3.0,22.0,-11.0,1.0,-30.0,0.0
58.0,-4.0,5.0,10.0,10.0,-23.0,-22.0,-15.0,37.0,15.0,0.0
50.0,-6.0,0.0,20.0,8.0,-19.0,-34.0,-20.0,16.0,37.0,0.0
0.0,-24.0,8.0,22.0,19.0,7.0,-29.0,-19.0,-29.0,-48.0,0.0
-61.0,-37.0,7.0,13.0,26.0,31.0,-25.0,-19.0,-75.0,-120.0,0.0
-90.0,-42.0,9.0,0.0,34.0,31.0,-27.0,-9.0,-51.0,-121.0,0.0
-98.0,-31.0,9.0,-18.0,27.0,24.0,-20.0,10.0,46.0,-62.0,0.0
-77.0,-1.0,18.0,-15.0,23.0,18.0,-1.0,17.0,93.0,0.0,0.0
-45.0,32.0,39.0,1.0,37.0,31.0,58.0,12.0,33.0,-10.0,0.0
-23.0,11.0,22.0,10.0,37.0,26.0,96.0,11.0,-19.0,-52.0,0.0
-33.0,-20.0,10.0,-14.0,14.0,3.0,89.0,30.0,-37.0,-69.0,0.0
-52.0,-38.0,3.0,-36.0,0.0,-12.0,70.0,39.0,-53.0,-78.0,0.0
-47.0,-34.0,-1.0,-34.0,10.0,-25.0,36.0,37.0,-59.0,-76.0,0.0
-26.0,-12.0,-4.0,-13.0,11.0,-27.0,21.0,46.0,-57.0,-48.0,0.0
-28.0,-4.0,-23.0,6.0,6.0,-22.0,27.0,49.0,-49.0,-20.0,0.0
-14.0,-4.0,-17.0,22.0,1.0,-11.0,22.0,31.0,-51.0,-24.0,0.0
8.0,-5.0,0.0,27.0,0.0,-11.0,8.0,28.0,3.0,-10.0,0.0
7.0,-5.0,7.0,30.0,-7.0,-14.0,-1.0,44.0,101.0,8.0,0.0
18.0,9.0,23.0,25.0,-4.0,-19.0,-16.0,11.0,112.0,16.0,0.0
7.0,16.0,14.0,26.0,7.0,-22.0,-25.0,-8.0,80.0,9.0,0.0
-10.0,0.0,-18.0,11.0,-10.0,-27.0,-32.0,5.0,76.0,29.0,0.0
-7.0,-9.0,-26.0,-9.0,-17.0,-31.0,-34.0,17.0,88.0,57.0,0.0
11.0,-1.0,-17.0,-2.0,6.0,-26.0,-27.0,30.0,101.0,58.0,0.0
32.0,8.0,0.0,18.0,12.0,-10.0,-38.0,17.0,96.0,82.0,0.0
24.0,10.0,-1.0,26.0,6.0,-15.0,-75.0,-22.0,49.0,79.0,0.0
-5.0,-10.0,-17.0,14.0,-11.0,-3.0,-21.0,-38.0,-2.0,23.0,0.0
-31.0,-29.0,-22.0,2.0,-10.0,15.0,82.0,-30.0,-39.0,-36.0,0.0
-6.0,-10.0,1.0,15.0,1.0,14.0,79.0,-30.0,-35.0,-44.0,0.0
16.0,4.0,12.0,24.0,17.0,14.0,28.0,-35.0,-27.0,-21.0,0.0
7.0,9.0,23.0,38.0,25.0,20.0,3.0,-26.0,-33.0,-19.0,0.0
-1.0,9.0,28.0,44.0,31.0,28.0,1.0,-16.0,-33.0,-28.0,0.0
6.0,11.0,32.0,39.0,35.0,35.0,3.0,-4.0,8.0,15.0,0.0
13.0,8.0,27.0,42.0,30.0,33.0,10.0,11.0,57.0,76.0,0.0
20.0,4.0,33.0,37.0,39.0,24.0,21.0,23.0,73.0,86.0,0.0
-4.0,-9.0,4.0,-4.0,11.0,-3.0,34.0,18.0,34.0,61.0,0.0
-10.0,-16.0,-18.0,-36.0,-15.0,-14.0,43.0,4.0,-16.0,47.0,0.0
62.0,16.0,-16.0,-38.0,-20.0,-28.0,6.0,-19.0,-34.0,47.0,0.0
114.0,43.0,-5.0,-35.0,-13.0,-33.0,-18.0,-36.0,-53.0,-16.0,0.0
104.0,27.0,0.0,-27.0,-16.0,-31.0,-27.0,-32.0,-29.0,-29.0,0.0
70.0,14.0,20.0,-35.0,-19.0,-31.0,-36.0,-13.0,7.0,-8.0,0.0
43.0,19.0,12.0,-8.0,-14.0,-15.0,-32.0,-15.0,-1.0,-31.0,0.0
1.0,23.0,9.0,2.0,-5.0,-14.0,-35.0,-33.0,-31.0,-51.0,0.0
-33.0,19.0,5.0,-5.0,4.0,-10.0,-45.0,-37.0,-49.0,-36.0,0.0
-79.0,-3.0,9.0,4.0,17.0,3.0,-43.0,-37.0,-39.0,0.0,0.0
-102.0,-34.0,17.0,5.0,18.0,2.0,-33.0,-19.0,22.0,47.0,0.0
-122.0,-71.0,15.0,2.0,19.0,12.0,-27.0,13.0,96.0,83.0,0.0
-128.0,-82.0,9.0,-10.0,26.0,20.0,-14.0,21.0,84.0,88.0,0.0
-62.0,-63.0,3.0,-17.0,32.0,29.0,0.0,15.0,46.0,58.0,0.0
-28.0,-53.0,0.0,-21.0,29.0,28.0,-7.0,18.0,46.0,50.0,0.0
-32.0,-58.0,-18.0,-19.0,18.0,17.0,-9.0,34.0,97.0,97.0,0.0
-13.0,-44.0,-22.0,-12.0,11.0,0.0,-23.0,38.0,131.0,174.0,0.0
16.0,-29.0,0.0,-26.0,8.0,-9.0,-51.0,-16.0,89.0,218.0,0.0
25.0,-16.0,-8.0,-63.0,-4.0,-15.0,-65.0,-54.0,13.0,141.0,0.0
50.0,19.0,0.0,-51.0,-3.0,-1.0,-60.0,-43.0,7.0,90.0,0.0
67.0,35.0,18.0,-31.0,5.0,6.0,-42.0,-26.0,14.0,113.0,0.0
40.0,30.0,10.0,-19.0,11.0,16.0,-23.0,-21.0,10.0,116.0,0.0
-22.0,16.0,13.0,3.0,6.0,28.0,-19.0,-10.0,2.0,76.0,0.0
-123.0,4.0,0.0,11.0,-2.0,33.0,-3.0,-5.0,-32.0,12.0,0.0
-224.0,-5.0,-6.0,18.0,-7.0,44.0,-5.0,-21.0,-69.0,-112.0,0.0
-278.0,-32.0,6.0,22.0,-10.0,57.0,-7.0,-38.0,-119.0,-286.0,0.0
-246.0,-24.0,10.0,35.0,-1.0,65.0,2.0,-23.0,-135.0,-355.0,0.0
-184.0,-4.0,15.0,44.0,3.0,65.0,9.0,-15.0,-131.0,-325.0,0.0
-119.0,-4.0,12.0,56.0,10.0,62.0,11.0,-32.0,-137.0,-271.0,0.0
-60.0,7.0,11.0,53.0,13.0,39.0,-5.0,-45.0,-138.0,-205.0,0.0
-9.0,14.0,21.0,39.0,9.0,36.0,-12.0,-55.0,-128.0,-154.0,0.0
32.0,15.0,2.0,26.0,-8.0,25.0,-17.0,-43.0,-116.0,-104.0,0.0
65.0,23.0,-21.0,14.0,-25.0,10.0,-21.0,-45.0,-128.0,-84.0,0.0
71.0,18.0,-23.0,5.0,-27.0,2.0,-17.0,-36.0,-107.0,-45.0,0.0
49.0,2.0,-23.0,-35.0,-45.0,-18.0,-29.0,20.0,30.0,47.0,0.0
0.0,0.0,-25.0,-30.0,-43.0,-30.0,-30.0,50.0,195.0,133.0,0.0
-46.0,18.0,-2.0,14.0,-1.0,1.0,-31.0,39.0,182.0,69.0,0.0
-38.0,31.0,9.0,41.0,10.0,11.0,-27.0,36.0,140.0,31.0,0.0
-35.0,4.0,-25.0,35.0,0.0,4.0,-13.0,20.0,105.0,39.0,0.0
-43.0,-15.0,-38.0,21.0,-1.0,12.0,3.0,0.0,56.0,21.0,0.0
-27.0,-22.0,-29.0,32.0,14.0,17.0,5.0,5.0,30.0,13.0,0.0
-25.0,-16.0,-11.0,37.0,19.0,7.0,14.0,10.0,16.0,27.0,0.0
-19.0,-3.0,-8.0,20.0,-7.0,2.0,37.0,28.0,26.0,49.0,0.0
13.0,0.0,-19.0,11.0,-23.0,8.0,35.0,35.0,28.0,64.0,0.0
41.0,10.0,-19.0,15.0,-10.0,4.0,13.0,23.0,35.0,55.0,0.0
51.0,29.0,-11.0,17.0,0.0,-18.0,-10.0,10.0,30.0,61.0,0.0
39.0,35.0,-15.0,5.0,0.0,-25.0,-2.0,-8.0,16.0,70.0,0.0
41.0,30.0,-14.0,0.0,-3.0,-13.0,7.0,-24.0,-2.0,48.0,0.0
72.0,52.0,7.0,7.0,5.0,-3.0,2.0,-17.0,-19.0,28.0,0.0
95.0,70.0,37.0,19.0,6.0,6.0,0.0,0.0,-25.0,22.0,0.0
72.0,58.0,23.0,35.0,0.0,11.0,15.0,10.0,-35.0,14.0,0.0
63.0,40.0,23.0,41.0,5.0,18.0,30.0,21.0,-42.0,23.0,0.0
77.0,35.0,15.0,35.0,11.0,19.0,26.0,22.0,-29.0,57.0,0.0
49.0,40.0,22.0,24.0,16.0,11.0,20.0,9.0,-24.0,61.0,0.0
1.0,37.0,9.0,26.0,14.0,9.0,13.0,1.0,-40.0,20.0,0.0
-18.0,25.0,-1.0,2.0,3.0,-10.0,-7.0,-5.0,-20.0,20.0,0.0
1.0,15.0,-4.0,-11.0,0.0,-18.0,-22.0,-2.0,-1.0,38.0,0.0
-7.0,3.0,-6.0,-13.0,1.0,-10.0,-28.0,-1.0,3.0,23.0,0.0
-34.0,8.0,-9.0,-19.0,-4.0,-17.0,-21.0,0.0,7.0,5.0,0.0
-44.0,18.0,-19.0,-17.0,-17.0,-23.0,4.0,16.0,6.0,-17.0,0.0
-32.0,5.0,-21.0,-7.0,-25.0,-24.0,46.0,44.0,59.0,12.0,0.0
-7.0,-8.0,-11.0,7.0,-19.0,-18.0,62.0,60.0,96.0,39.0,0.0
-18.0,-28.0,-16.0,-3.0,-12.0,-1.0,62.0,55.0,81.0,20.0,0.0
-54.0,-44.0,-40.0,-18.0,-5.0,0.0,55.0,45.0,43.0,-13.0,0.0
-64.0,-49.0,-45.0,-19.0,-9.0,0.0,53.0,36.0,19.0,-14.0,0.0
-25.0,-37.0,-31.0,-10.0,-12.0,-8.0,53.0,20.0,0.0,3.0,0.0
21.0,-17.0,-12.0,-5.0,-10.0,-22.0,42.0,7.0,-10.0,30.0,0.0
30.0,-10.0,-10.0,-1.0,-13.0,-26.0,30.0,1.0,-25.0,37.0,0.0
36.0,5.0,-1.0,-1.0,-14.0,-20.0,20.0,-4.0,-40.0,41.0,0.0
46.0,29.0,13.0,0.0,-10.0,-16.0,15.0,-6.0,-41.0,43.0,0.0
57.0,34.0,26.0,0.0,-12.0,-14.0,13.0,-18.0,-36.0,37.0,0.0
67.0,26.0,4.0,-7.0,-22.0,-23.0,-2.0,3.0,12.0,67.0,0.0
47.0,5.0,-12.0,-3.0,-20.0,-32.0,-13.0,16.0,100.0,77.0,0.0
12.0,2.0,-5.0,10.0,-20.0,-21.0,-14.0,-8.0,102.0,65.0,0.0
1.0,0.0,3.0,13.0,-20.0,-9.0,-13.0,-21.0,57.0,74.0,0.0
30.0,-4.0,-1.0,19.0,-17.0,-15.0,-29.0,-31.0,17.0,104.0,0.0
58.0,13.0,-6.0,16.0,-26.0,-27.0,-19.0,-36.0,-7.0,121.0,0.0
70.0,33.0,-12.0,3.0,-42.0,-25.0,-12.0,-35.0,1.0,118.0,0.0
77.0,30.0,-10.0,-5.0,-39.0,-28.0,-14.0,-38.0,22.0,144.0,0.0
89.0,30.0,0.0,12.0,-26.0,-21.0,-18.0,-29.0,38.0,158.0,0.0
64.0,47.0,11.0,25.0,-6.0,-22.0,-28.0,-48.0,1.0,84.0,0.0
9.0,39.0,17.0,25.0,-4.0,-15.0,-45.0,-54.0,-47.0,-21.0,0.0
-27.0,20.0,25.0,30.0,14.0,-3.0,-50.0,-25.0,-38.0,-93.0,0.0
-34.0,8.0,23.0,24.0,24.0,-4.0,-63.0,-15.0,0.0,-109.0,0.0
-18.0,8.0,26.0,3.0,29.0,-5.0,-93.0,-11.0,62.0,-88.0,0.0
5.0,17.0,39.0,9.0,31.0,-2.0,-103.0,-3.0,84.0,-66.0,0.0
17.0,16.0,47.0,10.0,18.0,6.0,-54.0,10.0,41.0,-57.0,0.0
-5.0,-6.0,6.0,4.0,0.0,24.0,31.0,34.0,-2.0,-53.0,0.0
-12.0,-29.0,-23.0,-12.0,-9.0,32.0,148.0,36.0,-21.0,-57.0,0.0
-51.0,-61.0,-40.0,-27.0,-22.0,31.0,206.0,32.0,-46.0,-85.0,0.0
-56.0,-81.0,-50.0,-26.0,-41.0,9.0,149.0,26.0,-64.0,-91.0,0.0
-22.0,-71.0,-35.0,-26.0,-37.0,2.0,88.0,18.0,-43.0,-61.0,0.0
28.0,-32.0,-30.0,-23.0,-28.0,7.0,46.0,0.0,-22.0,-20.0,0.0
68.0,4.0,3.0,3.0,-21.0,0.0,3.0,-8.0,-5.0,26.0,0.0
99.0,20.0,32.0,9.0,-11.0,-2.0,-16.0,-1.0,14.0,82.0,0.0
119.0,31.0,17.0,7.0,-11.0,-10.0,-27.0,3.0,35.0,111.0,0.0
123.0,35.0,8.0,1.0,-19.0,-13.0,-49.0,-3.0,31.0,96.0,0.0
108.0,31.0,15.0,-5.0,-21.0,-16.0,-76.0,-22.0,12.0,33.0,0.0
58.0,0.0,11.0,-13.0,-14.0,-1.0,-69.0,-24.0,8.0,-37.0,0.0
8.0,-35.0,4.0,-17.0,-22.0,22.0,-16.0,-7.0,-5.0,-83.0,0.0
2.0,-38.0,-8.0,-12.0,-17.0,40.0,79.0,28.0,-8.0,-73.0,0.0
22.0,-16.0,0.0,-4.0,-8.0,47.0,180.0,62.0,9.0,-49.0,0.0
31.0,-2.0,2.0,-2.0,-6.0,31.0,139.0,51.0,16.0,-27.0,0.0
47.0,0.0,5.0,-16.0,2.0,25.0,55.0,15.0,0.0,-8.0,0.0
71.0,15.0,18.0,-8.0,10.0,24.0,8.0,-7.0,-3.0,-3.0,0.0
82.0,36.0,24.0,-10.0,8.0,20.0,-23.0,-34.0,-12.0,1.0,0.0
96.0,41.0,17.0,-1.0,-7.0,19.0,-63.0,-45.0,-28.0,18.0,0.0
97.0,46.0,18.0,7.0,-8.0,14.0,-105.0,-50.0,-23.0,30.0,0.0
82.0,41.0,23.0,-16.0,-7.0,13.0,-107.0,-51.0,-26.0,25.0,0.0
27.0,-9.0,-11.0,-45.0,-35.0,11.0,-29.0,-38.0,-33.0,13.0,0.0
-26.0,-44.0,-40.0,-66.0,-44.0,19.0,57.0,-9.0,-28.0,21.0,0.0
-61.0,-38.0,-25.0,-65.0,-33.0,27.0,87.0,4.0,-35.0,-61.0,0.0
-57.0,-13.0,2.0,-36.0,-7.0,25.0,105.0,18.0,-11.0,-121.0,0.0
-10.0,3.0,26.0,-20.0,15.0,20.0,79.0,34.0,48.0,-42.0,0.0
22.0,4.0,18.0,-12.0,12.0,14.0,36.0,26.0,51.0,15.0,0.0
27.0,5.0,10.0,6.0,1.0,7.0,-3.0,-1.0,16.0,51.0,0.0
38.0,20.0,11.0,18.0,6.0,-3.0,-23.0,-11.0,8.0,86.0,0.0
57.0,30.0,16.0,31.0,4.0,-11.0,-35.0,-7.0,6.0,81.0,0.0
68.0,43.0,9.0,28.0,2.0,-17.0,-40.0,0.0,10.0,84.0,0.0
60.0,26.0,19.0,12.0,2.0,-15.0,-26.0,21.0,48.0,92.0,0.0
58.0,16.0,-4.0,1.0,0.0,-10.0,-20.0,28.0,62.0,89.0,0.0
29.0,-4.0,-24.0,-9.0,-30.0,-10.0,-18.0,37.0,71.0,125.0,0.0
6.0,-23.0,-35.0,-16.0,-31.0,-7.0,2.0,60.0,82.0,161.0,0.0
-7.0,-17.0,-30.0,-3.0,-24.0,0.0,0.0,28.0,17.0,85.0,0.0
-44.0,-6.0,-12.0,4.0,-9.0,11.0,-17.0,-2.0,-50.0,-76.0,0.0
-91.0,-4.0,0.0,7.0,16.0,40.0,12.0,-2.0,-61.0,-137.0,0.0
-110.0,-14.0,25.0,27.0,41.0,63.0,49.0,6.0,-50.0,-136.0,0.0
-104.0,-23.0,42.0,26.0,58.0,59.0,30.0,2.0,-55.0,-119.0,0.0
-77.0,-21.0,22.0,9.0,47.0,42.0,0.0,-3.0,-56.0,-99.0,0.0
-35.0,-2.0,32.0,12.0,33.0,43.0,-11.0,-3.0,-61.0,-72.0,0.0
-24.0,26.0,47.0,13.0,37.0,39.0,-10.0,-11.0,-76.0,-69.0,0.0
-39.0,19.0,44.0,-14.0,16.0,27.0,5.0,-5.0,-51.0,-71.0,0.0
-49.0,-1.0,25.0,-38.0,-7.0,11.0,6.0,17.0,-1.0,-42.0,0.0
-58.0,-23.0,13.0,-41.0,-2.0,6.0,3.0,26.0,28.0,-1.0,0.0
-88.0,-42.0,-2.0,-42.0,-5.0,19.0,26.0,43.0,22.0,-8.0,0.0
-112.0,-54.0,2.0,-52.0,-4.0,28.0,40.0,49.0,-11.0,-51.0,0.0
-101.0,-52.0,2.0,-40.0,5.0,28.0,48.0,25.0,-33.0,-58.0,0.0
-74.0,-27.0,-2.0,-25.0,-4.0,14.0,27.0,8.0,-33.0,-21.0,0.0
-70.0,-17.0,-1.0,-32.0,-26.0,-1.0,-13.0,17.0,-1.0,22.0,0.0
-48.0,-28.0,11.0,-35.0,-41.0,-21.0,-36.0,35.0,50.0,44.0,0.0
-23.0,-25.0,7.0,-31.0,-35.0,-25.0,-42.0,28.0,60.0,34.0,0.0
3.0,-5.0,11.0,-21.0,-34.0,-32.0,-36.0,13.0,38.0,30.0,0.0
45.0,16.0,1.0,-13.0,-27.0,-35.0,-25.0,-4.0,37.0,103.0,0.0
65.0,13.0,-27.0,-18.0,-22.0,-27.0,-38.0,-7.0,39.0,177.0,0.0
66.0,10.0,-28.0,-15.0,-19.0,-26.0,-38.0,1.0,33.0,181.0,0.0
43.0,9.0,-10.0,-12.0,-5.0,-10.0,-22.0,3.0,18.0,138.0,0.0
-9.0,21.0,10.0,4.0,10.0,7.0,-11.0,0.0,-11.0,38.0,0.0
-48.0,23.0,20.0,25.0,29.0,9.0,0.0,1.0,-39.0,-49.0,0.0
-81.0,13.0,44.0,42.0,35.0,17.0,18.0,22.0,-30.0,-74.0,0.0
-79.0,6.0,47.0,50.0,45.0,17.0,26.0,37.0,-7.0,-46.0,0.0
-63.0,10.0,57.0,55.0,47.0,22.0,19.0,0.0,-22.0,-49.0,0.0
-57.0,12.0,47.0,66.0,43.0,21.0,19.0,-34.0,-81.0,-102.0,0.0
-58.0,2.0,36.0,63.0,31.0,16.0,10.0,-53.0,-123.0,-119.0,0.0
-27.0,3.0,30.0,50.0,15.0,4.0,-6.0,-63.0,-130.0,-102.0,0.0
10.0,9.0,21.0,38.0,-1.0,1.0,-26.0,-58.0,-123.0,-48.0,0.0
23.0,5.0,13.0,21.0,-17.0,-15.0,-33.0,-55.0,-119.0,-6.0,0.0
8.0,0.0,-5.0,8.0,-20.0,-28.0,-29.0,-52.0,-115.0,-1.0,0.0
-11.0,-17.0,-1.0,8.0,-22.0,-34.0,-27.0,-31.0,-87.0,-2.0,0.0
-44.0,-15.0,-21.0,-3.0,-37.0,-34.0,-38.0,-5.0,-10.0,-5.0,0.0
-73.0,-8.0,-37.0,-16.0,-57.0,-50.0,-41.0,22.0,127.0,58.0,0.0
-69.0,-5.0,-26.0,-11.0,-54.0,-52.0,-32.0,57.0,232.0,112.0,0.0
-20.0,-13.0,-14.0,1.0,-26.0,-37.0,-19.0,73.0,244.0,102.0,0.0
22.0,-15.0,-3.0,-5.0,-14.0,-21.0,-7.0,63.0,209.0,112.0,0.0
52.0,-11.0,-3.0,-22.0,-14.0,-27.0,-10.0,43.0,168.0,153.0,0.0
74.0,-4.0,6.0,-22.0,-23.0,-26.0,-15.0,20.0,123.0,217.0,0.0
72.0,9.0,-3.0,-6.0,-25.0,-24.0,-34.0,4.0,71.0,198.0,0.0
57.0,5.0,13.0,-1.0,-12.0,-28.0,-50.0,-13.0,29.0,116.0,0.0
25.0,-15.0,21.0,5.0,-7.0,-11.0,-28.0,-31.0,-9.0,1.0,0.0
3.0,-16.0,10.0,5.0,5.0,-3.0,-30.0,-46.0,-50.0,-81.0,0.0
-26.0,-10.0,16.0,12.0,25.0,14.0,-15.0,-27.0,-43.0,-110.0,0.0
-55.0,-17.0,35.0,6.0,35.0,26.0,20.0,-19.0,-44.0,-141.0,0.0
-41.0,-3.0,36.0,1.0,37.0,36.0,41.0,-20.0,-72.0,-152.0,0.0
-11.0,14.0,31.0,-3.0,22.0,20.0,18.0,-37.0,-96.0,-147.0,0.0
11.0,21.0,28.0,-15.0,17.0,13.0,2.0,-48.0,-96.0,-123.0,0.0
31.0,33.0,27.0,-19.0,10.0,11.0,-20.0,-60.0,-118.0,-95.0,0.0
44.0,31.0,32.0,-15.0,-2.0,4.0,-28.0,-68.0,-152.0,-83.0,0.0
67.0,31.0,29.0,7.0,-5.0,-8.0,-21.0,-57.0,-163.0,-92.0,0.0
100.0,47.0,37.0,25.0,5.0,-11.0,-1.0,-27.0,-145.0,-48.0,0.0
108.0,42.0,42.0,40.0,6.0,-3.0,-7.0,-16.0,-117.0,2.0,0.0
75.0,-16.0,26.0,29.0,3.0,-23.0,-26.0,0.0,20.0,102.0,0.0
50.0,-45.0,10.0,2.0,-9.0,-50.0,-40.0,40.0,200.0,210.0,0.0
34.0,-26.0,10.0,13.0,2.0,-35.0,-45.0,36.0,194.0,92.0,0.0
27.0,-16.0,15.0,28.0,12.0,-7.0,-27.0,37.0,143.0,11.0,0.0
-23.0,-32.0,-1.0,7.0,5.0,3.0,3.0,49.0,102.0,0.0,0.0
-81.0,-68.0,-42.0,-14.0,0.0,13.0,47.0,40.0,29.0,-78.0,0.0
-88.0,-72.0,-29.0,-4.0,10.0,12.0,41.0,22.0,-9.0,-100.0,0.0
-69.0,-46.0,-19.0,3.0,14.0,4.0,8.0,-3.0,-23.0,-72.0,0.0
-51.0,-36.0,-15.0,2.0,25.0,5.0,8.0,1.0,5.0,-25.0,0.0
-30.0,-20.0,-4.0,-2.0,15.0,3.0,5.0,-1.0,17.0,-7.0,0.0
2.0,-3.0,-11.0,-10.0,-2.0,-4.0,-12.0,-7.0,16.0,22.0,0.0
41.0,16.0,6.0,-15.0,-10.0,-10.0,-24.0,0.0,50.0,55.0,0.0
64.0,17.0,6.0,-28.0,-7.0,-20.0,-28.0,-1.0,77.0,69.0,0.0
64.0,25.0,-10.0,-37.0,-11.0,-23.0,-37.0,-11.0,65.0,86.0,0.0
41.0,31.0,1.0,-31.0,-13.0,-20.0,-52.0,-17.0,23.0,82.0,0.0
13.0,9.0,14.0,-23.0,-8.0,-15.0,-54.0,-27.0,-8.0,32.0,0.0
-10.0,-7.0,23.0,-1.0,26.0,2.0,-40.0,-20.0,-19.0,-69.0,0.0
-11.0,-17.0,15.0,2.0,27.0,15.0,-9.0,-6.0,-23.0,-115.0,0.0
-32.0,-45.0,-11.0,-29.0,8.0,10.0,40.0,-4.0,-72.0,-129.0,0.0
-21.0,-31.0,-12.0,-24.0,8.0,13.0,70.0,1.0,-73.0,-78.0,0.0
0.0,-7.0,3.0,-14.0,12.0,8.0,41.0,-7.0,-52.0,-15.0,0.0
11.0,14.0,17.0,-8.0,12.0,-6.0,8.0,-22.0,-42.0,5.0,0.0
15.0,33.0,27.0,4.0,5.0,-13.0,-8.0,-24.0,-48.0,-16.0,0.0
14.0,29.0,24.0,22.0,1.0,-4.0,-20.0,-15.0,-51.0,-46.0,0.0
-3.0,19.0,17.0,19.0,5.0,-10.0,-41.0,-16.0,-39.0,-56.0,0.0
-13.0,8.0,9.0,5.0,-11.0,-13.0,-45.0,-21.0,-37.0,-50.0,0.0
-24.0,-16.0,-15.0,-7.0,-21.0,-9.0,-23.0,-14.0,-36.0,-52.0,0.0
-48.0,-34.0,-29.0,-25.0,-23.0,-5.0,19.0,-8.0,-47.0,-74.0,0.0
-58.0,-15.0,-10.0,-9.0,-12.0,2.0,99.0,0.0,-46.0,-75.0,0.0
-58.0,8.0,2.0,3.0,5.0,12.0,123.0,17.0,0.0,-38.0,0.0
-47.0,7.0,-12.0,6.0,9.0,12.0,60.0,20.0,35.0,24.0,0.0
-42.0,3.0,-5.0,13.0,9.0,21.0,13.0,22.0,28.0,26.0,0.0
-37.0,19.0,16.0,20.0,0.0,16.0,7.0,11.0,-1.0,10.0,0.0
-22.0,20.0,13.0,25.0,3.0,5.0,-3.0,8.0,1.0,13.0,0.0
28.0,23.0,13.0,25.0,11.0,-13.0,-15.0,1.0,35.0,24.0,0.0
77.0,38.0,22.0,21.0,17.0,-35.0,-48.0,1.0,81.0,40.0,0.0
109.0,43.0,19.0,16.0,19.0,-38.0,-76.0,-1.0,103.0,66.0,0.0
130.0,37.0,19.0,13.0,17.0,-34.0,-88.0,-21.0,80.0,65.0,0.0
167.0,37.0,16.0,11.0,29.0,-48.0,-109.0,-37.0,48.0,59.0,0.0
170.0,51.0,19.0,4.0,21.0,-61.0,-121.0,-40.0,27.0,64.0,0.0
120.0,50.0,11.0,-19.0,-3.0,-63.0,-99.0,-31.0,26.0,57.0,0.0
56.0,21.0,5.0,-43.0,-21.0,-58.0,-72.0,-14.0,29.0,54.0,0.0
0.0,5.0,-1.0,-41.0,-17.0,-38.0,-41.0,11.0,27.0,40.0,0.0
-84.0,-25.0,-11.0,-34.0,-10.0,0.0,10.0,40.0,18.0,13.0,0.0
-190.0,-68.0,-33.0,-34.0,-9.0,42.0,149.0,67.0,8.0,-30.0,0.0
-165.0,-80.0,-29.0,-28.0,-5.0,39.0,183.0,69.0,7.0,-43.0,0.0
-85.0,-67.0,-35.0,-40.0,-14.0,3.0,103.0,21.0,-7.0,-50.0,0.0
-59.0,-40.0,-44.0,-48.0,-35.0,-4.0,62.0,0.0,-5.0,-50.0,0.0
-61.0,-28.0,-30.0,-41.0,-35.0,-4.0,65.0,12.0,15.0,-35.0,0.0
-65.0,-30.0,-34.0,-40.0,-30.0,-11.0,57.0,19.0,29.0,-18.0,0.0
-62.0,-30.0,-51.0,-40.0,-32.0,-14.0,38.0,15.0,1.0,-15.0,0.0
-53.0,-47.0,-51.0,-47.0,-28.0,-19.0,35.0,3.0,-28.0,-55.0,0.0
-22.0,-39.0,-37.0,-35.0,-15.0,-15.0,31.0,4.0,-11.0,-72.0,0.0
14.0,-12.0,-26.0,-16.0,-4.0,-2.0,20.0,3.0,-5.0,-85.0,0.0
4.0,-1.0,2.0,-1.0,15.0,8.0,21.0,0.0,-32.0,-108.0,0.0
-37.0,-26.0,18.0,2.0,20.0,-1.0,11.0,-14.0,-48.0,-123.0,0.0
-92.0,-70.0,-22.0,-4.0,15.0,-40.0,-20.0,-35.0,-72.0,-129.0,0.0
-130.0,-71.0,-51.0,-6.0,21.0,-53.0,-33.0,-43.0,-73.0,-115.0,0.0
-110.0,-47.0,-48.0,-2.0,25.0,-46.0,-19.0,-33.0,-38.0,-83.0,0.0
-61.0,-34.0,-35.0,14.0,21.0,-30.0,1.0,-20.0,-13.0,-56.0,0.0
-40.0,-32.0,-12.0,40.0,23.0,-21.0,0.0,-24.0,-7.0,-51.0,0.0
-71.0,-29.0,-5.0,38.0,22.0,-39.0,-21.0,-44.0,-25.0,-74.0,0.0
-96.0,-37.0,-27.0,28.0,0.0,-56.0,-69.0,-68.0,-52.0,-98.0,0.0
-105.0,-60.0,-43.0,11.0,-20.0,-64.0,-97.0,-73.0,-56.0,-114.0,0.0
-99.0,-72.0,-67.0,-8.0,-48.0,-71.0,-98.0,-64.0,-46.0,-123.0,0.0
-65.0,-78.0,-81.0,-29.0,-71.0,-47.0,-61.0,-51.0,-35.0,-98.0,0.0
-37.0,-64.0,-80.0,-28.0,-54.0,34.0,13.0,-18.0,-21.0,-36.0,0.0
-25.0,-54.0,-69.0,-4.0,-2.0,169.0,61.0,0.0,-15.0,49.0,0.0
-6.0,-29.0,-54.0,-11.0,-10.0,257.0,96.0,8.0,-10.0,82.0,0.0
24.0,5.0,-42.0,-30.0,-57.0,226.0,100.0,30.0,6.0,94.0,0.0
29.0,14.0,-15.0,-18.0,-37.0,113.0,41.0,23.0,1.0,83.0,0.0
27.0,31.0,18.0,13.0,44.0,0.0,-12.0,7.0,7.0,76.0,0.0
45.0,71.0,21.0,18.0,105.0,-63.0,-25.0,9.0,12.0,47.0,0.0
80.0,100.0,46.0,34.0,115.0,-93.0,-32.0,27.0,45.0,56.0,0.0
102.0,116.0,61.0,24.0,77.0,-49.0,-15.0,48.0,80.0,71.0,0.0
73.0,102.0,65.0,13.0,72.0,60.0,28.0,59.0,82.0,27.0,0.0
68.0,98.0,63.0,31.0,64.0,90.0,75.0,65.0,49.0,10.0,0.0
86.0,84.0,49.0,19.0,13.0,14.0,65.0,65.0,31.0,41.0,0.0
78.0,61.0,17.0,0.0,-6.0,-81.0,17.0,41.0,23.0,56.0,0.0
69.0,59.0,3.0,-10.0,-17.0,-138.0,-16.0,18.0,23.0,68.0,0.0
58.0,67.0,-2.0,-12.0,-26.0,-162.0,-25.0,-11.0,12.0,68.0,0.0
33.0,46.0,-2.0,7.0,-26.0,-136.0,-21.0,-20.0,-2.0,66.0,0.0
49.0,39.0,-3.0,16.0,-15.0,-65.0,-21.0,-8.0,2.0,91.0,0.0
129.0,59.0,2.0,17.0,0.0,26.0,-31.0,-28.0,10.0,144.0,0.0
234.0,92.0,9.0,27.0,7.0,108.0,-32.0,-28.0,20.0,188.0,0.0
284.0,116.0,40.0,35.0,10.0,104.0,-15.0,-2.0,55.0,210.0,0.0
183.0,75.0,49.0,52.0,35.0,54.0,2.0,30.0,79.0,138.0,0.0
30.0,38.0,46.0,79.0,72.0,5.0,11.0,31.0,24.0,-20.0,0.0
-117.0,12.0,39.0,83.0,59.0,-49.0,17.0,28.0,-16.0,-129.0,0.0
-234.0,-14.0,33.0,72.0,46.0,-72.0,19.0,28.0,-28.0,-173.0,0.0
-238.0,-23.0,31.0,53.0,34.0,-82.0,25.0,35.0,-45.0,-164.0,0.0
-170.0,-16.0,31.0,23.0,-11.0,-101.0,21.0,32.0,-63.0,-112.0,0.0
-123.0,-15.0,25.0,-26.0,-50.0,-99.0,0.0,1.0,-69.0,-46.0,0.0
-110.0,-34.0,-3.0,-52.0,-91.0,-87.0,-27.0,-18.0,-79.0,-22.0,0.0
-119.0,-50.0,-45.0,-61.0,-113.0,-75.0,-33.0,-36.0,-83.0,-13.0,0.0
-111.0,-51.0,-60.0,-63.0,-93.0,-58.0,-20.0,-37.0,-21.0,46.0,0.0
-61.0,-40.0,-58.0,-52.0,-40.0,-3.0,-25.0,-3.0,72.0,85.0,0.0
-33.0,-26.0,-42.0,-19.0,88.0,147.0,-33.0,-1.0,57.0,8.0,0.0
-17.0,-26.0,-34.0,-7.0,169.0,315.0,30.0,2.0,10.0,-29.0,0.0
-4.0,-41.0,-27.0,-27.0,120.0,347.0,112.0,37.0,-3.0,-48.0,0.0
53.0,-3.0,20.0,-21.0,16.0,231.0,112.0,56.0,14.0,-26.0,0.0
113.0,27.0,44.0,3.0,-32.0,95.0,73.0,46.0,24.0,35.0,0.0
125.0,14.0,48.0,8.0,-33.0,-22.0,23.0,31.0,24.0,65.0,0.0
116.0,38.0,59.0,10.0,-24.0,-119.0,-18.0,20.0,29.0,78.0,0.0
95.0,72.0,55.0,1.0,-20.0,-136.0,-48.0,-5.0,23.0,57.0,0.0
90.0,68.0,45.0,10.0,-13.0,-116.0,-30.0,-8.0,11.0,18.0,0.0
87.0,57.0,36.0,-6.0,-9.0,-63.0,-10.0,11.0,13.0,3.0,0.0
70.0,43.0,46.0,-10.0,5.0,-27.0,-9.0,5.0,4.0,1.0,0.0
55.0,16.0,42.0,2.0,12.0,-9.0,-4.0,0.0,-2.0,22.0,0.0
40.0,19.0,25.0,20.0,20.0,8.0,0.0,9.0,7.0,33.0,0.0
13.0,22.0,23.0,44.0,24.0,9.0,-8.0,14.0,34.0,4.0,0.0
-12.0,36.0,22.0,52.0,19.0,6.0,-19.0,4.0,54.0,-22.0,0.0
-32.0,20.0,20.0,44.0,10.0,3.0,-20.0,-10.0,44.0,-35.0,0.0
-46.0,-12.0,11.0,30.0,5.0,11.0,6.0,-20.0,10.0,-54.0,0.0
-30.0,-26.0,7.0,28.0,6.0,11.0,19.0,-11.0,3.0,-78.0,0.0
-31.0,-27.0,13.0,21.0,14.0,0.0,20.0,3.0,-28.0,-102.0,0.0
-41.0,-33.0,13.0,27.0,12.0,2.0,17.0,13.0,-41.0,-100.0,0.0
-40.0,-27.0,14.0,29.0,12.0,16.0,27.0,10.0,-11.0,-63.0,0.0
-29.0,-16.0,19.0,23.0,10.0,2.0,27.0,-7.0,-5.0,-10.0,0.0
-17.0,-6.0,22.0,13.0,-2.0,-6.0,22.0,-4.0,2.0,31.0,0.0
-18.0,-11.0,11.0,2.0,-10.0,-27.0,12.0,2.0,19.0,85.0,0.0
-23.0,-10.0,-9.0,-25.0,-15.0,-27.0,3.0,-7.0,16.0,50.0,0.0
-23.0,1.0,-28.0,-45.0,-11.0,-12.0,0.0,-7.0,1.0,-24.0,0.0
-12.0,9.0,-20.0,-45.0,-11.0,-22.0,-4.0,-7.0,-5.0,-10.0,0.0
-11.0,11.0,-33.0,-37.0,-16.0,-23.0,-18.0,-19.0,-20.0,37.0,0.0
-24.0,-9.0,-48.0,-46.0,-27.0,-33.0,-30.0,-37.0,-28.0,87.0,0.0
-31.0,-22.0,-44.0,-50.0,-27.0,-25.0,-47.0,-62.0,-73.0,34.0,0.0
-27.0,-17.0,-27.0,-33.0,-17.0,-11.0,-40.0,-65.0,-109.0,-66.0,0.0
-2.0,1.0,-6.0,-11.0,0.0,-7.0,-28.0,-54.0,-130.0,-107.0,0.0
1.0,2.0,2.0,-2.0,6.0,1.0,-9.0,-37.0,-98.0,-109.0,0.0
19.0,-3.0,-9.0,-3.0,5.0,-4.0,-12.0,-17.0,-19.0,-60.0,0.0
69.0,1.0,-10.0,-5.0,0.0,-5.0,-4.0,-8.0,10.0,-23.0,0.0
79.0,2.0,-15.0,0.0,-5.0,-13.0,15.0,-3.0,10.0,-5.0,0.0
51.0,-9.0,-29.0,3.0,-16.0,-18.0,25.0,11.0,28.0,45.0,0.0
34.0,-8.0,-32.0,0.0,-14.0,-21.0,30.0,15.0,51.0,106.0,0.0
2.0,12.0,-5.0,18.0,5.0,-12.0,20.0,0.0,31.0,104.0,0.0
-2.0,35.0,16.0,37.0,25.0,0.0,2.0,-11.0,9.0,63.0,0.0
26.0,25.0,9.0,38.0,34.0,0.0,-12.0,-15.0,6.0,75.0,0.0
53.0,20.0,3.0,33.0,35.0,-6.0,-3.0,-5.0,19.0,85.0,0.0
54.0,5.0,6.0,28.0,33.0,-9.0,-2.0,-2.0,30.0,78.0,0.0
46.0,-15.0,-1.0,37.0,28.0,-3.0,-3.0,-10.0,12.0,56.0,0.0
44.0,-7.0,-2.0,38.0,26.0,-10.0,-10.0,-8.0,-6.0,43.0,0.0
34.0,12.0,11.0,36.0,26.0,-4.0,-28.0,-18.0,-9.0,19.0,0.0
-4.0,-1.0,-3.0,19.0,20.0,-10.0,-21.0,-16.0,-16.0,-8.0,0.0
-48.0,-50.0,-29.0,-7.0,1.0,0.0,26.0,10.0,-5.0,-29.0,0.0
-36.0,-51.0,-33.0,-16.0,-1.0,16.0,81.0,26.0,-1.0,-39.0,0.0
14.0,-23.0,-12.0,-9.0,10.0,22.0,86.0,16.0,6.0,-22.0,0.0
25.0,-10.0,-11.0,0.0,10.0,22.0,62.0,8.0,-13.0,-17.0,0.0
2.0,-6.0,-13.0,11.0,21.0,18.0,39.0,-1.0,-44.0,-32.0,0.0
-20.0,-8.0,-11.0,16.0,30.0,34.0,39.0,-7.0,-52.0,-50.0,0.0
-35.0,-11.0,-2.0,18.0,33.0,33.0,57.0,7.0,-59.0,-65.0,0.0
-11.0,-10.0,-9.0,13.0,19.0,30.0,60.0,9.0,-65.0,-65.0,0.0
13.0,3.0,2.0,15.0,11.0,26.0,35.0,9.0,-66.0,-46.0,0.0
8.0,17.0,9.0,14.0,13.0,17.0,10.0,6.0,-61.0,-29.0,0.0
-10.0,14.0,-9.0,5.0,8.0,14.0,7.0,7.0,-45.0,-10.0,0.0
-17.0,8.0,-20.0,-12.0,-6.0,-5.0,-2.0,-1.0,-12.0,4.0,0.0
2.0,12.0,-18.0,-9.0,-8.0,-12.0,-15.0,4.0,55.0,11.0,0.0
21.0,27.0,1.0,5.0,-1.0,-1.0,-17.0,-2.0,41.0,-7.0,0.0
11.0,17.0,-11.0,0.0,-1.0,1.0,-11.0,-26.0,-13.0,-19.0,0.0
1.0,-3.0,-25.0,-18.0,-25.0,-19.0,-31.0,-32.0,-27.0,35.0,0.0
-1.0,-14.0,-17.0,-7.0,-32.0,-22.0,-55.0,-26.0,-42.0,60.0,0.0
-9.0,3.0,31.0,11.0,-3.0,-3.0,-56.0,-37.0,-66.0,5.0,0.0
-21.0,0.0,36.0,25.0,19.0,4.0,-52.0,-50.0,-90.0,-35.0,0.0
-1.0,-17.0,-4.0,22.0,6.0,-6.0,-77.0,-28.0,-50.0,29.0,0.0
15.0,-42.0,-24.0,1.0,-5.0,-26.0,-115.0,12.0,57.0,88.0,0.0
-3.0,-45.0,-11.0,-10.0,-9.0,-39.0,-147.0,62.0,210.0,132.0,0.0
-20.0,-18.0,-14.0,-2.0,-18.0,-48.0,-166.0,71.0,313.0,162.0,0.0
-41.0,14.0,-13.0,-6.0,-34.0,-30.0,-123.0,60.0,238.0,112.0,0.0
-44.0,2.0,-37.0,-38.0,-47.0,-18.0,9.0,42.0,126.0,106.0,0.0
-1.0,-6.0,-44.0,-44.0,-40.0,-18.0,102.0,44.0,88.0,186.0,0.0
56.0,5.0,-42.0,-45.0,-30.0,-33.0,75.0,36.0,95.0,237.0,0.0
81.0,10.0,-32.0,-40.0,-17.0,-35.0,-14.0,2.0,78.0,256.0,0.0
43.0,12.0,-30.0,-39.0,-11.0,-26.0,-21.0,-11.0,35.0,221.0,0.0
-29.0,-14.0,-37.0,-40.0,-5.0,-2.0,65.0,0.0,-24.0,4.0,0.0
-85.0,-17.0,-26.0,-29.0,4.0,20.0,125.0,33.0,-49.0,-237.0,0.0
-131.0,-20.0,-20.0,-23.0,2.0,29.0,87.0,50.0,-49.0,-286.0,0.0
-122.0,-11.0,-13.0,-29.0,-5.0,23.0,37.0,41.0,-55.0,-275.0,0.0
-64.0,0.0,-5.0,-29.0,-11.0,0.0,6.0,22.0,-66.0,-226.0,0.0
-19.0,-17.0,-2.0,-35.0,-12.0,-15.0,17.0,10.0,-81.0,-179.0,0.0
21.0,-19.0,-15.0,-34.0,4.0,6.0,37.0,34.0,-49.0,-114.0,0.0
51.0,8.0,0.0,-12.0,9.0,14.0,33.0,35.0,-24.0,-64.0,0.0
23.0,11.0,21.0,7.0,10.0,19.0,28.0,28.0,0.0,-43.0,0.0
-28.0,14.0,13.0,8.0,21.0,15.0,13.0,25.0,5.0,-56.0,0.0
-61.0,19.0,15.0,3.0,21.0,17.0,4.0,24.0,5.0,-57.0,0.0
-67.0,16.0,11.0,2.0,27.0,9.0,-1.0,37.0,8.0,-31.0,0.0
-20.0,17.0,34.0,12.0,30.0,13.0,-5.0,37.0,16.0,17.0,0.0
22.0,13.0,40.0,16.0,19.0,12.0,1.0,25.0,19.0,23.0,0.0
-10.0,-1.0,11.0,6.0,10.0,8.0,10.0,15.0,-1.0,-21.0,0.0
2.0,12.0,15.0,3.0,4.0,7.0,13.0,17.0,-4.0,-17.0,0.0
43.0,19.0,38.0,9.0,16.0,14.0,-2.0,15.0,18.0,15.0,0.0
44.0,2.0,12.0,-6.0,18.0,6.0,7.0,13.0,11.0,13.0,0.0
37.0,-24.0,-37.0,-39.0,-14.0,2.0,38.0,6.0,-16.0,-27.0,0.0
69.0,-16.0,-31.0,-19.0,-19.0,0.0,15.0,-8.0,-33.0,-9.0,0.0
75.0,-10.0,-23.0,12.0,-10.0,0.0,-11.0,-29.0,-55.0,9.0,0.0
36.0,-17.0,-16.0,22.0,7.0,2.0,-18.0,-55.0,-111.0,-22.0,0.0
0.0,-14.0,14.0,46.0,21.0,14.0,-35.0,-73.0,-152.0,-92.0,0.0
-27.0,-3.0,31.0,59.0,34.0,35.0,-45.0,-65.0,-162.0,-120.0,0.0
-64.0,-9.0,22.0,48.0,32.0,38.0,-46.0,-56.0,-160.0,-138.0,0.0
-70.0,-19.0,17.0,36.0,18.0,23.0,-61.0,-49.0,-133.0,-139.0,0.0
-62.0,-36.0,-20.0,13.0,6.0,0.0,-67.0,-31.0,-87.0,-107.0,0.0
-52.0,-54.0,-32.0,6.0,1.0,-14.0,-19.0,2.0,-12.0,-61.0,0.0
-25.0,-27.0,-16.0,12.0,6.0,4.0,88.0,39.0,51.0,-21.0,0.0
-7.0,-5.0,-2.0,12.0,14.0,5.0,119.0,48.0,142.0,68.0,0.0
-12.0,-4.0,-17.0,1.0,-2.0,-2.0,64.0,72.0,267.0,192.0,0.0
8.0,6.0,-12.0,4.0,2.0,3.0,16.0,67.0,254.0,182.0,0.0
36.0,12.0,-7.0,22.0,11.0,17.0,6.0,32.0,136.0,91.0,0.0
43.0,30.0,-6.0,19.0,8.0,8.0,3.0,9.0,75.0,68.0,0.0
33.0,42.0,6.0,12.0,1.0,1.0,-5.0,-5.0,50.0,62.0,0.0
25.0,53.0,8.0,11.0,-15.0,1.0,-23.0,-16.0,19.0,45.0,0.0
29.0,50.0,10.0,8.0,-17.0,-9.0,-21.0,-17.0,0.0,52.0,0.0
28.0,37.0,-6.0,0.0,-13.0,-18.0,3.0,0.0,0.0,69.0,0.0
18.0,15.0,-12.0,-5.0,-10.0,-12.0,-2.0,4.0,14.0,67.0,0.0
27.0,23.0,-11.0,-6.0,-14.0,-12.0,-5.0,8.0,26.0,56.0,0.0
21.0,13.0,-13.0,-2.0,-11.0,-12.0,-23.0,24.0,58.0,61.0,0.0
15.0,5.0,-11.0,-9.0,-14.0,-7.0,-40.0,47.0,94.0,47.0,0.0
41.0,17.0,-7.0,-5.0,-6.0,-3.0,-43.0,60.0,103.0,28.0,0.0
62.0,27.0,1.0,0.0,-7.0,-14.0,-39.0,43.0,103.0,58.0,0.0
47.0,19.0,-6.0,-8.0,-15.0,-12.0,-15.0,30.0,80.0,123.0,0.0
4.0,-7.0,-32.0,-19.0,-34.0,-14.0,-3.0,17.0,13.0,107.0,0.0
-34.0,0.0,-39.0,-13.0,-26.0,-13.0,-10.0,9.0,-55.0,-29.0,0.0
-40.0,17.0,-7.0,10.0,-8.0,3.0,-15.0,6.0,-82.0,-115.0,0.0
-58.0,19.0,17.0,26.0,18.0,32.0,0.0,-17.0,-147.0,-180.0,0.0
-60.0,8.0,6.0,21.0,37.0,60.0,37.0,-44.0,-196.0,-224.0,0.0
-33.0,16.0,19.0,27.0,30.0,55.0,49.0,-58.0,-199.0,-206.0,0.0
-15.0,18.0,11.0,21.0,13.0,49.0,14.0,-71.0,-162.0,-140.0,0.0
-7.0,13.0,18.0,4.0,8.0,30.0,-29.0,-71.0,-118.0,-45.0,0.0
17.0,20.0,13.0,4.0,9.0,25.0,-42.0,-77.0,-105.0,-18.0,0.0
12.0,28.0,5.0,10.0,11.0,15.0,-42.0,-65.0,-78.0,-16.0,0.0
-19.0,8.0,1.0,-16.0,3.0,8.0,-29.0,-24.0,-23.0,-8.0,0.0
-33.0,-5.0,3.0,-40.0,-3.0,-12.0,-44.0,-9.0,12.0,11.0,0.0
-29.0,-22.0,-12.0,-56.0,-28.0,-35.0,-74.0,15.0,122.0,62.0,0.0
-9.0,-21.0,-10.0,-51.0,-32.0,-31.0,-63.0,28.0,190.0,76.0,0.0
-5.0,-10.0,-3.0,-27.0,0.0,-13.0,-46.0,13.0,110.0,26.0,0.0
14.0,-5.0,0.0,-19.0,10.0,-12.0,-29.0,-7.0,49.0,-23.0,0.0
34.0,1.0,-3.0,-26.0,0.0,-8.0,-17.0,-20.0,25.0,-34.0,0.0
30.0,11.0,6.0,-23.0,-7.0,7.0,-10.0,-17.0,2.0,-35.0,0.0
25.0,7.0,3.0,-29.0,-11.0,-13.0,-7.0,-9.0,-8.0,-13.0,0.0
9.0,-12.0,11.0,-42.0,-30.0,-27.0,-14.0,-21.0,-8.0,19.0,0.0
11.0,-21.0,0.0,-46.0,-57.0,-35.0,-21.0,-40.0,-6.0,52.0,0.0
24.0,-9.0,-16.0,-41.0,-66.0,-40.0,-17.0,-36.0,7.0,85.0,0.0
36.0,13.0,-14.0,-25.0,-47.0,-27.0,-17.0,-25.0,10.0,68.0,0.0
36.0,15.0,7.0,-12.0,-37.0,-23.0,-11.0,-13.0,0.0,48.0,0.0
32.0,23.0,10.0,2.0,-28.0,-10.0,-1.0,-14.0,-12.0,39.0,0.0
-4.0,23.0,21.0,0.0,-10.0,0.0,-4.0,-14.0,-20.0,-6.0,0.0
-38.0,0.0,-1.0,-4.0,-16.0,7.0,-9.0,-2.0,1.0,-42.0,0.0
-22.0,-9.0,-10.0,0.0,-20.0,7.0,-9.0,0.0,8.0,-36.0,0.0
10.0,0.0,-7.0,15.0,-12.0,14.0,-9.0,-22.0,-8.0,-27.0,0.0
30.0,0.0,-10.0,19.0,-12.0,21.0,-15.0,-25.0,-21.0,4.0,0.0
61.0,28.0,7.0,16.0,-23.0,17.0,-35.0,-7.0,11.0,83.0,0.0
86.0,47.0,3.0,2.0,-25.0,6.0,-42.0,-3.0,51.0,146.0,0.0
60.0,24.0,-4.0,-13.0,-16.0,14.0,-35.0,2.0,62.0,138.0,0.0
26.0,12.0,5.0,-9.0,4.0,28.0,-19.0,7.0,35.0,115.0,0.0
0.0,7.0,4.0,5.0,7.0,48.0,-12.0,19.0,36.0,120.0,0.0
5.0,15.0,18.0,9.0,-7.0,37.0,-10.0,23.0,44.0,116.0,0.0
53.0,43.0,16.0,8.0,-15.0,15.0,-41.0,9.0,30.0,64.0,0.0
112.0,43.0,18.0,27.0,-6.0,6.0,-71.0,-7.0,20.0,27.0,0.0
140.0,37.0,11.0,29.0,11.0,10.0,-82.0,-12.0,23.0,-5.0,0.0
81.0,29.0,21.0,32.0,18.0,18.0,-83.0,-3.0,-3.0,-125.0,0.0
-9.0,27.0,33.0,45.0,28.0,20.0,-100.0,8.0,-20.0,-212.0,0.0
-96.0,1.0,25.0,46.0,18.0,13.0,-136.0,-14.0,-31.0,-201.0,0.0
-126.0,-20.0,4.0,34.0,3.0,1.0,-162.0,-30.0,-56.0,-123.0,0.0
-108.0,-34.0,-15.0,14.0,-14.0,0.0,-153.0,-38.0,-75.0,-48.0,0.0
-141.0,-69.0,-43.0,-22.0,-41.0,23.0,-38.0,-24.0,-88.0,-80.0,0.0
-164.0,-72.0,-52.0,-19.0,-38.0,49.0,181.0,21.0,-82.0,-118.0,0.0
-161.0,-47.0,-30.0,8.0,-1.0,53.0,287.0,59.0,-55.0,-114.0,0.0
-148.0,-44.0,-4.0,16.0,12.0,42.0,191.0,44.0,-63.0,-105.0,0.0
-119.0,-40.0,6.0,15.0,7.0,31.0,96.0,36.0,-57.0,-64.0,0.0
-50.0,-8.0,10.0,7.0,5.0,9.0,35.0,23.0,-27.0,-5.0,0.0
-8.0,9.0,11.0,6.0,5.0,-5.0,-2.0,10.0,-14.0,17.0,0.0
4.0,13.0,13.0,7.0,11.0,-3.0,-12.0,9.0,-3.0,21.0,0.0
30.0,22.0,19.0,9.0,19.0,2.0,-25.0,9.0,12.0,33.0,0.0
60.0,49.0,51.0,37.0,37.0,-2.0,-58.0,0.0,29.0,57.0,0.0
60.0,41.0,59.0,31.0,40.0,-5.0,-73.0,-2.0,15.0,46.0,0.0
13.0,-19.0,7.0,-19.0,6.0,-18.0,-22.0,-14.0,-24.0,-9.0,0.0
-27.0,-76.0,-57.0,-58.0,-31.0,-15.0,86.0,-6.0,-41.0,-39.0,0.0
-7.0,-69.0,-53.0,-41.0,-35.0,-12.0,121.0,1.0,-18.0,13.0,0.0
5.0,-28.0,-40.0,-16.0,-19.0,-20.0,37.0,-16.0,-27.0,41.0,0.0
-1.0,-11.0,-7.0,-5.0,-11.0,-20.0,-9.0,-30.0,-41.0,18.0,0.0
-1.0,-9.0,0.0,4.0,0.0,-21.0,-11.0,-37.0,-46.0,-22.0,0.0
0.0,-2.0,0.0,8.0,7.0,-24.0,-15.0,-34.0,-41.0,-38.0,0.0
1.0,-3.0,-2.0,4.0,3.0,-9.0,-17.0,-25.0,-33.0,-43.0,0.0
29.0,-18.0,-11.0,1.0,0.0,2.0,15.0,5.0,-21.0,-42.0,0.0
52.0,-28.0,-18.0,-11.0,-11.0,-5.0,26.0,9.0,-21.0,-31.0,0.0
77.0,-28.0,-26.0,-22.0,-10.0,-26.0,7.0,-4.0,-28.0,1.0,0.0
78.0,-25.0,-27.0,-12.0,-10.0,-33.0,7.0,-3.0,-23.0,23.0,0.0
70.0,-18.0,-25.0,-12.0,0.0,-20.0,3.0,-2.0,-14.0,31.0,0.0
45.0,-13.0,-17.0,-15.0,5.0,-18.0,-6.0,-7.0,-25.0,14.0,0.0
31.0,0.0,-7.0,-4.0,0.0,-4.0,-4.0,-20.0,-59.0,-23.0,0.0
34.0,39.0,12.0,-3.0,-12.0,0.0,0.0,-31.0,-80.0,-40.0,0.0
31.0,47.0,20.0,-5.0,0.0,-6.0,0.0,-21.0,-77.0,-42.0,0.0
48.0,42.0,22.0,0.0,9.0,-1.0,5.0,-12.0,-69.0,-33.0,0.0
64.0,44.0,12.0,-14.0,7.0,1.0,-2.0,-23.0,-76.0,-38.0,0.0
66.0,38.0,21.0,-20.0,0.0,-1.0,-6.0,-36.0,-95.0,-40.0,0.0
62.0,28.0,10.0,-19.0,-12.0,-9.0,-12.0,-43.0,-96.0,-25.0,0.0
30.0,7.0,14.0,-36.0,-19.0,-15.0,-26.0,-35.0,-66.0,0.0,0.0
5.0,-22.0,-2.0,-49.0,-29.0,-23.0,-32.0,-22.0,1.0,48.0,0.0
3.0,-34.0,-1.0,-58.0,-40.0,-29.0,-40.0,6.0,120.0,158.0,0.0
4.0,-28.0,22.0,-33.0,-22.0,-26.0,-36.0,38.0,170.0,155.0,0.0
9.0,-10.0,40.0,2.0,-8.0,-11.0,-26.0,21.0,127.0,89.0,0.0
16.0,0.0,46.0,10.0,-7.0,-3.0,-26.0,7.0,87.0,72.0,0.0
12.0,-20.0,31.0,10.0,-5.0,-4.0,-22.0,8.0,64.0,50.0,0.0
2.0,-25.0,20.0,-2.0,-20.0,-6.0,-23.0,0.0,37.0,22.0,0.0
-4.0,-12.0,32.0,-4.0,-30.0,-15.0,-25.0,-8.0,20.0,16.0,0.0
1.0,-1.0,5.0,-6.0,-23.0,-34.0,-27.0,-3.0,62.0,25.0,0.0
32.0,4.0,10.0,-8.0,-27.0,-33.0,-30.0,18.0,123.0,59.0,0.0
56.0,13.0,38.0,-3.0,-14.0,-18.0,-16.0,19.0,100.0,72.0,0.0
59.0,16.0,45.0,0.0,1.0,-9.0,-8.0,8.0,43.0,49.0,0.0
62.0,16.0,38.0,1.0,13.0,0.0,-4.0,0.0,10.0,23.0,0.0
58.0,15.0,43.0,-6.0,7.0,10.0,3.0,-12.0,-5.0,18.0,0.0
42.0,-2.0,52.0,3.0,11.0,17.0,-1.0,-15.0,-14.0,8.0,0.0
-4.0,-29.0,39.0,15.0,18.0,14.0,-5.0,-23.0,-18.0,0.0,0.0
-48.0,-29.0,27.0,4.0,15.0,4.0,-14.0,-35.0,-27.0,0.0,0.0
-43.0,-19.0,32.0,-26.0,18.0,3.0,-28.0,-47.0,-28.0,0.0,0.0
-22.0,-13.0,38.0,-20.0,8.0,-8.0,-40.0,-44.0,-20.0,16.0,0.0
3.0,-6.0,27.0,-15.0,-6.0,-9.0,-35.0,-32.0,5.0,54.0,0.0
28.0,1.0,16.0,-21.0,-9.0,-9.0,-32.0,-14.0,22.0,78.0,0.0
51.0,-8.0,16.0,-29.0,-14.0,-10.0,-17.0,5.0,19.0,89.0,0.0
87.0,2.0,14.0,-50.0,-23.0,-17.0,-8.0,17.0,43.0,125.0,0.0
104.0,6.0,-9.0,-51.0,-40.0,-24.0,-4.0,30.0,88.0,149.0,0.0
105.0,16.0,-7.0,-50.0,-53.0,-20.0,-16.0,21.0,85.0,113.0,0.0
104.0,22.0,11.0,-45.0,-41.0,-17.0,-5.0,21.0,87.0,86.0,0.0
121.0,23.0,19.0,-46.0,-33.0,-16.0,-4.0,38.0,109.0,95.0,0.0
84.0,24.0,24.0,-29.0,-22.0,0.0,6.0,26.0,65.0,61.0,0.0
32.0,1.0,19.0,-13.0,-10.0,8.0,1.0,4.0,25.0,53.0,0.0
3.0,-26.0,11.0,-6.0,-23.0,8.0,0.0,-12.0,-3.0,100.0,0.0
-22.0,-39.0,6.0,1.0,-24.0,14.0,-7.0,-37.0,-83.0,6.0,0.0
-33.0,-43.0,12.0,10.0,-11.0,22.0,-23.0,-65.0,-142.0,-141.0,0.0
-25.0,-20.0,23.0,25.0,4.0,38.0,-20.0,-77.0,-172.0,-207.0,0.0
-32.0,-14.0,20.0,17.0,13.0,50.0,20.0,-42.0,-121.0,-176.0,0.0
-48.0,-20.0,16.0,30.0,28.0,54.0,43.0,10.0,-58.0,-107.0,0.0
-52.0,-1.0,19.0,51.0,44.0,60.0,31.0,10.0,-81.0,-115.0,0.0
-87.0,6.0,15.0,47.0,48.0,58.0,23.0,-6.0,-123.0,-158.0,0.0
-84.0,13.0,17.0,45.0,55.0,46.0,34.0,-3.0,-134.0,-165.0,0.0
-75.0,9.0,19.0,48.0,70.0,47.0,53.0,16.0,-114.0,-158.0,0.0
-93.0,-15.0,5.0,35.0,56.0,41.0,26.0,36.0,-75.0,-139.0,0.0
-109.0,-30.0,-9.0,16.0,25.0,18.0,1.0,63.0,7.0,-87.0,0.0
-106.0,-43.0,-16.0,11.0,18.0,10.0,1.0,80.0,118.0,-7.0,0.0
-84.0,-57.0,-38.0,8.0,14.0,4.0,20.0,75.0,140.0,48.0,0.0
-70.0,-58.0,-35.0,-12.0,6.0,-1.0,16.0,73.0,127.0,66.0,0.0
-45.0,-33.0,-35.0,-18.0,0.0,-20.0,-19.0,37.0,97.0,80.0,0.0
-23.0,0.0,-14.0,-28.0,10.0,-26.0,-34.0,2.0,64.0,71.0,0.0
-18.0,8.0,-1.0,-22.0,16.0,-12.0,-44.0,1.0,42.0,30.0,0.0
-33.0,2.0,-1.0,-21.0,22.0,0.0,-42.0,7.0,19.0,-14.0,0.0
-45.0,8.0,-21.0,-20.0,16.0,3.0,-44.0,7.0,-1.0,-30.0,0.0
-36.0,8.0,-22.0,0.0,9.0,0.0,-7.0,12.0,1.0,-18.0,0.0
-21.0,10.0,-23.0,14.0,9.0,-4.0,59.0,39.0,6.0,-15.0,0.0
2.0,38.0,-4.0,12.0,4.0,0.0,77.0,54.0,11.0,30.0,0.0
42.0,45.0,6.0,18.0,-3.0,9.0,21.0,32.0,16.0,62.0,0.0
65.0,36.0,-14.0,22.0,1.0,7.0,-10.0,16.0,16.0,98.0,0.0
83.0,37.0,-18.0,13.0,0.0,0.0,-6.0,15.0,19.0,132.0,0.0
69.0,25.0,-16.0,4.0,-10.0,-13.0,-10.0,16.0,13.0,95.0,0.0
4.0,12.0,-23.0,7.0,-7.0,-12.0,-11.0,6.0,-1.0,-16.0,0.0
-41.0,10.0,-7.0,15.0,20.0,6.0,5.0,21.0,6.0,-67.0,0.0
-69.0,-7.0,-31.0,5.0,15.0,3.0,28.0,36.0,11.0,-99.0,0.0
-77.0,-19.0,-35.0,-10.0,-4.0,-24.0,38.0,37.0,14.0,-93.0,0.0
-24.0,-12.0,-33.0,-21.0,-14.0,-30.0,11.0,20.0,5.0,-41.0,0.0
41.0,-13.0,-41.0,-30.0,-25.0,-28.0,0.0,3.0,0.0,17.0,0.0
71.0,-16.0,-35.0,-35.0,-38.0,-22.0,25.0,-6.0,0.0,108.0,0.0
95.0,-5.0,-21.0,-31.0,-45.0,-28.0,33.0,-3.0,23.0,189.0,0.0
95.0,5.0,-29.0,-28.0,-26.0,-25.0,17.0,0.0,32.0,134.0,0.0
29.0,-15.0,-33.0,-11.0,-10.0,-2.0,15.0,7.0,24.0,19.0,0.0
-58.0,-46.0,-30.0,-2.0,-2.0,13.0,25.0,16.0,24.0,-55.0,0.0
-82.0,-46.0,-28.0,5.0,3.0,22.0,29.0,12.0,15.0,-63.0,0.0
-71.0,-30.0,-8.0,11.0,10.0,26.0,27.0,-11.0,-7.0,-83.0,0.0
-57.0,-25.0,2.0,16.0,12.0,31.0,18.0,-14.0,-17.0,-101.0,0.0
-24.0,-21.0,-5.0,11.0,18.0,29.0,10.0,1.0,9.0,-76.0,0.0
0.0,-1.0,5.0,15.0,17.0,18.0,17.0,9.0,7.0,-67.0,0.0
-3.0,4.0,0.0,7.0,11.0,21.0,22.0,2.0,-11.0,-74.0,0.0
-5.0,31.0,9.0,-2.0,0.0,9.0,7.0,-19.0,-33.0,-71.0,0.0
-3.0,48.0,9.0,13.0,-6.0,2.0,-19.0,-37.0,-25.0,-61.0,0.0
15.0,34.0,11.0,14.0,-15.0,-4.0,-32.0,-27.0,4.0,-5.0,0.0
48.0,30.0,18.0,-2.0,-24.0,-14.0,-37.0,-29.0,15.0,43.0,0.0
58.0,39.0,20.0,-3.0,-18.0,-16.0,-37.0,-41.0,0.0,47.0,0.0
68.0,47.0,38.0,10.0,0.0,-15.0,-48.0,-47.0,-4.0,28.0,0.0
56.0,42.0,36.0,21.0,0.0,-13.0,-47.0,-32.0,-6.0,-5.0,0.0
-24.0,3.0,7.0,20.0,-7.0,2.0,10.0,-2.0,-34.0,-73.0,0.0
-88.0,-53.0,-33.0,-6.0,-32.0,11.0,69.0,16.0,-70.0,-151.0,0.0
-80.0,-49.0,-30.0,0.0,-33.0,10.0,56.0,13.0,-85.0,-142.0,0.0
-52.0,-21.0,-23.0,3.0,-24.0,9.0,17.0,3.0,-86.0,-92.0,0.0
-31.0,-8.0,-18.0,-11.0,-17.0,6.0,0.0,-11.0,-83.0,-46.0,0.0
-28.0,-7.0,-24.0,-18.0,-13.0,-2.0,7.0,-20.0,-79.0,-30.0,0.0
-22.0,-14.0,-27.0,-10.0,-24.0,-2.0,11.0,-6.0,-18.0,-4.0,0.0
1.0,-16.0,-22.0,8.0,-22.0,6.0,1.0,20.0,69.0,35.0,0.0
25.0,-7.0,-15.0,19.0,-5.0,10.0,-21.0,27.0,85.0,58.0,0.0
33.0,4.0,-14.0,24.0,0.0,-8.0,-37.0,5.0,50.0,59.0,0.0
48.0,4.0,-16.0,21.0,0.0,-22.0,-70.0,-14.0,55.0,84.0,0.0
63.0,-3.0,-19.0,12.0,-5.0,-32.0,-87.0,-11.0,85.0,109.0,0.0
49.0,-4.0,-25.0,-1.0,-11.0,-32.0,-85.0,-15.0,81.0,105.0,0.0
29.0,6.0,-17.0,7.0,-11.0,-17.0,-85.0,-23.0,53.0,68.0,0.0
4.0,18.0,10.0,11.0,-2.0,-16.0,-63.0,-21.0,32.0,30.0,0.0
-12.0,26.0,12.0,3.0,7.0,-11.0,14.0,7.0,25.0,27.0,0.0
-47.0,25.0,-5.0,-1.0,8.0,2.0,80.0,23.0,21.0,6.0,0.0
-85.0,-13.0,-29.0,-32.0,-11.0,0.0,89.0,19.0,0.0,-29.0,0.0
-72.0,-22.0,-16.0,-17.0,-11.0,-5.0,79.0,17.0,-6.0,-18.0,0.0
-50.0,-3.0,5.0,15.0,-15.0,-13.0,52.0,8.0,-5.0,1.0,0.0
-72.0,-32.0,-31.0,8.0,-20.0,-8.0,77.0,-1.0,-28.0,-35.0,0.0
-82.0,-60.0,-51.0,-6.0,-35.0,7.0,160.0,11.0,-55.0,-58.0,0.0
-17.0,-30.0,-29.0,-4.0,-22.0,15.0,136.0,3.0,-39.0,1.0,0.0
47.0,-22.0,-23.0,-14.0,-14.0,8.0,72.0,9.0,-17.0,54.0,0.0
64.0,-16.0,-19.0,1.0,-13.0,-3.0,39.0,9.0,-14.0,55.0,0.0
58.0,-10.0,-21.0,8.0,-2.0,1.0,28.0,-3.0,-25.0,1.0,0.0
57.0,-2.0,-15.0,8.0,11.0,4.0,16.0,5.0,-33.0,-57.0,0.0
19.0,-3.0,4.0,10.0,21.0,-12.0,6.0,3.0,-53.0,-91.0,0.0
-36.0,-2.0,0.0,6.0,23.0,18.0,35.0,1.0,-46.0,-104.0,0.0
-35.0,-27.0,-19.0,-14.0,10.0,34.0,49.0,19.0,-37.0,-78.0,0.0
10.0,-20.0,-22.0,-18.0,5.0,16.0,29.0,25.0,-12.0,-17.0,0.0
47.0,-8.0,-19.0,-4.0,4.0,10.0,18.0,14.0,1.0,21.0,0.0
57.0,-3.0,-18.0,-2.0,5.0,14.0,2.0,5.0,0.0,28.0,0.0
46.0,22.0,2.0,1.0,8.0,0.0,-23.0,-14.0,-18.0,16.0,0.0
22.0,38.0,19.0,13.0,10.0,-16.0,-42.0,-22.0,-23.0,-4.0,0.0
-23.0,40.0,18.0,17.0,8.0,-7.0,-48.0,-25.0,-21.0,-31.0,0.0
-57.0,18.0,11.0,5.0,9.0,1.0,-60.0,-27.0,-23.0,-41.0,0.0
-60.0,13.0,11.0,4.0,11.0,7.0,-37.0,-16.0,-4.0,-12.0,0.0
-59.0,13.0,35.0,17.0,13.0,24.0,39.0,10.0,21.0,15.0,0.0
-39.0,21.0,32.0,8.0,11.0,12.0,86.0,20.0,27.0,14.0,0.0
-3.0,30.0,29.0,15.0,12.0,-7.0,43.0,2.0,28.0,24.0,0.0
16.0,28.0,32.0,19.0,25.0,-4.0,-3.0,-7.0,28.0,45.0,0.0
34.0,15.0,4.0,15.0,22.0,-1.0,-33.0,-10.0,52.0,74.0,0.0
72.0,8.0,-2.0,-9.0,5.0,-19.0,-49.0,-7.0,75.0,116.0,0.0
73.0,2.0,-35.0,-32.0,-16.0,-29.0,-22.0,-8.0,85.0,167.0,0.0
36.0,-4.0,-38.0,-39.0,-21.0,-22.0,22.0,-4.0,53.0,178.0,0.0
14.0,0.0,-35.0,-46.0,-35.0,-20.0,40.0,1.0,15.0,171.0,0.0
-3.0,2.0,-33.0,-39.0,-37.0,-19.0,56.0,6.0,-12.0,84.0,0.0
-40.0,6.0,-14.0,-10.0,5.0,6.0,64.0,7.0,-21.0,-32.0,0.0
-71.0,2.0,16.0,24.0,43.0,21.0,5.0,-9.0,-22.0,-101.0,0.0
-42.0,32.0,53.0,57.0,62.0,11.0,-79.0,-52.0,-34.0,-106.0,0.0
6.0,61.0,58.0,45.0,40.0,-10.0,-144.0,-81.0,-44.0,-50.0,0.0
3.0,47.0,12.0,-12.0,-2.0,-25.0,-136.0,-90.0,-72.0,-56.0,0.0
11.0,30.0,-10.0,-25.0,-11.0,-10.0,-109.0,-70.0,-70.0,-54.0,0.0
33.0,22.0,-11.0,1.0,12.0,-6.0,-75.0,-45.0,-49.0,-25.0,0.0
19.0,14.0,-21.0,8.0,19.0,6.0,-19.0,-20.0,-37.0,-2.0,0.0
-54.0,-21.0,-49.0,-21.0,4.0,14.0,26.0,-16.0,-51.0,-28.0,0.0
-129.0,-53.0,-77.0,-65.0,-28.0,5.0,62.0,-5.0,-74.0,-95.0,0.0
-162.0,-82.0,-92.0,-80.0,-44.0,0.0,98.0,-5.0,-86.0,-127.0,0.0
-121.0,-53.0,-58.0,-38.0,-18.0,0.0,121.0,-11.0,-69.0,-93.0,0.0
-62.0,-30.0,-14.0,-6.0,18.0,2.0,133.0,-7.0,-48.0,-62.0,0.0
-9.0,-18.0,13.0,-3.0,39.0,14.0,147.0,23.0,-39.0,-44.0,0.0
13.0,-10.0,11.0,-11.0,34.0,29.0,128.0,45.0,-33.0,-36.0,0.0
-36.0,-22.0,-14.0,-26.0,15.0,28.0,133.0,34.0,-41.0,-71.0,0.0
-41.0,-18.0,-3.0,-5.0,31.0,39.0,115.0,22.0,-32.0,-65.0,0.0
39.0,14.0,42.0,41.0,47.0,17.0,-50.0,-26.0,-8.0,-3.0,0.0
111.0,35.0,38.0,42.0,32.0,-9.0,-155.0,-28.0,33.0,52.0,0.0
108.0,27.0,11.0,22.0,8.0,-24.0,-175.0,-6.0,82.0,71.0,0.0
145.0,65.0,33.0,42.0,14.0,-46.0,-226.0,-38.0,101.0,90.0,0.0
165.0,86.0,54.0,50.0,29.0,-39.0,-272.0,-94.0,76.0,89.0,0.0
110.0,26.0,-2.0,-13.0,-3.0,-23.0,-207.0,-126.0,15.0,57.0,0.0
40.0,-32.0,-50.0,-56.0,-27.0,5.0,-32.0,-94.0,-16.0,40.0,0.0
0.0,-66.0,-54.0,-61.0,-22.0,45.0,197.0,12.0,16.0,102.0,0.0
-28.0,-93.0,-71.0,-92.0,-47.0,43.0,231.0,37.0,12.0,149.0,0.0
-26.0,-74.0,-55.0,-92.0,-48.0,36.0,268.0,17.0,-15.0,100.0,0.0
-49.0,-41.0,-26.0,-55.0,-17.0,45.0,251.0,11.0,-11.0,-17.0,0.0
-75.0,-39.0,-22.0,-25.0,-7.0,43.0,221.0,41.0,-1.0,-90.0,0.0
-71.0,-44.0,-28.0,-10.0,-1.0,55.0,256.0,83.0,-3.0,-122.0,0.0
-55.0,-72.0,-34.0,-9.0,0.0,62.0,223.0,96.0,32.0,-76.0,0.0
-27.0,-70.0,-30.0,-9.0,-3.0,42.0,142.0,87.0,75.0,-12.0,0.0
-14.0,-33.0,-20.0,-5.0,0.0,23.0,73.0,48.0,58.0,1.0,0.0
-3.0,-3.0,1.0,9.0,-6.0,11.0,-3.0,-5.0,34.0,10.0,0.0
19.0,-14.0,1.0,12.0,-2.0,6.0,-80.0,-43.0,27.0,56.0,0.0
71.0,-13.0,-20.0,-1.0,-2.0,-17.0,-122.0,-59.0,23.0,95.0,0.0
118.0,0.0,-16.0,0.0,7.0,-28.0,-153.0,-63.0,10.0,51.0,0.0
86.0,18.0,16.0,26.0,29.0,-38.0,-180.0,-86.0,-1.0,-13.0,0.0
29.0,21.0,21.0,42.0,32.0,-45.0,-213.0,-102.0,40.0,-1.0,0.0
29.0,16.0,22.0,48.0,22.0,-45.0,-208.0,-105.0,77.0,66.0,0.0
8.0,11.0,15.0,33.0,7.0,-16.0,-134.0,-69.0,18.0,49.0,0.0
-19.0,4.0,-11.0,-3.0,-4.0,24.0,-52.0,-15.0,-61.0,-54.0,0.0
-34.0,-11.0,-46.0,-42.0,-27.0,30.0,35.0,-20.0,-128.0,-147.0,0.0
-16.0,5.0,-25.0,-31.0,-20.0,14.0,198.0,-17.0,-137.0,-167.0,0.0
25.0,49.0,8.0,-19.0,-5.0,-11.0,165.0,-41.0,-142.0,-146.0,0.0
13.0,60.0,2.0,-38.0,-3.0,-43.0,-12.0,-88.0,-147.0,-122.0,0.0
-18.0,29.0,-44.0,-68.0,-28.0,-79.0,-129.0,-105.0,-115.0,-79.0,0.0
-6.0,-2.0,-83.0,-91.0,-54.0,-99.0,-164.0,-68.0,-16.0,-23.0,0.0
76.0,6.0,-80.0,-88.0,-60.0,-80.0,-112.0,-33.0,19.0,4.0,0.0
156.0,27.0,-58.0,-60.0,-29.0,-46.0,45.0,14.0,0.0,19.0,0.0
178.0,42.0,-19.0,-16.0,18.0,-2.0,168.0,54.0,-2.0,40.0,0.0
172.0,25.0,-4.0,10.0,44.0,40.0,240.0,85.0,56.0,58.0,0.0
196.0,30.0,-2.0,10.0,47.0,59.0,248.0,132.0,150.0,130.0,0.0
183.0,44.0,5.0,21.0,61.0,51.0,99.0,93.0,131.0,150.0,0.0
-3.0,1.0,-3.0,33.0,65.0,51.0,39.0,39.0,51.0,46.0,0.0
-122.0,-31.0,-10.0,46.0,63.0,49.0,7.0,-2.0,12.0,-50.0,0.0
-90.0,-22.0,-13.0,32.0,46.0,28.0,-15.0,-18.0,6.0,-31.0,0.0
-78.0,-40.0,-35.0,3.0,31.0,20.0,85.0,45.0,16.0,-8.0,0.0
-94.0,-82.0,-57.0,-28.0,28.0,49.0,183.0,113.0,69.0,51.0,0.0
-45.0,-72.0,-40.0,-3.0,61.0,63.0,136.0,98.0,99.0,100.0,0.0
-19.0,-44.0,-22.0,9.0,69.0,61.0,89.0,43.0,48.0,32.0,0.0
-63.0,-33.0,-17.0,0.0,63.0,47.0,77.0,-4.0,-31.0,-62.0,0.0
-85.0,-41.0,-27.0,-25.0,27.0,14.0,42.0,-47.0,-82.0,-89.0,0.0
-35.0,-35.0,-42.0,-39.0,-5.0,-10.0,53.0,-46.0,-62.0,-35.0,0.0
20.0,-1.0,-22.0,-32.0,-7.0,-5.0,77.0,-17.0,-42.0,23.0,0.0
34.0,23.0,-2.0,-12.0,5.0,4.0,46.0,0.0,-29.0,50.0,0.0
11.0,22.0,12.0,6.0,13.0,5.0,17.0,0.0,-4.0,41.0,0.0
-24.0,8.0,-7.0,16.0,5.0,0.0,6.0,-1.0,53.0,108.0,0.0
-103.0,-32.0,-10.0,38.0,5.0,14.0,8.0,10.0,81.0,83.0,0.0
-166.0,-41.0,-3.0,41.0,12.0,23.0,22.0,5.0,58.0,-54.0,0.0
-190.0,-33.0,-15.0,42.0,20.0,18.0,30.0,-11.0,3.0,-114.0,0.0
-169.0,-30.0,-9.0,36.0,17.0,5.0,13.0,-24.0,-27.0,-88.0,0.0
-112.0,-21.0,-8.0,8.0,8.0,-19.0,-9.0,-27.0,-16.0,-38.0,0.0
-55.0,-18.0,-21.0,-43.0,-7.0,-34.0,-16.0,10.0,54.0,33.0,0.0
-29.0,-7.0,-3.0,-36.0,-8.0,-24.0,-22.0,23.0,83.0,44.0,0.0
-40.0,-6.0,12.0,0.0,2.0,-12.0,-19.0,19.0,63.0,30.0,0.0
-52.0,-6.0,17.0,11.0,22.0,4.0,-4.0,30.0,45.0,11.0,0.0
-60.0,-6.0,15.0,10.0,29.0,7.0,-7.0,17.0,17.0,-31.0,0.0
-55.0,-1.0,11.0,16.0,32.0,8.0,0.0,11.0,0.0,-56.0,0.0
-60.0,13.0,12.0,34.0,54.0,31.0,4.0,21.0,-18.0,-92.0,0.0
-67.0,2.0,25.0,46.0,64.0,44.0,14.0,19.0,-38.0,-102.0,0.0
-42.0,-4.0,12.0,37.0,60.0,27.0,5.0,-2.0,-51.0,-73.0,0.0
-18.0,-12.0,2.0,31.0,54.0,22.0,10.0,-19.0,-59.0,-70.0,0.0
-8.0,-15.0,-5.0,27.0,54.0,26.0,19.0,-17.0,-57.0,-65.0,0.0
-8.0,-10.0,-12.0,19.0,42.0,32.0,6.0,-13.0,-76.0,-62.0,0.0
-10.0,-23.0,-5.0,14.0,29.0,27.0,-2.0,-23.0,-92.0,-47.0,0.0
-14.0,-13.0,-4.0,-3.0,16.0,7.0,-18.0,-31.0,-99.0,-36.0,0.0
-12.0,2.0,-11.0,-7.0,3.0,0.0,-28.0,-43.0,-91.0,-39.0,0.0
-26.0,2.0,-9.0,-4.0,-9.0,-4.0,-29.0,-45.0,-90.0,-53.0,0.0
-23.0,-13.0,-17.0,-18.0,-19.0,-17.0,-42.0,-14.0,-45.0,-38.0,0.0
-2.0,-30.0,-18.0,-23.0,-32.0,-21.0,-44.0,9.0,36.0,6.0,0.0
13.0,-19.0,-16.0,-20.0,-33.0,-5.0,-45.0,22.0,82.0,54.0,0.0
22.0,-2.0,-13.0,-20.0,-16.0,-6.0,-34.0,25.0,97.0,62.0,0.0
11.0,-7.0,-4.0,-17.0,2.0,-4.0,-19.0,28.0,108.0,42.0,0.0
-3.0,-17.0,-4.0,-10.0,21.0,1.0,-4.0,35.0,94.0,25.0,0.0
8.0,-5.0,-2.0,-3.0,19.0,11.0,-3.0,27.0,58.0,47.0,0.0
84.0,23.0,7.0,-3.0,-8.0,1.0,-11.0,25.0,52.0,115.0,0.0
167.0,52.0,12.0,-10.0,-18.0,-14.0,-18.0,26.0,91.0,181.0,0.0
227.0,68.0,0.0,-7.0,-18.0,-21.0,-42.0,20.0,131.0,246.0,0.0
269.0,70.0,15.0,-3.0,-11.0,-24.0,-62.0,12.0,114.0,329.0,0.0
229.0,57.0,15.0,-4.0,1.0,-18.0,-79.0,-20.0,19.0,288.0,0.0
84.0,37.0,22.0,19.0,18.0,-2.0,-70.0,-66.0,-108.0,-34.0,0.0
-23.0,30.0,57.0,66.0,63.0,27.0,-71.0,-58.0,-145.0,-262.0,0.0
-89.0,5.0,70.0,82.0,93.0,70.0,-64.0,-42.0,-177.0,-324.0,0.0
-148.0,-54.0,17.0,28.0,58.0,73.0,-4.0,-54.0,-243.0,-364.0,0.0
-146.0,-89.0,-42.0,-46.0,3.0,48.0,46.0,-48.0,-241.0,-304.0,0.0
-92.0,-61.0,-44.0,-56.0,-21.0,25.0,63.0,-23.0,-152.0,-176.0,0.0
-34.0,-4.0,-15.0,-30.0,-13.0,7.0,67.0,-20.0,-63.0,-73.0,0.0
43.0,17.0,5.0,-14.0,0.0,-6.0,80.0,3.0,31.0,41.0,0.0
103.0,42.0,16.0,-7.0,-1.0,-10.0,38.0,4.0,64.0,127.0,0.0
119.0,57.0,18.0,-3.0,-16.0,-21.0,-3.0,-16.0,43.0,182.0,0.0
103.0,48.0,5.0,-1.0,-9.0,-17.0,-11.0,-15.0,46.0,175.0,0.0
40.0,3.0,-11.0,-9.0,-5.0,-11.0,-4.0,-12.0,37.0,64.0,0.0
-25.0,-27.0,-17.0,-6.0,8.0,3.0,1.0,-5.0,21.0,-44.0,0.0
-61.0,-29.0,-9.0,1.0,21.0,12.0,-10.0,2.0,6.0,-83.0,0.0
-81.0,-27.0,14.0,10.0,42.0,10.0,-33.0,0.0,-10.0,-87.0,0.0
-72.0,-26.0,17.0,13.0,35.0,9.0,-44.0,-6.0,-21.0,-69.0,0.0
-51.0,-16.0,13.0,11.0,16.0,17.0,-12.0,-16.0,-33.0,-34.0,0.0
-57.0,-9.0,15.0,4.0,25.0,35.0,39.0,-16.0,-50.0,-40.0,0.0
-70.0,-8.0,24.0,6.0,35.0,40.0,110.0,-11.0,-65.0,-67.0,0.0
-66.0,1.0,31.0,11.0,29.0,23.0,114.0,-8.0,-82.0,-60.0,0.0
-45.0,3.0,31.0,6.0,9.0,3.0,71.0,-14.0,-80.0,-30.0,0.0
-51.0,-4.0,18.0,-9.0,-7.0,2.0,55.0,-16.0,-63.0,-45.0,0.0
-65.0,-17.0,11.0,-18.0,-2.0,11.0,56.0,-4.0,-50.0,-54.0,0.0
-71.0,-35.0,17.0,-14.0,9.0,12.0,55.0,1.0,-36.0,-37.0,0.0
-36.0,-21.0,14.0,-14.0,9.0,-8.0,41.0,15.0,33.0,85.0,0.0
13.0,-18.0,1.0,-24.0,-2.0,-28.0,-2.0,14.0,121.0,213.0,0.0
42.0,-27.0,-2.0,-23.0,1.0,-27.0,-20.0,12.0,126.0,222.0,0.0
24.0,-24.0,5.0,-18.0,8.0,-21.0,-5.0,23.0,73.0,147.0,0.0
14.0,-14.0,4.0,-23.0,4.0,-22.0,-10.0,27.0,55.0,81.0,0.0
-1.0,-24.0,0.0,-48.0,-2.0,-26.0,-24.0,26.0,57.0,62.0,0.0
-10.0,-32.0,-6.0,-49.0,0.0,-11.0,-3.0,39.0,42.0,53.0,0.0
-5.0,-33.0,-4.0,-39.0,8.0,6.0,33.0,38.0,11.0,13.0,0.0
24.0,-19.0,1.0,-21.0,20.0,21.0,48.0,27.0,-27.0,-19.0,0.0
71.0,16.0,12.0,-7.0,23.0,34.0,54.0,10.0,-40.0,-22.0,0.0
89.0,34.0,24.0,7.0,12.0,28.0,33.0,-6.0,-53.0,-25.0,0.0
68.0,26.0,24.0,0.0,3.0,32.0,5.0,-36.0,-76.0,-38.0,0.0
54.0,2.0,1.0,-7.0,-3.0,27.0,-6.0,-48.0,-92.0,-35.0,0.0
30.0,3.0,-7.0,-6.0,-16.0,12.0,-27.0,-53.0,-89.0,-29.0,0.0
-4.0,11.0,8.0,-8.0,-22.0,-3.0,-55.0,-49.0,-51.0,-32.0,0.0
-4.0,25.0,25.0,2.0,-19.0,2.0,-70.0,-12.0,67.0,63.0,0.0
7.0,31.0,28.0,15.0,-12.0,-4.0,-82.0,10.0,162.0,153.0,0.0
35.0,39.0,34.0,40.0,3.0,-4.0,-99.0,-1.0,148.0,139.0,0.0
73.0,53.0,47.0,54.0,37.0,0.0,-143.0,-19.0,103.0,106.0,0.0
91.0,57.0,38.0,25.0,26.0,-6.0,-172.0,-28.0,82.0,74.0,0.0
67.0,40.0,0.0,-11.0,-2.0,0.0,-151.0,-45.0,31.0,23.0,0.0
35.0,40.0,-9.0,-20.0,-15.0,20.0,-64.0,-45.0,1.0,0.0,0.0
22.0,69.0,25.0,0.0,9.0,35.0,38.0,-6.0,46.0,63.0,0.0
13.0,79.0,47.0,22.0,30.0,35.0,79.0,23.0,88.0,82.0,0.0
-36.0,32.0,6.0,-11.0,0.0,35.0,88.0,12.0,26.0,-8.0,0.0
-97.0,-29.0,-48.0,-61.0,-41.0,35.0,181.0,11.0,-43.0,-100.0,0.0
-103.0,-85.0,-55.0,-55.0,-54.0,36.0,207.0,32.0,-23.0,-91.0,0.0
-74.0,-108.0,-22.0,-21.0,-29.0,22.0,132.0,33.0,-10.0,-58.0,0.0
-27.0,-76.0,-2.0,-15.0,-22.0,12.0,57.0,4.0,-19.0,-36.0,0.0
3.0,-49.0,-1.0,-20.0,-33.0,3.0,38.0,-2.0,6.0,10.0,0.0
2.0,-37.0,1.0,-22.0,-24.0,-6.0,26.0,-20.0,2.0,29.0,0.0
-14.0,-43.0,7.0,-11.0,-6.0,8.0,16.0,-38.0,-76.0,-40.0,0.0
-16.0,-40.0,10.0,4.0,-3.0,13.0,18.0,-38.0,-115.0,-91.0,0.0
11.0,-25.0,12.0,16.0,0.0,2.0,8.0,-27.0,-82.0,-68.0,0.0
35.0,-16.0,14.0,26.0,15.0,12.0,-2.0,-27.0,-95.0,-70.0,0.0
55.0,-3.0,10.0,30.0,20.0,3.0,-10.0,-35.0,-122.0,-47.0,0.0
46.0,-11.0,-8.0,22.0,6.0,-11.0,-27.0,-2.0,-74.0,-17.0,0.0
38.0,-13.0,-9.0,9.0,-5.0,-17.0,-44.0,27.0,70.0,8.0,0.0
52.0,0.0,1.0,1.0,-15.0,-11.0,-49.0,45.0,176.0,48.0,0.0
34.0,0.0,9.0,10.0,-2.0,1.0,-32.0,29.0,123.0,51.0,0.0
3.0,-18.0,-8.0,13.0,11.0,16.0,-13.0,8.0,41.0,23.0,0.0
1.0,-7.0,0.0,20.0,24.0,29.0,14.0,0.0,-15.0,-30.0,0.0
14.0,10.0,16.0,48.0,34.0,38.0,41.0,13.0,-8.0,-53.0,0.0
25.0,13.0,17.0,38.0,35.0,14.0,3.0,34.0,80.0,-26.0,0.0
-24.0,-22.0,-13.0,0.0,8.0,7.0,-16.0,30.0,130.0,-33.0,0.0
-51.0,-44.0,-31.0,-27.0,-26.0,-1.0,-18.0,5.0,73.0,-56.0,0.0
-20.0,-34.0,-19.0,-31.0,-17.0,-9.0,-48.0,-13.0,7.0,-38.0,0.0
5.0,-13.0,-19.0,-21.0,5.0,5.0,-6.0,-9.0,12.0,-10.0,0.0
17.0,3.0,-23.0,-3.0,9.0,8.0,-2.0,-16.0,21.0,14.0,0.0
29.0,23.0,-17.0,8.0,0.0,-3.0,-46.0,-29.0,17.0,24.0,0.0
23.0,25.0,-8.0,10.0,0.0,-5.0,-73.0,-27.0,12.0,3.0,0.0
-23.0,16.0,-14.0,6.0,8.0,3.0,-48.0,-11.0,0.0,-36.0,0.0
-51.0,-4.0,-14.0,3.0,1.0,19.0,7.0,4.0,-20.0,-75.0,0.0
-55.0,-36.0,-36.0,-7.0,-6.0,21.0,71.0,12.0,-40.0,-93.0,0.0
-57.0,-55.0,-54.0,-13.0,-15.0,34.0,88.0,4.0,-39.0,-79.0,0.0
-7.0,-31.0,-42.0,-9.0,-16.0,30.0,90.0,7.0,-27.0,-27.0,0.0
63.0,18.0,-18.0,3.0,-8.0,12.0,83.0,13.0,-17.0,27.0,0.0
76.0,28.0,-3.0,9.0,-9.0,15.0,51.0,8.0,-11.0,68.0,0.0
81.0,20.0,1.0,-3.0,-5.0,12.0,35.0,6.0,0.0,87.0,0.0
124.0,29.0,0.0,-8.0,1.0,10.0,12.0,10.0,5.0,97.0,0.0
115.0,29.0,-7.0,-7.0,-1.0,13.0,-2.0,26.0,23.0,133.0,0.0
33.0,22.0,-5.0,13.0,2.0,29.0,15.0,36.0,34.0,127.0,0.0
-42.0,12.0,0.0,17.0,27.0,54.0,15.0,28.0,-9.0,72.0,0.0
-47.0,13.0,7.0,26.0,24.0,50.0,-10.0,-13.0,-58.0,23.0,0.0
-29.0,12.0,9.0,24.0,18.0,39.0,-48.0,-41.0,-78.0,-29.0,0.0
-43.0,-7.0,0.0,8.0,23.0,42.0,-26.0,-50.0,-119.0,-117.0,0.0
-68.0,-33.0,-9.0,-1.0,18.0,51.0,39.0,-39.0,-137.0,-204.0,0.0
-32.0,-32.0,-2.0,-5.0,15.0,49.0,79.0,-22.0,-124.0,-182.0,0.0
11.0,-8.0,-8.0,-12.0,18.0,22.0,45.0,-17.0,-104.0,-104.0,0.0
15.0,4.0,-11.0,-25.0,17.0,9.0,31.0,2.0,-59.0,-43.0,0.0
29.0,10.0,-21.0,-39.0,0.0,-5.0,19.0,4.0,-20.0,46.0,0.0
43.0,8.0,-35.0,-58.0,-19.0,-22.0,-4.0,-15.0,0.0,172.0,0.0
-7.0,-15.0,-47.0,-72.0,-46.0,-43.0,-33.0,-21.0,19.0,194.0,0.0
-63.0,-52.0,-69.0,-58.0,-49.0,-46.0,-15.0,25.0,61.0,52.0,0.0
-60.0,-39.0,-34.0,-7.0,-23.0,-14.0,30.0,74.0,84.0,-87.0,0.0
-56.0,-13.0,-14.0,24.0,0.0,17.0,32.0,68.0,54.0,-147.0,0.0
-60.0,-5.0,-6.0,29.0,0.0,20.0,41.0,55.0,14.0,-146.0,0.0
-35.0,0.0,6.0,30.0,1.0,3.0,24.0,38.0,-9.0,-91.0,0.0
-5.0,10.0,0.0,36.0,-4.0,-5.0,10.0,7.0,-43.0,-69.0,0.0
-5.0,16.0,3.0,32.0,-9.0,4.0,-1.0,-17.0,-85.0,-91.0,0.0
-54.0,-5.0,-4.0,23.0,-1.0,15.0,-9.0,-9.0,-90.0,-138.0,0.0
-110.0,-40.0,-21.0,17.0,3.0,8.0,5.0,5.0,-79.0,-158.0,0.0
-126.0,-51.0,-24.0,13.0,13.0,1.0,16.0,2.0,-111.0,-182.0,0.0
-96.0,-42.0,-19.0,19.0,30.0,3.0,12.0,-11.0,-143.0,-191.0,0.0
-54.0,-31.0,-14.0,22.0,36.0,7.0,7.0,-20.0,-152.0,-172.0,0.0
-26.0,-20.0,-12.0,26.0,42.0,14.0,-4.0,-21.0,-144.0,-139.0,0.0
-17.0,-7.0,-10.0,25.0,29.0,0.0,-13.0,-3.0,-32.0,-54.0,0.0
4.0,10.0,-5.0,25.0,11.0,-29.0,-22.0,28.0,96.0,63.0,0.0
34.0,2.0,1.0,26.0,-3.0,-25.0,-32.0,16.0,89.0,109.0,0.0
27.0,-12.0,10.0,36.0,3.0,-4.0,-20.0,3.0,34.0,78.0,0.0
3.0,-14.0,23.0,35.0,15.0,1.0,-3.0,3.0,0.0,11.0,0.0
-2.0,-22.0,2.0,18.0,-2.0,-15.0,-6.0,-5.0,8.0,-8.0,0.0
-8.0,-14.0,-12.0,5.0,-18.0,-25.0,-12.0,-11.0,70.0,17.0,0.0
7.0,-4.0,-2.0,8.0,-12.0,-28.0,-24.0,0.0,69.0,54.0,0.0
13.0,-7.0,-3.0,2.0,5.0,-21.0,-30.0,-15.0,10.0,13.0,0.0
3.0,-4.0,-1.0,-25.0,16.0,-18.0,-31.0,-32.0,-17.0,-26.0,0.0
0.0,-17.0,-8.0,-36.0,-1.0,-16.0,-47.0,-35.0,-29.0,-19.0,0.0
6.0,-19.0,-5.0,-31.0,-24.0,-21.0,-68.0,-28.0,-24.0,14.0,0.0
12.0,-10.0,0.0,-27.0,-22.0,-30.0,-72.0,-26.0,-13.0,31.0,0.0
18.0,-9.0,3.0,-23.0,-11.0,-23.0,-73.0,-22.0,13.0,55.0,0.0
26.0,-8.0,-8.0,0.0,-12.0,0.0,-38.0,7.0,28.0,61.0,0.0
17.0,-3.0,1.0,16.0,-5.0,11.0,26.0,16.0,14.0,21.0,0.0
32.0,15.0,1.0,11.0,0.0,-3.0,87.0,21.0,-4.0,26.0,0.0
35.0,17.0,-5.0,9.0,-12.0,-14.0,62.0,21.0,17.0,74.0,0.0
25.0,18.0,-5.0,0.0,-7.0,-10.0,14.0,12.0,15.0,78.0,0.0
20.0,14.0,-14.0,-14.0,0.0,-4.0,-9.0,0.0,8.0,43.0,0.0
3.0,5.0,-7.0,-25.0,0.0,-9.0,-25.0,2.0,24.0,15.0,0.0
-16.0,-9.0,7.0,-19.0,0.0,-19.0,-43.0,5.0,25.0,4.0,0.0
-8.0,-2.0,6.0,-15.0,-1.0,-22.0,-53.0,-6.0,1.0,-2.0,0.0
23.0,13.0,-1.0,-8.0,-2.0,-20.0,-65.0,-34.0,-36.0,-5.0,0.0
31.0,6.0,-3.0,-19.0,-11.0,-11.0,-80.0,-49.0,-63.0,-26.0,0.0
7.0,-17.0,-31.0,-45.0,-36.0,-19.0,-82.0,-32.0,-32.0,-39.0,0.0
-7.0,-46.0,-52.0,-64.0,-63.0,-28.0,-49.0,-19.0,6.0,-26.0,0.0
31.0,-38.0,-43.0,-63.0,-62.0,-13.0,76.0,6.0,9.0,-6.0,0.0
62.0,-15.0,-17.0,-37.0,-38.0,5.0,167.0,31.0,-1.0,23.0,0.0
71.0,-9.0,0.0,-2.0,-10.0,11.0,111.0,15.0,0.0,42.0,0.0
81.0,12.0,0.0,10.0,-1.0,-6.0,43.0,11.0,44.0,47.0,0.0
77.0,27.0,-4.0,17.0,10.0,3.0,7.0,22.0,89.0,58.0,0.0
46.0,32.0,1.0,39.0,20.0,21.0,8.0,28.0,71.0,4.0,0.0
25.0,21.0,10.0,42.0,27.0,40.0,-1.0,21.0,42.0,-35.0,0.0
36.0,16.0,21.0,10.0,24.0,30.0,-24.0,12.0,39.0,-19.0,0.0
52.0,38.0,34.0,1.0,13.0,26.0,-36.0,-6.0,20.0,9.0,0.0
49.0,50.0,36.0,6.0,18.0,14.0,-55.0,-28.0,-20.0,16.0,0.0
27.0,39.0,42.0,13.0,31.0,9.0,-65.0,-29.0,-34.0,-14.0,0.0
-25.0,16.0,24.0,19.0,20.0,17.0,-19.0,-8.0,-32.0,-39.0,0.0
-76.0,-8.0,-1.0,26.0,-1.0,25.0,81.0,7.0,-42.0,-76.0,0.0
-67.0,3.0,8.0,35.0,-12.0,14.0,67.0,14.0,-11.0,-9.0,0.0
-27.0,12.0,19.0,31.0,-19.0,-17.0,-5.0,17.0,51.0,71.0,0.0
9.0,21.0,39.0,50.0,-4.0,-17.0,-35.0,11.0,45.0,48.0,0.0
29.0,-14.0,12.0,34.0,-13.0,7.0,13.0,-1.0,-33.0,-33.0,0.0
2.0,-66.0,-58.0,-28.0,-47.0,20.0,88.0,-10.0,-100.0,-102.0,0.0
-44.0,-51.0,-66.0,-46.0,-40.0,23.0,103.0,-11.0,-120.0,-122.0,0.0
-50.0,-13.0,-54.0,-33.0,-18.0,12.0,62.0,-12.0,-118.0,-111.0,0.0
-54.0,5.0,-43.0,-10.0,-14.0,-7.0,19.0,-38.0,-90.0,-83.0,0.0
-55.0,-5.0,-26.0,2.0,-11.0,-1.0,7.0,-30.0,-74.0,-52.0,0.0
-34.0,-37.0,-21.0,11.0,-2.0,12.0,2.0,-17.0,-76.0,-44.0,0.0
-15.0,-82.0,-22.0,12.0,-3.0,14.0,-6.0,-6.0,-53.0,-17.0,0.0
-14.0,-107.0,-26.0,5.0,-8.0,3.0,-9.0,25.0,37.0,10.0,0.0
3.0,-69.0,-32.0,0.0,-13.0,0.0,-4.0,30.0,113.0,23.0,0.0
9.0,-40.0,-22.0,11.0,0.0,-9.0,-7.0,13.0,73.0,9.0,0.0
4.0,-22.0,-24.0,7.0,6.0,-12.0,-29.0,-11.0,9.0,0.0,0.0
18.0,-1.0,-20.0,12.0,7.0,-8.0,-38.0,-39.0,-30.0,-3.0,0.0
35.0,-16.0,-12.0,18.0,15.0,5.0,-23.0,-66.0,-62.0,-22.0,0.0
40.0,-18.0,0.0,17.0,18.0,13.0,-27.0,-73.0,-83.0,-30.0,0.0
47.0,-4.0,13.0,25.0,15.0,0.0,-35.0,-73.0,-79.0,-17.0,0.0
57.0,8.0,20.0,29.0,13.0,0.0,-45.0,-82.0,-78.0,3.0,0.0
56.0,15.0,24.0,30.0,16.0,4.0,-66.0,-87.0,-98.0,2.0,0.0
71.0,20.0,5.0,19.0,9.0,-3.0,-62.0,-82.0,-104.0,-9.0,0.0
112.0,36.0,-2.0,2.0,-2.0,-14.0,-63.0,-84.0,-102.0,-50.0,0.0
106.0,45.0,9.0,3.0,8.0,-13.0,-57.0,-64.0,-35.0,-62.0,0.0
62.0,29.0,11.0,6.0,19.0,-8.0,-38.0,-12.0,78.0,-21.0,0.0
25.0,20.0,1.0,14.0,12.0,7.0,2.0,8.0,97.0,-32.0,0.0
-6.0,31.0,0.0,20.0,11.0,14.0,34.0,0.0,15.0,-70.0,0.0
-26.0,38.0,3.0,13.0,12.0,-3.0,17.0,4.0,-14.0,-28.0,0.0
-41.0,25.0,14.0,18.0,12.0,12.0,17.0,32.0,72.0,78.0,0.0
-63.0,9.0,21.0,31.0,27.0,27.0,33.0,61.0,128.0,101.0,0.0
-83.0,-13.0,6.0,31.0,35.0,37.0,39.0,56.0,99.0,40.0,0.0
-112.0,-42.0,9.0,30.0,35.0,44.0,39.0,48.0,70.0,-9.0,0.0
-140.0,-45.0,9.0,36.0,32.0,37.0,35.0,26.0,39.0,-53.0,0.0
-113.0,-30.0,-13.0,31.0,24.0,34.0,0.0,0.0,15.0,-77.0,0.0
-70.0,-5.0,-12.0,28.0,26.0,37.0,-19.0,-7.0,0.0,-70.0,0.0
-56.0,5.0,-6.0,23.0,21.0,42.0,-19.0,-16.0,-33.0,-65.0,0.0
-40.0,0.0,-8.0,12.0,9.0,34.0,-16.0,-29.0,-77.0,-78.0,0.0
-33.0,-9.0,-9.0,4.0,-4.0,18.0,-4.0,-32.0,-63.0,-65.0,0.0
-40.0,-10.0,-17.0,-7.0,-6.0,12.0,29.0,-22.0,-48.0,-53.0,0.0
-30.0,2.0,-10.0,3.0,9.0,12.0,79.0,-11.0,-80.0,-64.0,0.0
-21.0,6.0,-2.0,10.0,10.0,8.0,65.0,-13.0,-84.0,-37.0,0.0
-31.0,6.0,-14.0,1.0,0.0,-14.0,20.0,-25.0,-68.0,0.0,0.0
-37.0,1.0,-11.0,-5.0,-1.0,-18.0,0.0,-27.0,-4.0,31.0,0.0
-46.0,8.0,-1.0,-6.0,3.0,-16.0,-3.0,9.0,111.0,125.0,0.0
-25.0,13.0,11.0,-1.0,5.0,-21.0,0.0,45.0,181.0,181.0,0.0
3.0,35.0,36.0,27.0,34.0,-21.0,3.0,32.0,114.0,103.0,0.0
1.0,51.0,43.0,43.0,43.0,-7.0,9.0,12.0,29.0,19.0,0.0
-1.0,42.0,41.0,30.0,32.0,1.0,20.0,16.0,-3.0,5.0,0.0
24.0,43.0,37.0,26.0,29.0,2.0,27.0,23.0,-7.0,9.0,0.0
37.0,58.0,30.0,11.0,24.0,-5.0,9.0,20.0,-27.0,0.0,0.0
35.0,49.0,31.0,-3.0,7.0,-7.0,-18.0,-8.0,-61.0,-8.0,0.0
18.0,25.0,14.0,-5.0,-11.0,-21.0,-22.0,-31.0,-85.0,1.0,0.0
-4.0,2.0,12.0,-29.0,-20.0,-27.0,-39.0,-38.0,-47.0,41.0,0.0
-32.0,-6.0,11.0,-39.0,-27.0,-33.0,-56.0,-29.0,44.0,67.0,0.0
-62.0,-12.0,-6.0,-47.0,-34.0,-32.0,-31.0,-23.0,49.0,30.0,0.0
-65.0,-25.0,-26.0,-46.0,-33.0,-24.0,34.0,-17.0,0.0,-12.0,0.0
-45.0,-18.0,-15.0,-18.0,-10.0,-2.0,57.0,-6.0,0.0,-17.0,0.0
-10.0,7.0,-5.0,1.0,4.0,0.0,44.0,14.0,24.0,32.0,0.0
28.0,23.0,-2.0,3.0,16.0,-5.0,22.0,14.0,50.0,78.0,0.0
60.0,27.0,3.0,11.0,20.0,-2.0,3.0,10.0,62.0,99.0,0.0
83.0,21.0,0.0,8.0,11.0,-5.0,-3.0,30.0,84.0,102.0,0.0
101.0,6.0,-3.0,-9.0,-6.0,-15.0,2.0,33.0,136.0,158.0,0.0
98.0,8.0,-5.0,-22.0,-11.0,-26.0,-5.0,30.0,160.0,251.0,0.0
36.0,8.0,-14.0,-33.0,-14.0,-31.0,-28.0,-4.0,83.0,190.0,0.0
-17.0,4.0,-14.0,-20.0,-2.0,-19.0,-28.0,-34.0,-1.0,-6.0,0.0
9.0,20.0,3.0,-7.0,9.0,4.0,-10.0,-25.0,-13.0,-61.0,0.0
22.0,43.0,39.0,5.0,27.0,15.0,-9.0,-26.0,-18.0,-60.0,0.0
31.0,50.0,45.0,2.0,36.0,23.0,-12.0,-39.0,-25.0,-71.0,0.0
36.0,32.0,39.0,12.0,32.0,18.0,-18.0,-36.0,-25.0,-48.0,0.0
19.0,27.0,35.0,29.0,29.0,14.0,-34.0,-43.0,-32.0,-58.0,0.0
-5.0,11.0,28.0,40.0,39.0,23.0,-32.0,-34.0,-28.0,-96.0,0.0
-43.0,-12.0,39.0,53.0,46.0,42.0,2.0,-12.0,-28.0,-135.0,0.0
-72.0,-16.0,39.0,51.0,43.0,55.0,38.0,1.0,-39.0,-160.0,0.0
-133.0,-35.0,10.0,29.0,19.0,52.0,38.0,8.0,-57.0,-200.0,0.0
-166.0,-60.0,3.0,8.0,1.0,51.0,22.0,23.0,-51.0,-181.0,0.0
-146.0,-53.0,8.0,3.0,-4.0,38.0,18.0,32.0,-41.0,-132.0,0.0
-101.0,-45.0,6.0,12.0,7.0,27.0,10.0,29.0,-19.0,-84.0,0.0
-66.0,-48.0,2.0,3.0,15.0,27.0,5.0,17.0,-4.0,-57.0,0.0
-25.0,-30.0,13.0,9.0,23.0,30.0,37.0,21.0,-2.0,-28.0,0.0
-5.0,-17.0,30.0,9.0,24.0,16.0,52.0,29.0,7.0,-30.0,0.0
10.0,2.0,36.0,8.0,12.0,-2.0,23.0,24.0,8.0,-44.0,0.0
41.0,8.0,34.0,1.0,4.0,-1.0,-31.0,9.0,18.0,-16.0,0.0
79.0,14.0,39.0,3.0,7.0,13.0,-50.0,-3.0,2.0,-2.0,0.0
86.0,14.0,55.0,23.0,24.0,15.0,-36.0,-10.0,-29.0,-24.0,0.0
82.0,-5.0,50.0,18.0,24.0,13.0,-34.0,-15.0,-57.0,-47.0,0.0
62.0,-27.0,14.0,-19.0,7.0,27.0,-36.0,-39.0,-97.0,-70.0,0.0
21.0,-46.0,-11.0,-32.0,-24.0,42.0,17.0,-32.0,-98.0,-92.0,0.0
-4.0,-88.0,-38.0,-41.0,-42.0,44.0,149.0,6.0,-82.0,-118.0,0.0
-22.0,-98.0,-49.0,-62.0,-44.0,34.0,215.0,33.0,-70.0,-91.0,0.0
-10.0,-48.0,-23.0,-59.0,-25.0,23.0,132.0,25.0,-39.0,-8.0,0.0
-28.0,-11.0,1.0,-48.0,-15.0,13.0,68.0,33.0,1.0,73.0,0.0
-36.0,-7.0,3.0,-56.0,-21.0,7.0,45.0,54.0,90.0,56.0,0.0
-21.0,-10.0,22.0,-44.0,0.0,12.0,48.0,76.0,146.0,25.0,0.0
-28.0,-4.0,41.0,-22.0,17.0,14.0,39.0,67.0,96.0,-21.0,0.0
-51.0,-17.0,43.0,0.0,22.0,20.0,32.0,41.0,7.0,-148.0,0.0
-34.0,-15.0,34.0,11.0,24.0,30.0,29.0,17.0,-35.0,-197.0,0.0
-20.0,6.0,45.0,13.0,19.0,32.0,14.0,10.0,-42.0,-187.0,0.0
-26.0,23.0,54.0,13.0,18.0,32.0,-10.0,0.0,-43.0,-167.0,0.0
-24.0,13.0,25.0,1.0,28.0,24.0,-31.0,-10.0,-54.0,-136.0,0.0
-10.0,0.0,5.0,0.0,38.0,16.0,-44.0,-20.0,-70.0,-118.0,0.0
5.0,7.0,7.0,7.0,49.0,16.0,-26.0,-25.0,-91.0,-108.0,0.0
13.0,24.0,21.0,15.0,42.0,15.0,-13.0,-25.0,-63.0,-39.0,0.0
35.0,44.0,35.0,25.0,36.0,9.0,-58.0,-33.0,10.0,47.0,0.0
48.0,46.0,36.0,40.0,45.0,3.0,-108.0,-41.0,11.0,32.0,0.0
39.0,40.0,34.0,35.0,39.0,2.0,-120.0,-34.0,-14.0,-48.0,0.0
12.0,6.0,1.0,6.0,4.0,-10.0,-45.0,-20.0,-36.0,-82.0,0.0
0.0,-13.0,-13.0,-22.0,-12.0,-7.0,43.0,0.0,-70.0,-99.0,0.0
19.0,-1.0,-9.0,-20.0,-5.0,-4.0,12.0,-7.0,-75.0,-98.0,0.0
33.0,-3.0,-23.0,-40.0,-31.0,-40.0,-35.0,0.0,11.0,-26.0,0.0
37.0,-7.0,-28.0,-51.0,-36.0,-45.0,-28.0,10.0,94.0,24.0,0.0
13.0,-14.0,-33.0,-48.0,-17.0,-22.0,36.0,2.0,53.0,-12.0,0.0
-16.0,-41.0,-62.0,-57.0,-33.0,-11.0,130.0,30.0,37.0,0.0,0.0
-22.0,-68.0,-75.0,-73.0,-49.0,-32.0,148.0,65.0,112.0,161.0,0.0
-7.0,-53.0,-55.0,-50.0,-44.0,-29.0,97.0,70.0,142.0,219.0,0.0
16.0,-17.0,-32.0,-26.0,-16.0,-9.0,55.0,37.0,84.0,125.0,0.0
23.0,1.0,-7.0,-13.0,10.0,7.0,46.0,5.0,19.0,31.0,0.0
22.0,-7.0,12.0,-4.0,23.0,14.0,34.0,-8.0,-14.0,-5.0,0.0
19.0,-14.0,11.0,-11.0,25.0,4.0,18.0,-22.0,-18.0,-1.0,0.0
15.0,-14.0,5.0,-29.0,22.0,-14.0,8.0,-35.0,-8.0,39.0,0.0
20.0,-17.0,4.0,-34.0,21.0,-18.0,-10.0,-42.0,19.0,89.0,0.0
21.0,-19.0,2.0,-24.0,17.0,-12.0,-30.0,-44.0,40.0,98.0,0.0
28.0,-19.0,1.0,-7.0,25.0,-6.0,-33.0,-41.0,37.0,86.0,0.0
23.0,-6.0,0.0,11.0,34.0,4.0,-35.0,-45.0,23.0,52.0,0.0
22.0,9.0,16.0,0.0,30.0,5.0,-36.0,-20.0,45.0,22.0,0.0
23.0,16.0,25.0,-13.0,22.0,-16.0,-72.0,-12.0,50.0,18.0,0.0
19.0,11.0,21.0,-4.0,20.0,9.0,-52.0,-1.0,38.0,16.0,0.0
-8.0,-18.0,-12.0,-3.0,3.0,38.0,39.0,-3.0,-11.0,-24.0,0.0
-19.0,-19.0,-23.0,-1.0,4.0,40.0,98.0,-9.0,-44.0,-43.0,0.0
-6.0,6.0,-10.0,-1.0,8.0,18.0,56.0,-21.0,-51.0,-38.0,0.0
17.0,23.0,8.0,-7.0,11.0,-2.0,-2.0,-29.0,-79.0,-50.0,0.0
26.0,18.0,8.0,-2.0,23.0,2.0,-7.0,-40.0,-126.0,-64.0,0.0
20.0,9.0,19.0,6.0,23.0,11.0,42.0,-36.0,-143.0,-59.0,0.0
16.0,10.0,16.0,21.0,28.0,19.0,42.0,-24.0,-133.0,-48.0,0.0
-4.0,8.0,8.0,9.0,25.0,16.0,4.0,-23.0,-103.0,-37.0,0.0
-28.0,-9.0,-5.0,-22.0,11.0,8.0,-5.0,-7.0,-47.0,-12.0,0.0
-30.0,-16.0,-13.0,-15.0,-2.0,4.0,20.0,1.0,-55.0,-28.0,0.0
-21.0,-21.0,-14.0,1.0,-2.0,17.0,76.0,7.0,-68.0,-46.0,0.0
-24.0,-17.0,-24.0,-16.0,-10.0,6.0,51.0,12.0,9.0,-8.0,0.0
-21.0,-22.0,-36.0,-25.0,-33.0,-25.0,-2.0,57.0,200.0,114.0,0.0
-13.0,-9.0,-15.0,-11.0,-15.0,-10.0,-15.0,71.0,243.0,169.0,0.0
