channel0,channel1,channel2,channel3,channel4,channel5,channel6,channel7,channel8,channel9,true_locs
-96.0,-24.0,-36.0,-187.0,-64.0,-88.0,-139.0,-52.0,-25.0,261.0,0.0
-131.0,-71.0,-73.0,-157.0,-45.0,-39.0,-110.0,-56.0,-32.0,227.0,0.0
-151.0,-92.0,-84.0,-154.0,-39.0,-19.0,-83.0,-69.0,-37.0,201.0,0.0
-146.0,-93.0,-84.0,-180.0,-46.0,-28.0,-76.0,-77.0,-35.0,200.0,0.0
-127.0,-88.0,-93.0,-183.0,-49.0,-42.0,-56.0,-75.0,-33.0,191.0,0.0
-136.0,-91.0,-96.0,-192.0,-47.0,-48.0,-51.0,-68.0,-37.0,178.0,0.0
-141.0,-97.0,-90.0,-221.0,-52.0,-44.0,-62.0,-60.0,-46.0,154.0,0.0
-138.0,-103.0,-89.0,-227.0,-51.0,-48.0,-68.0,-58.0,-55.0,139.0,0.0
-138.0,-114.0,-89.0,-203.0,-51.0,-64.0,-74.0,-54.0,-58.0,139.0,0.0
-137.0,-112.0,-93.0,-184.0,-54.0,-69.0,-67.0,-49.0,-53.0,124.0,0.0
-135.0,-103.0,-102.0,-187.0,-55.0,-76.0,-80.0,-43.0,-59.0,110.0,0.0
-121.0,-76.0,-96.0,-189.0,-62.0,-95.0,-75.0,-52.0,-68.0,112.0,0.0
-109.0,-59.0,-85.0,-184.0,-68.0,-107.0,-91.0,-53.0,-78.0,104.0,0.0
-108.0,-74.0,-79.0,-185.0,-69.0,-109.0,-102.0,-62.0,-84.0,88.0,0.0
-112.0,-92.0,-83.0,-182.0,-70.0,-104.0,-87.0,-70.0,-80.0,79.0,0.0
-121.0,-101.0,-94.0,-164.0,-57.0,-91.0,-92.0,-75.0,-83.0,68.0,0.0
-132.0,-99.0,-98.0,-144.0,-63.0,-88.0,-107.0,-81.0,-91.0,51.0,0.0
-139.0,-115.0,-87.0,-124.0,-70.0,-87.0,-134.0,-101.0,-116.0,25.0,0.0
-151.0,-132.0,-76.0,-109.0,-80.0,-90.0,-147.0,-112.0,-132.0,-1.0,0.0
-159.0,-136.0,-75.0,-105.0,-75.0,-87.0,-146.0,-118.0,-138.0,-15.0,0.0
-165.0,-127.0,-71.0,-103.0,-76.0,-88.0,-138.0,-115.0,-138.0,-14.0,0.0
-171.0,-112.0,-97.0,-122.0,-81.0,-92.0,-125.0,-102.0,-139.0,-17.0,0.0
-178.0,-109.0,-103.0,-154.0,-93.0,-98.0,-115.0,-107.0,-137.0,-31.0,0.0
-166.0,-108.0,-106.0,-149.0,-100.0,-102.0,-104.0,-102.0,-126.0,-43.0,0.0
-175.0,-112.0,-116.0,-158.0,-97.0,-110.0,-98.0,-96.0,-120.0,-63.0,0.0
-182.0,-117.0,-106.0,-150.0,-92.0,-98.0,-85.0,-92.0,-124.0,-67.0,0.0
-181.0,-117.0,-101.0,-137.0,-104.0,-110.0,-79.0,-97.0,-128.0,-76.0,0.0
-181.0,-127.0,-113.0,-133.0,-106.0,-113.0,-89.0,-92.0,-118.0,-76.0,0.0
-173.0,-151.0,-126.0,-140.0,-96.0,-94.0,-87.0,-80.0,-106.0,-68.0,0.0
-151.0,-159.0,-130.0,-147.0,-103.0,-110.0,-86.0,-78.0,-109.0,-78.0,0.0
-128.0,-151.0,-129.0,-146.0,-112.0,-138.0,-82.0,-95.0,-112.0,-81.0,0.0
-117.0,-135.0,-111.0,-117.0,-121.0,-149.0,-91.0,-106.0,-122.0,-91.0,0.0
-112.0,-140.0,-99.0,-82.0,-130.0,-148.0,-101.0,-100.0,-128.0,-111.0,0.0
-103.0,-147.0,-100.0,-69.0,-124.0,-143.0,-113.0,-98.0,-132.0,-129.0,0.0
-109.0,-146.0,-79.0,-55.0,-114.0,-131.0,-108.0,-105.0,-147.0,-137.0,0.0
-116.0,-137.0,-70.0,-27.0,-110.0,-120.0,-107.0,-118.0,-150.0,-143.0,0.0
-119.0,-119.0,-65.0,-20.0,-105.0,-114.0,-127.0,-127.0,-157.0,-138.0,0.0
-115.0,-116.0,-73.0,-8.0,-104.0,-115.0,-125.0,-124.0,-145.0,-129.0,0.0
-99.0,-111.0,-63.0,7.0,-94.0,-103.0,-123.0,-114.0,-109.0,-132.0,0.0
-93.0,-114.0,-56.0,4.0,-91.0,-101.0,-115.0,-97.0,-107.0,-147.0,0.0
-76.0,-126.0,-76.0,-17.0,-79.0,-97.0,-120.0,-84.0,-111.0,-153.0,0.0
-76.0,-136.0,-90.0,-23.0,-78.0,-96.0,-126.0,-79.0,-120.0,-154.0,0.0
-102.0,-151.0,-62.0,-17.0,-79.0,-93.0,-121.0,-77.0,-131.0,-159.0,0.0
-116.0,-146.0,-19.0,-21.0,-71.0,-87.0,-110.0,-84.0,-136.0,-152.0,0.0
-110.0,-132.0,0.0,-28.0,-74.0,-87.0,-117.0,-93.0,-128.0,-163.0,0.0
-102.0,-104.0,4.0,-38.0,-96.0,-112.0,-111.0,-93.0,-108.0,-171.0,0.0
-84.0,-92.0,-17.0,-50.0,-110.0,-133.0,-102.0,-77.0,-102.0,-169.0,0.0
-100.0,-109.0,-55.0,-58.0,-120.0,-110.0,-102.0,-61.0,-102.0,-161.0,0.0
-136.0,-158.0,-110.0,-30.0,-81.0,-77.0,-89.0,-54.0,-112.0,-166.0,0.0
-127.0,-183.0,-137.0,-13.0,-63.0,-63.0,-74.0,-46.0,-98.0,-161.0,0.0
-107.0,-158.0,-140.0,-38.0,-71.0,-57.0,-71.0,-42.0,-82.0,-150.0,0.0
-92.0,-151.0,-149.0,-39.0,-76.0,-58.0,-66.0,-46.0,-80.0,-156.0,0.0
-99.0,-153.0,-144.0,-31.0,-84.0,-59.0,-60.0,-50.0,-87.0,-160.0,0.0
-102.0,-142.0,-118.0,-17.0,-70.0,-68.0,-68.0,-60.0,-93.0,-172.0,0.0
-109.0,-137.0,-100.0,-6.0,-58.0,-57.0,-79.0,-71.0,-92.0,-179.0,0.0
-90.0,-125.0,-87.0,2.0,-60.0,-42.0,-86.0,-77.0,-99.0,-183.0,0.0
-67.0,-113.0,-87.0,3.0,-59.0,-50.0,-85.0,-73.0,-114.0,-194.0,0.0
-63.0,-109.0,-93.0,7.0,-83.0,-79.0,-79.0,-73.0,-116.0,-193.0,0.0
-63.0,-119.0,-92.0,13.0,-67.0,-81.0,-68.0,-67.0,-99.0,-201.0,0.0
-63.0,-120.0,-78.0,9.0,-77.0,-69.0,-57.0,-64.0,-84.0,-213.0,0.0
-55.0,-105.0,-76.0,1.0,-61.0,-93.0,-51.0,-54.0,-89.0,-213.0,0.0
-49.0,-102.0,-79.0,-11.0,-56.0,-80.0,-57.0,-46.0,-94.0,-217.0,0.0
-43.0,-96.0,-59.0,-11.0,-47.0,-65.0,-38.0,-43.0,-77.0,-221.0,0.0
-28.0,-89.0,-48.0,-8.0,-72.0,-78.0,-44.0,-43.0,-67.0,-210.0,0.0
-15.0,-86.0,-39.0,-5.0,-52.0,-65.0,-33.0,-37.0,-66.0,-213.0,0.0
-6.0,-94.0,-34.0,-12.0,-53.0,-74.0,-39.0,-34.0,-69.0,-221.0,0.0
-1.0,-97.0,-23.0,-23.0,-44.0,-75.0,-48.0,-41.0,-66.0,-232.0,0.0
-2.0,-107.0,-6.0,-23.0,-48.0,-52.0,-54.0,-38.0,-70.0,-231.0,0.0
-15.0,-121.0,6.0,-12.0,-40.0,-55.0,-53.0,-35.0,-80.0,-240.0,0.0
-17.0,-117.0,13.0,-16.0,-44.0,-24.0,-48.0,-35.0,-76.0,-237.0,0.0
0.0,-100.0,7.0,-30.0,-59.0,-17.0,-49.0,-41.0,-73.0,-234.0,0.0
6.0,-77.0,0.0,-51.0,-48.0,-47.0,-50.0,-44.0,-66.0,-230.0,0.0
8.0,-80.0,-10.0,-54.0,-81.0,-33.0,-54.0,-25.0,-53.0,-212.0,0.0
5.0,-91.0,-36.0,-87.0,-83.0,-31.0,-45.0,0.0,-50.0,-191.0,0.0
22.0,-82.0,-53.0,-110.0,-45.0,-48.0,-31.0,5.0,-39.0,-177.0,0.0
54.0,-62.0,-57.0,-112.0,-57.0,-27.0,-29.0,0.0,-20.0,-173.0,0.0
48.0,-65.0,-54.0,-116.0,-67.0,-32.0,-42.0,10.0,-12.0,-165.0,0.0
49.0,-64.0,-48.0,-114.0,-34.0,-48.0,-41.0,9.0,-21.0,-173.0,0.0
43.0,-61.0,-44.0,-109.0,-41.0,-39.0,-33.0,14.0,-29.0,-177.0,0.0
47.0,-49.0,-42.0,-124.0,-58.0,-53.0,-35.0,7.0,-6.0,-169.0,0.0
51.0,-48.0,-43.0,-145.0,-33.0,-42.0,-28.0,9.0,14.0,-165.0,0.0
60.0,-49.0,-50.0,-154.0,-34.0,-40.0,-25.0,5.0,20.0,-159.0,0.0
62.0,-47.0,-59.0,-167.0,-66.0,-27.0,-36.0,26.0,6.0,-159.0,0.0
62.0,-26.0,-38.0,-180.0,-45.0,-34.0,-32.0,24.0,8.0,-162.0,0.0
57.0,-13.0,-3.0,-169.0,-12.0,-16.0,-23.0,14.0,3.0,-181.0,0.0
46.0,-21.0,-3.0,-172.0,-40.0,0.0,-33.0,15.0,-14.0,-182.0,0.0
43.0,-24.0,-12.0,-176.0,-47.0,-16.0,-34.0,9.0,-9.0,-182.0,0.0
41.0,-22.0,-2.0,-177.0,-18.0,1.0,-36.0,11.0,-1.0,-181.0,0.0
50.0,-30.0,0.0,-182.0,-24.0,10.0,-33.0,16.0,6.0,-176.0,0.0
57.0,-44.0,0.0,-177.0,-41.0,-10.0,-45.0,16.0,3.0,-170.0,0.0
62.0,-54.0,3.0,-183.0,-21.0,0.0,-55.0,25.0,-9.0,-161.0,0.0
56.0,-46.0,-6.0,-193.0,-13.0,-4.0,-38.0,16.0,-10.0,-148.0,0.0
58.0,-35.0,-2.0,-181.0,-39.0,-20.0,-40.0,17.0,-12.0,-138.0,0.0
73.0,-6.0,0.0,-175.0,-38.0,-6.0,-38.0,23.0,-12.0,-141.0,0.0
80.0,0.0,0.0,-178.0,-17.0,-21.0,-27.0,18.0,-16.0,-142.0,0.0
77.0,-20.0,8.0,-177.0,-17.0,-6.0,-10.0,37.0,-8.0,-144.0,0.0
64.0,-30.0,-2.0,-182.0,-43.0,25.0,-2.0,57.0,3.0,-146.0,0.0
76.0,-30.0,-19.0,-188.0,-63.0,13.0,0.0,63.0,5.0,-143.0,0.0
68.0,-16.0,-8.0,-191.0,-49.0,-4.0,0.0,62.0,8.0,-141.0,0.0
64.0,-15.0,-3.0,-200.0,-28.0,15.0,1.0,51.0,10.0,-126.0,0.0
56.0,-9.0,-2.0,-209.0,-14.0,14.0,-3.0,47.0,0.0,-122.0,1.0
41.0,-14.0,17.0,-210.0,-33.0,1.0,0.0,47.0,-19.0,-128.0,1.0
45.0,-26.0,39.0,-195.0,-52.0,25.0,-7.0,47.0,-15.0,-130.0,1.0
48.0,-30.0,42.0,-214.0,-57.0,44.0,-17.0,41.0,-9.0,-132.0,1.0
42.0,-16.0,32.0,-204.0,-59.0,51.0,-10.0,48.0,-5.0,-121.0,1.0
37.0,-10.0,31.0,-205.0,-57.0,42.0,-5.0,57.0,-11.0,-106.0,1.0
38.0,-10.0,30.0,-228.0,-54.0,24.0,-3.0,63.0,-6.0,-93.0,1.0
45.0,-3.0,19.0,-237.0,-58.0,8.0,2.0,66.0,6.0,-85.0,1.0
34.0,6.0,14.0,-231.0,-54.0,9.0,5.0,67.0,18.0,-79.0,1.0
28.0,12.0,6.0,-230.0,-49.0,22.0,6.0,76.0,20.0,-71.0,1.0
29.0,7.0,8.0,-262.0,-42.0,5.0,14.0,79.0,14.0,-73.0,1.0
23.0,0.0,15.0,-262.0,-43.0,-20.0,8.0,85.0,17.0,-77.0,1.0
24.0,-3.0,45.0,-267.0,-44.0,-7.0,-9.0,85.0,12.0,-69.0,1.0
24.0,0.0,67.0,-268.0,-42.0,0.0,-16.0,75.0,14.0,-59.0,1.0
34.0,18.0,78.0,-271.0,-35.0,-20.0,0.0,82.0,18.0,-53.0,1.0
50.0,59.0,86.0,-266.0,-24.0,-7.0,2.0,98.0,10.0,-58.0,1.0
37.0,67.0,85.0,-267.0,5.0,13.0,16.0,104.0,12.0,-59.0,1.0
15.0,41.0,62.0,-250.0,42.0,13.0,16.0,107.0,19.0,-57.0,1.0
-9.0,6.0,35.0,-226.0,35.0,20.0,20.0,114.0,18.0,-78.0,0.0
-8.0,-14.0,24.0,-226.0,19.0,31.0,13.0,100.0,8.0,-84.0,0.0
12.0,-18.0,11.0,-246.0,46.0,40.0,30.0,102.0,24.0,-73.0,0.0
14.0,-28.0,-22.0,-255.0,51.0,51.0,36.0,102.0,32.0,-65.0,0.0
8.0,-39.0,-48.0,-251.0,30.0,53.0,19.0,100.0,19.0,-63.0,0.0
29.0,-30.0,-47.0,-279.0,48.0,43.0,28.0,92.0,15.0,-51.0,0.0
38.0,-17.0,-49.0,-322.0,32.0,31.0,21.0,99.0,13.0,-40.0,0.0
43.0,14.0,-23.0,-308.0,2.0,25.0,10.0,99.0,2.0,-34.0,0.0
42.0,40.0,0.0,-284.0,34.0,28.0,16.0,99.0,11.0,-33.0,0.0
39.0,50.0,0.0,-270.0,32.0,17.0,17.0,98.0,27.0,-35.0,0.0
32.0,25.0,-23.0,-251.0,1.0,-6.0,19.0,103.0,32.0,-25.0,0.0
29.0,9.0,-30.0,-230.0,23.0,2.0,32.0,103.0,34.0,-24.0,0.0
11.0,-2.0,-38.0,-227.0,37.0,20.0,38.0,104.0,45.0,-23.0,0.0
11.0,-5.0,-36.0,-225.0,-1.0,32.0,30.0,114.0,49.0,-20.0,0.0
19.0,-5.0,-41.0,-233.0,2.0,36.0,28.0,115.0,48.0,-8.0,0.0
16.0,16.0,-22.0,-230.0,27.0,41.0,34.0,108.0,50.0,-13.0,0.0
-2.0,14.0,-4.0,-221.0,11.0,46.0,43.0,111.0,38.0,-19.0,0.0
-16.0,7.0,-2.0,-203.0,5.0,45.0,33.0,106.0,20.0,-17.0,0.0
-8.0,-1.0,0.0,-167.0,44.0,46.0,38.0,95.0,15.0,-28.0,0.0
-2.0,-2.0,8.0,-152.0,21.0,38.0,31.0,91.0,17.0,-39.0,0.0
0.0,15.0,17.0,-154.0,26.0,36.0,26.0,91.0,14.0,-34.0,0.0
-5.0,32.0,25.0,-145.0,37.0,39.0,27.0,88.0,16.0,-34.0,0.0
-11.0,28.0,25.0,-138.0,24.0,25.0,26.0,95.0,21.0,-32.0,0.0
-4.0,29.0,23.0,-144.0,36.0,10.0,20.0,99.0,32.0,-31.0,0.0
-4.0,33.0,27.0,-134.0,30.0,2.0,22.0,95.0,32.0,-33.0,0.0
-14.0,29.0,33.0,-120.0,49.0,10.0,19.0,94.0,23.0,-36.0,0.0
-5.0,34.0,30.0,-115.0,31.0,14.0,16.0,89.0,13.0,-46.0,0.0
-1.0,36.0,17.0,-114.0,37.0,11.0,3.0,83.0,14.0,-42.0,0.0
-10.0,33.0,29.0,-99.0,22.0,11.0,-2.0,87.0,5.0,-38.0,0.0
-23.0,30.0,31.0,-105.0,35.0,13.0,7.0,89.0,0.0,-43.0,0.0
-17.0,39.0,43.0,-108.0,34.0,17.0,7.0,86.0,-13.0,-41.0,0.0
-4.0,42.0,48.0,-87.0,35.0,17.0,4.0,77.0,-19.0,-27.0,0.0
-7.0,40.0,59.0,-63.0,32.0,25.0,0.0,74.0,-16.0,-31.0,0.0
-7.0,31.0,54.0,-55.0,39.0,35.0,8.0,75.0,-14.0,-57.0,0.0
-15.0,23.0,44.0,-53.0,26.0,29.0,17.0,56.0,-6.0,-56.0,0.0
-14.0,29.0,50.0,-37.0,27.0,29.0,6.0,49.0,3.0,-52.0,0.0
-20.0,47.0,61.0,-40.0,10.0,31.0,-5.0,63.0,13.0,-46.0,0.0
-19.0,49.0,58.0,-47.0,14.0,25.0,2.0,65.0,14.0,-38.0,0.0
-30.0,36.0,54.0,-52.0,12.0,21.0,0.0,67.0,18.0,-22.0,0.0
-36.0,27.0,41.0,-55.0,14.0,14.0,-6.0,71.0,22.0,-22.0,0.0
-30.0,21.0,32.0,-49.0,26.0,9.0,-12.0,78.0,32.0,-25.0,0.0
-25.0,14.0,15.0,-36.0,30.0,7.0,-6.0,70.0,39.0,-16.0,0.0
-36.0,14.0,7.0,-50.0,14.0,-6.0,0.0,72.0,48.0,-13.0,0.0
-21.0,28.0,-9.0,-71.0,0.0,-28.0,3.0,87.0,39.0,-16.0,0.0
-20.0,43.0,-15.0,-77.0,0.0,-46.0,12.0,88.0,30.0,-24.0,0.0
-29.0,43.0,-10.0,-79.0,-26.0,-42.0,17.0,95.0,35.0,-37.0,0.0
-33.0,30.0,0.0,-73.0,0.0,-15.0,21.0,90.0,49.0,-45.0,0.0
-39.0,9.0,6.0,-64.0,-2.0,0.0,40.0,90.0,55.0,-53.0,0.0
-48.0,4.0,13.0,-76.0,-1.0,7.0,29.0,88.0,43.0,-48.0,0.0
-58.0,0.0,17.0,-67.0,-9.0,14.0,29.0,82.0,52.0,-58.0,0.0
-71.0,-3.0,20.0,-53.0,-21.0,17.0,24.0,75.0,43.0,-65.0,0.0
-98.0,-12.0,18.0,-39.0,19.0,18.0,34.0,77.0,42.0,-63.0,0.0
-105.0,-27.0,0.0,-23.0,6.0,23.0,21.0,86.0,58.0,-71.0,0.0
-93.0,-26.0,-7.0,-29.0,11.0,17.0,41.0,79.0,63.0,-69.0,0.0
-67.0,-7.0,-2.0,-43.0,-4.0,0.0,51.0,87.0,70.0,-62.0,0.0
-57.0,4.0,20.0,-55.0,9.0,-9.0,24.0,86.0,65.0,-56.0,0.0
-46.0,0.0,35.0,-48.0,13.0,-11.0,33.0,86.0,66.0,-58.0,0.0
-42.0,-6.0,47.0,-35.0,7.0,-8.0,23.0,92.0,66.0,-40.0,0.0
-49.0,-11.0,52.0,-20.0,16.0,6.0,71.0,86.0,67.0,-32.0,0.0
-47.0,0.0,56.0,-8.0,9.0,23.0,132.0,87.0,57.0,-36.0,0.0
-24.0,28.0,62.0,-1.0,22.0,22.0,114.0,85.0,55.0,-43.0,0.0
-37.0,15.0,43.0,-14.0,22.0,14.0,77.0,91.0,49.0,-38.0,0.0
-69.0,-36.0,-5.0,-42.0,11.0,12.0,75.0,90.0,56.0,-29.0,0.0
-69.0,-43.0,-56.0,-72.0,-3.0,3.0,49.0,87.0,77.0,-19.0,0.0
-18.0,25.0,-31.0,-72.0,-13.0,-29.0,-33.0,95.0,89.0,-9.0,0.0
14.0,81.0,12.0,-54.0,-37.0,-26.0,-93.0,99.0,91.0,6.0,0.0
-27.0,55.0,28.0,-38.0,-4.0,10.0,-65.0,97.0,94.0,5.0,0.0
-78.0,2.0,25.0,-40.0,-2.0,27.0,-24.0,76.0,85.0,-11.0,0.0
-95.0,9.0,65.0,-53.0,5.0,13.0,-5.0,62.0,74.0,-12.0,0.0
-90.0,11.0,83.0,-42.0,2.0,1.0,-12.0,58.0,79.0,4.0,0.0
-86.0,-11.0,69.0,-12.0,-10.0,0.0,0.0,52.0,79.0,19.0,0.0
-81.0,-8.0,57.0,1.0,23.0,2.0,8.0,40.0,92.0,41.0,0.0
-55.0,30.0,50.0,-27.0,15.0,0.0,16.0,55.0,119.0,58.0,0.0
-52.0,35.0,5.0,-74.0,22.0,-3.0,10.0,76.0,117.0,57.0,0.0
-81.0,0.0,-38.0,-70.0,29.0,4.0,15.0,82.0,108.0,47.0,0.0
-89.0,-1.0,-36.0,-67.0,26.0,3.0,33.0,89.0,87.0,39.0,0.0
-57.0,14.0,-33.0,-86.0,10.0,-7.0,27.0,93.0,79.0,42.0,0.0
-47.0,21.0,-31.0,-95.0,11.0,0.0,22.0,93.0,72.0,46.0,0.0
-69.0,22.0,-16.0,-92.0,18.0,-1.0,32.0,73.0,70.0,39.0,0.0
-76.0,23.0,6.0,-89.0,6.0,3.0,31.0,71.0,63.0,33.0,0.0
-85.0,21.0,23.0,-92.0,13.0,4.0,19.0,65.0,57.0,28.0,0.0
-70.0,21.0,36.0,-104.0,0.0,4.0,31.0,55.0,49.0,33.0,0.0
-65.0,29.0,47.0,-98.0,15.0,14.0,36.0,57.0,47.0,40.0,0.0
-76.0,13.0,38.0,-89.0,13.0,34.0,21.0,50.0,44.0,43.0,0.0
-67.0,5.0,32.0,-89.0,31.0,61.0,27.0,54.0,52.0,46.0,0.0
-68.0,8.0,21.0,-82.0,36.0,84.0,38.0,62.0,56.0,52.0,0.0
-62.0,16.0,20.0,-76.0,35.0,57.0,42.0,63.0,50.0,38.0,0.0
-54.0,12.0,26.0,-77.0,36.0,56.0,30.0,71.0,49.0,33.0,0.0
-43.0,30.0,28.0,-85.0,17.0,64.0,14.0,71.0,45.0,43.0,0.0
-30.0,36.0,25.0,-98.0,19.0,32.0,21.0,55.0,39.0,45.0,0.0
-28.0,30.0,17.0,-115.0,12.0,0.0,30.0,47.0,49.0,40.0,0.0
-15.0,41.0,14.0,-125.0,0.0,1.0,32.0,47.0,51.0,40.0,0.0
-5.0,65.0,44.0,-134.0,9.0,5.0,24.0,37.0,45.0,47.0,0.0
-7.0,80.0,68.0,-134.0,5.0,14.0,20.0,44.0,33.0,49.0,0.0
-2.0,76.0,76.0,-130.0,9.0,23.0,35.0,49.0,25.0,41.0,0.0
-4.0,54.0,68.0,-118.0,13.0,27.0,45.0,47.0,27.0,40.0,0.0
-4.0,35.0,48.0,-111.0,27.0,9.0,50.0,55.0,34.0,48.0,0.0
-21.0,12.0,25.0,-104.0,22.0,0.0,43.0,86.0,33.0,48.0,0.0
-21.0,6.0,0.0,-89.0,9.0,12.0,30.0,74.0,34.0,23.0,0.0
-18.0,11.0,-14.0,-79.0,32.0,64.0,24.0,73.0,41.0,4.0,0.0
-18.0,-12.0,-5.0,-86.0,33.0,68.0,36.0,91.0,48.0,0.0,0.0
-21.0,-27.0,0.0,-83.0,26.0,75.0,41.0,97.0,54.0,11.0,0.0
-47.0,-18.0,-10.0,-74.0,32.0,78.0,46.0,100.0,48.0,4.0,0.0
-55.0,-19.0,12.0,-86.0,34.0,75.0,50.0,105.0,42.0,5.0,0.0
-56.0,-20.0,31.0,-107.0,25.0,74.0,45.0,124.0,47.0,2.0,0.0
-46.0,-5.0,39.0,-121.0,14.0,59.0,39.0,125.0,44.0,-4.0,0.0
-36.0,7.0,30.0,-132.0,23.0,50.0,41.0,144.0,41.0,4.0,0.0
-31.0,15.0,17.0,-164.0,16.0,45.0,45.0,142.0,44.0,-5.0,0.0
-38.0,28.0,14.0,-180.0,-4.0,46.0,56.0,136.0,39.0,-3.0,0.0
-29.0,40.0,38.0,-168.0,14.0,30.0,48.0,130.0,36.0,-8.0,0.0
-28.0,38.0,50.0,-145.0,28.0,48.0,35.0,139.0,38.0,-10.0,0.0
-23.0,28.0,50.0,-135.0,25.0,41.0,41.0,146.0,40.0,-7.0,0.0
-26.0,23.0,55.0,-137.0,27.0,52.0,46.0,150.0,49.0,13.0,0.0
-22.0,25.0,55.0,-131.0,23.0,61.0,40.0,156.0,42.0,34.0,0.0
-28.0,28.0,71.0,-121.0,14.0,58.0,58.0,159.0,41.0,25.0,0.0
-37.0,29.0,56.0,-114.0,11.0,53.0,71.0,149.0,41.0,1.0,0.0
-41.0,17.0,47.0,-121.0,17.0,54.0,69.0,134.0,34.0,-8.0,0.0
-41.0,0.0,37.0,-126.0,18.0,65.0,54.0,135.0,32.0,-3.0,0.0
-52.0,-5.0,42.0,-112.0,9.0,82.0,45.0,146.0,30.0,11.0,0.0
-51.0,-5.0,55.0,-115.0,8.0,85.0,49.0,138.0,27.0,14.0,0.0
-53.0,-1.0,56.0,-115.0,11.0,82.0,59.0,140.0,12.0,6.0,0.0
-46.0,8.0,54.0,-124.0,9.0,61.0,60.0,138.0,5.0,4.0,0.0
-33.0,22.0,53.0,-137.0,10.0,43.0,43.0,135.0,-6.0,18.0,0.0
-12.0,34.0,49.0,-143.0,21.0,36.0,33.0,138.0,-10.0,18.0,0.0
5.0,46.0,45.0,-144.0,15.0,24.0,40.0,139.0,-21.0,19.0,0.0
7.0,44.0,45.0,-144.0,12.0,20.0,39.0,143.0,-34.0,13.0,0.0
-6.0,44.0,54.0,-136.0,33.0,29.0,38.0,137.0,-44.0,12.0,0.0
-15.0,40.0,47.0,-129.0,43.0,28.0,48.0,132.0,-61.0,19.0,0.0
-10.0,41.0,46.0,-130.0,27.0,32.0,55.0,124.0,-76.0,29.0,0.0
-8.0,36.0,63.0,-136.0,16.0,34.0,70.0,130.0,-86.0,21.0,0.0
-13.0,37.0,70.0,-118.0,19.0,30.0,57.0,140.0,-107.0,11.0,0.0
-18.0,30.0,77.0,-99.0,35.0,30.0,36.0,133.0,-110.0,21.0,0.0
-15.0,19.0,89.0,-65.0,45.0,42.0,47.0,113.0,-117.0,12.0,0.0
-29.0,23.0,88.0,-40.0,49.0,61.0,39.0,85.0,-130.0,-8.0,0.0
-28.0,53.0,73.0,-45.0,49.0,59.0,25.0,84.0,-149.0,-13.0,0.0
0.0,75.0,32.0,-91.0,28.0,57.0,45.0,106.0,-136.0,2.0,0.0
4.0,53.0,3.0,-113.0,12.0,65.0,50.0,122.0,-119.0,10.0,0.0
-11.0,30.0,-3.0,-120.0,16.0,81.0,38.0,131.0,-120.0,6.0,0.0
-21.0,21.0,3.0,-122.0,20.0,73.0,50.0,144.0,-132.0,3.0,0.0
-26.0,32.0,16.0,-125.0,29.0,57.0,53.0,141.0,-136.0,11.0,0.0
-9.0,41.0,20.0,-127.0,29.0,36.0,56.0,139.0,-140.0,8.0,0.0
12.0,33.0,10.0,-136.0,20.0,15.0,41.0,124.0,-141.0,14.0,0.0
8.0,24.0,11.0,-141.0,8.0,6.0,22.0,122.0,-147.0,28.0,0.0
10.0,25.0,6.0,-144.0,14.0,2.0,24.0,114.0,-152.0,27.0,0.0
26.0,31.0,10.0,-162.0,17.0,-3.0,16.0,108.0,-154.0,38.0,0.0
27.0,37.0,11.0,-165.0,19.0,-5.0,8.0,106.0,-154.0,56.0,0.0
19.0,31.0,17.0,-159.0,27.0,5.0,29.0,113.0,-145.0,68.0,0.0
18.0,34.0,29.0,-151.0,47.0,24.0,46.0,120.0,-134.0,58.0,0.0
17.0,49.0,35.0,-128.0,64.0,31.0,47.0,111.0,-147.0,53.0,0.0
7.0,63.0,46.0,-118.0,63.0,32.0,49.0,94.0,-143.0,41.0,0.0
2.0,68.0,53.0,-111.0,64.0,38.0,35.0,90.0,-141.0,31.0,0.0
0.0,53.0,53.0,-100.0,70.0,44.0,41.0,96.0,-167.0,38.0,0.0
-5.0,33.0,43.0,-81.0,72.0,44.0,25.0,103.0,-175.0,23.0,0.0
-16.0,17.0,23.0,-82.0,69.0,34.0,33.0,116.0,-150.0,9.0,0.0
-26.0,15.0,24.0,-87.0,58.0,36.0,63.0,108.0,-144.0,10.0,0.0
-30.0,25.0,29.0,-89.0,54.0,47.0,140.0,112.0,-137.0,17.0,0.0
-25.0,23.0,20.0,-98.0,53.0,56.0,158.0,128.0,-132.0,11.0,0.0
-35.0,32.0,3.0,-94.0,53.0,51.0,115.0,126.0,-131.0,9.0,0.0
-39.0,26.0,16.0,-85.0,53.0,49.0,75.0,116.0,-147.0,-10.0,0.0
-34.0,34.0,33.0,-69.0,49.0,30.0,39.0,122.0,-144.0,-6.0,0.0
-37.0,43.0,37.0,-57.0,58.0,-1.0,-8.0,121.0,-117.0,10.0,0.0
-30.0,57.0,64.0,-46.0,68.0,-43.0,-65.0,114.0,-87.0,31.0,0.0
-35.0,57.0,100.0,-22.0,74.0,-39.0,-53.0,114.0,-87.0,31.0,0.0
-54.0,38.0,106.0,-21.0,64.0,-13.0,-18.0,103.0,-97.0,21.0,0.0
-61.0,23.0,70.0,-18.0,59.0,-2.0,3.0,95.0,-93.0,19.0,0.0
-60.0,7.0,42.0,-1.0,57.0,18.0,25.0,93.0,-89.0,33.0,0.0
-47.0,5.0,24.0,22.0,63.0,31.0,17.0,83.0,-88.0,49.0,0.0
-38.0,19.0,18.0,44.0,54.0,32.0,22.0,75.0,-101.0,44.0,0.0
-35.0,23.0,27.0,53.0,41.0,30.0,26.0,68.0,-104.0,11.0,0.0
-31.0,15.0,20.0,59.0,38.0,35.0,29.0,70.0,-91.0,3.0,0.0
-23.0,23.0,17.0,69.0,51.0,45.0,25.0,81.0,-82.0,23.0,0.0
-29.0,28.0,39.0,84.0,49.0,37.0,27.0,79.0,-60.0,38.0,0.0
-40.0,43.0,70.0,104.0,44.0,20.0,35.0,73.0,-53.0,45.0,0.0
-45.0,53.0,87.0,130.0,40.0,13.0,28.0,69.0,-44.0,41.0,0.0
-49.0,46.0,81.0,155.0,43.0,11.0,24.0,85.0,-51.0,34.0,0.0
-43.0,47.0,64.0,138.0,48.0,13.0,25.0,82.0,-56.0,25.0,0.0
-20.0,61.0,37.0,143.0,48.0,13.0,29.0,68.0,-53.0,19.0,0.0
-3.0,69.0,10.0,171.0,43.0,10.0,29.0,62.0,-48.0,16.0,0.0
-19.0,51.0,2.0,184.0,52.0,15.0,33.0,70.0,-45.0,25.0,0.0
-17.0,26.0,-18.0,180.0,59.0,17.0,57.0,88.0,-21.0,45.0,0.0
-4.0,5.0,-34.0,172.0,52.0,21.0,54.0,95.0,-19.0,54.0,0.0
-4.0,18.0,-26.0,186.0,46.0,16.0,43.0,87.0,-30.0,53.0,0.0
-15.0,38.0,3.0,213.0,39.0,13.0,42.0,75.0,-44.0,37.0,0.0
-37.0,43.0,23.0,235.0,42.0,26.0,34.0,71.0,-44.0,15.0,0.0
-43.0,53.0,42.0,260.0,37.0,31.0,28.0,62.0,-24.0,9.0,0.0
-37.0,71.0,59.0,273.0,27.0,32.0,26.0,67.0,-16.0,18.0,0.0
-37.0,73.0,75.0,281.0,32.0,30.0,28.0,72.0,-26.0,13.0,0.0
-51.0,62.0,79.0,291.0,33.0,35.0,26.0,66.0,-33.0,17.0,0.0
-46.0,45.0,65.0,290.0,32.0,35.0,22.0,67.0,-26.0,31.0,0.0
-40.0,19.0,47.0,286.0,36.0,27.0,26.0,84.0,-27.0,39.0,0.0
-51.0,-4.0,35.0,286.0,35.0,24.0,30.0,79.0,-18.0,32.0,0.0
-61.0,-9.0,60.0,294.0,31.0,22.0,21.0,70.0,-20.0,25.0,0.0
-70.0,15.0,91.0,304.0,40.0,4.0,24.0,65.0,-19.0,24.0,0.0
-79.0,32.0,88.0,293.0,36.0,-2.0,39.0,76.0,-20.0,28.0,0.0
-72.0,26.0,68.0,293.0,26.0,0.0,40.0,77.0,-14.0,27.0,0.0
-72.0,21.0,50.0,288.0,42.0,18.0,37.0,67.0,-10.0,26.0,0.0
-65.0,15.0,18.0,297.0,41.0,20.0,42.0,67.0,3.0,21.0,0.0
-42.0,27.0,-10.0,289.0,29.0,26.0,38.0,71.0,2.0,28.0,0.0
-13.0,64.0,-12.0,262.0,17.0,29.0,38.0,78.0,11.0,41.0,0.0
-14.0,49.0,-13.0,257.0,10.0,29.0,27.0,68.0,9.0,46.0,0.0
-24.0,27.0,-1.0,261.0,5.0,41.0,29.0,51.0,14.0,44.0,0.0
-27.0,22.0,21.0,281.0,14.0,51.0,31.0,36.0,5.0,38.0,0.0
-23.0,18.0,43.0,292.0,22.0,46.0,26.0,31.0,-6.0,35.0,0.0
-36.0,-1.0,44.0,294.0,15.0,44.0,20.0,44.0,-12.0,36.0,0.0
-40.0,-29.0,16.0,296.0,26.0,34.0,24.0,40.0,-21.0,29.0,0.0
-34.0,-28.0,16.0,274.0,28.0,19.0,24.0,25.0,-17.0,27.0,0.0
2.0,-5.0,14.0,241.0,16.0,10.0,21.0,22.0,-6.0,39.0,0.0
32.0,37.0,0.0,212.0,-3.0,-2.0,7.0,15.0,1.0,55.0,0.0
23.0,63.0,8.0,205.0,-17.0,1.0,17.0,23.0,-2.0,63.0,0.0
-1.0,59.0,12.0,211.0,-14.0,9.0,24.0,28.0,-6.0,63.0,0.0
-22.0,30.0,3.0,197.0,-9.0,28.0,25.0,29.0,-3.0,64.0,0.0
-6.0,33.0,16.0,191.0,-8.0,20.0,17.0,23.0,14.0,83.0,0.0
18.0,57.0,11.0,176.0,-29.0,5.0,13.0,14.0,7.0,86.0,0.0
9.0,58.0,13.0,164.0,-40.0,14.0,21.0,17.0,6.0,85.0,0.0
-8.0,21.0,16.0,154.0,-41.0,11.0,38.0,25.0,-7.0,79.0,0.0
-14.0,-5.0,15.0,139.0,-32.0,22.0,30.0,28.0,-14.0,83.0,0.0
-29.0,-1.0,16.0,143.0,-28.0,28.0,12.0,11.0,-24.0,80.0,0.0
-30.0,13.0,23.0,132.0,-33.0,28.0,11.0,-3.0,-34.0,70.0,0.0
-25.0,15.0,31.0,104.0,-29.0,31.0,18.0,-4.0,-46.0,73.0,0.0
-21.0,20.0,40.0,76.0,-24.0,34.0,12.0,-2.0,-50.0,66.0,0.0
-21.0,11.0,39.0,63.0,-22.0,31.0,9.0,6.0,-50.0,80.0,0.0
-10.0,14.0,49.0,42.0,-25.0,23.0,15.0,11.0,-53.0,87.0,0.0
-4.0,16.0,53.0,23.0,-25.0,10.0,23.0,13.0,-54.0,84.0,0.0
-4.0,9.0,44.0,11.0,-12.0,-6.0,26.0,12.0,-42.0,93.0,0.0
-4.0,1.0,22.0,-23.0,-5.0,-8.0,23.0,23.0,-38.0,106.0,0.0
-11.0,-4.0,7.0,-45.0,-7.0,-8.0,18.0,23.0,-34.0,123.0,0.0
-14.0,-13.0,11.0,-40.0,-8.0,2.0,14.0,6.0,-36.0,138.0,0.0
-9.0,-8.0,14.0,-52.0,-14.0,-15.0,10.0,6.0,-42.0,150.0,0.0
1.0,3.0,12.0,-80.0,-18.0,-25.0,12.0,6.0,-36.0,157.0,0.0
2.0,-6.0,-4.0,-97.0,-20.0,-22.0,6.0,17.0,-32.0,152.0,0.0
11.0,-4.0,-6.0,-99.0,-9.0,-21.0,-1.0,17.0,-31.0,166.0,0.0
8.0,23.0,0.0,-106.0,5.0,-17.0,3.0,4.0,-24.0,177.0,0.0
9.0,30.0,-6.0,-118.0,2.0,5.0,4.0,4.0,-23.0,195.0,0.0
11.0,14.0,-20.0,-115.0,11.0,23.0,0.0,11.0,-21.0,205.0,0.0
0.0,14.0,-1.0,-96.0,13.0,25.0,6.0,-1.0,-24.0,194.0,0.0
-1.0,27.0,11.0,-102.0,-9.0,25.0,10.0,-4.0,-39.0,170.0,0.0
-6.0,26.0,1.0,-114.0,-17.0,23.0,14.0,14.0,-43.0,169.0,0.0
-11.0,25.0,0.0,-132.0,-10.0,20.0,19.0,11.0,-41.0,183.0,0.0
-11.0,41.0,1.0,-145.0,-6.0,0.0,21.0,14.0,-22.0,185.0,0.0
-11.0,46.0,34.0,-164.0,1.0,-9.0,11.0,21.0,-24.0,179.0,0.0
-12.0,52.0,78.0,-178.0,-3.0,-7.0,17.0,21.0,-33.0,182.0,0.0
-8.0,48.0,87.0,-194.0,3.0,-3.0,18.0,16.0,-34.0,195.0,0.0
-8.0,37.0,74.0,-195.0,8.0,-3.0,12.0,23.0,-30.0,202.0,0.0
-14.0,38.0,61.0,-219.0,12.0,-12.0,17.0,22.0,-17.0,193.0,0.0
-12.0,31.0,46.0,-224.0,6.0,-16.0,21.0,14.0,-17.0,191.0,0.0
-11.0,8.0,17.0,-192.0,30.0,-14.0,24.0,9.0,-4.0,192.0,0.0
-15.0,1.0,1.0,-179.0,56.0,0.0,39.0,10.0,10.0,211.0,0.0
-5.0,-11.0,-25.0,-207.0,42.0,7.0,48.0,24.0,33.0,246.0,0.0
9.0,-22.0,-50.0,-234.0,34.0,11.0,49.0,30.0,42.0,270.0,0.0
-8.0,-21.0,-39.0,-242.0,49.0,32.0,46.0,35.0,39.0,254.0,0.0
-24.0,-8.0,-17.0,-237.0,54.0,52.0,49.0,29.0,28.0,223.0,0.0
-36.0,3.0,-3.0,-230.0,55.0,64.0,42.0,18.0,22.0,193.0,0.0
-44.0,0.0,-4.0,-232.0,50.0,62.0,42.0,16.0,12.0,177.0,0.0
-51.0,-1.0,0.0,-241.0,40.0,57.0,41.0,10.0,-1.0,163.0,0.0
-37.0,-8.0,2.0,-247.0,41.0,31.0,42.0,2.0,-1.0,166.0,0.0
-43.0,-13.0,12.0,-254.0,41.0,29.0,33.0,-8.0,-2.0,166.0,0.0
-36.0,-15.0,10.0,-265.0,42.0,32.0,53.0,-22.0,-7.0,154.0,0.0
-22.0,-13.0,7.0,-265.0,51.0,48.0,122.0,-17.0,1.0,167.0,0.0
-26.0,-10.0,16.0,-269.0,52.0,43.0,135.0,-23.0,-8.0,175.0,0.0
-23.0,-6.0,13.0,-282.0,46.0,23.0,85.0,-25.0,-6.0,171.0,0.0
-27.0,-4.0,3.0,-284.0,39.0,14.0,42.0,-41.0,-8.0,152.0,0.0
-17.0,16.0,1.0,-276.0,30.0,6.0,-4.0,-59.0,-2.0,146.0,0.0
-10.0,21.0,4.0,-273.0,23.0,-14.0,-57.0,-61.0,15.0,149.0,0.0
-1.0,26.0,17.0,-274.0,27.0,-42.0,-116.0,-42.0,29.0,157.0,0.0
35.0,31.0,35.0,-262.0,25.0,-32.0,-112.0,-31.0,26.0,182.0,0.0
38.0,30.0,35.0,-268.0,36.0,-9.0,-72.0,-42.0,20.0,164.0,0.0
16.0,14.0,40.0,-272.0,47.0,25.0,-51.0,-50.0,11.0,146.0,0.0
-9.0,14.0,58.0,-267.0,52.0,22.0,-55.0,-66.0,0.0,128.0,0.0
-11.0,18.0,85.0,-269.0,52.0,15.0,-56.0,-78.0,-3.0,110.0,0.0
-4.0,35.0,87.0,-260.0,44.0,2.0,-56.0,-82.0,-10.0,92.0,0.0
5.0,46.0,57.0,-256.0,23.0,2.0,-42.0,-87.0,-4.0,90.0,0.0
-1.0,45.0,24.0,-270.0,19.0,6.0,-23.0,-82.0,-15.0,96.0,0.0
-6.0,44.0,-10.0,-289.0,5.0,21.0,-10.0,-79.0,-16.0,71.0,0.0
-7.0,33.0,-47.0,-309.0,0.0,1.0,4.0,-65.0,-10.0,79.0,0.0
-27.0,0.0,-79.0,-320.0,5.0,-19.0,11.0,-54.0,0.0,92.0,0.0
-45.0,-9.0,-87.0,-318.0,4.0,-38.0,20.0,-38.0,22.0,97.0,0.0
-34.0,-5.0,-77.0,-297.0,10.0,-64.0,26.0,-29.0,32.0,91.0,0.0
-33.0,-14.0,-67.0,-289.0,14.0,-105.0,39.0,-18.0,33.0,81.0,0.0
-34.0,-23.0,-45.0,-285.0,26.0,-93.0,28.0,3.0,37.0,81.0,0.0
-42.0,-32.0,-36.0,-291.0,52.0,116.0,17.0,-21.0,16.0,61.0,0.0
-45.0,-35.0,-38.0,-292.0,46.0,206.0,5.0,-48.0,-1.0,51.0,0.0
-63.0,-19.0,-4.0,-301.0,21.0,56.0,2.0,-54.0,5.0,45.0,0.0
-62.0,-37.0,0.0,-295.0,23.0,40.0,-11.0,-70.0,-3.0,32.0,0.0
-41.0,-28.0,5.0,-298.0,23.0,44.0,-13.0,-61.0,-4.0,35.0,0.0
-45.0,-50.0,15.0,-296.0,12.0,10.0,-46.0,-68.0,-44.0,14.0,0.0
-44.0,-22.0,28.0,-266.0,21.0,35.0,-34.0,-43.0,-11.0,30.0,0.0
-33.0,5.0,22.0,-249.0,9.0,44.0,-15.0,-36.0,25.0,52.0,0.0
-28.0,3.0,33.0,-257.0,12.0,23.0,-10.0,-33.0,29.0,43.0,0.0
-23.0,28.0,45.0,-252.0,17.0,17.0,1.0,-28.0,25.0,41.0,0.0
-7.0,74.0,34.0,-239.0,2.0,5.0,-6.0,-43.0,18.0,51.0,0.0
0.0,80.0,29.0,-229.0,5.0,0.0,-16.0,-54.0,9.0,57.0,0.0
-9.0,38.0,19.0,-222.0,18.0,-9.0,-16.0,-36.0,0.0,42.0,0.0
-13.0,18.0,-14.0,-218.0,26.0,-13.0,-12.0,-20.0,8.0,36.0,0.0
-11.0,10.0,-24.0,-231.0,24.0,-4.0,-9.0,-30.0,17.0,16.0,0.0
-15.0,31.0,-4.0,-225.0,13.0,-4.0,-4.0,-47.0,6.0,2.0,0.0
-21.0,34.0,-12.0,-235.0,5.0,8.0,3.0,-46.0,9.0,11.0,0.0
-29.0,36.0,-22.0,-246.0,2.0,7.0,9.0,-39.0,12.0,42.0,0.0
-34.0,33.0,-11.0,-240.0,-9.0,8.0,5.0,-43.0,7.0,45.0,0.0
-39.0,24.0,-3.0,-217.0,-6.0,9.0,5.0,-48.0,17.0,39.0,0.0
-39.0,23.0,13.0,-202.0,11.0,23.0,4.0,-43.0,20.0,53.0,0.0
-51.0,17.0,24.0,-211.0,19.0,37.0,-4.0,-33.0,25.0,42.0,0.0
-59.0,2.0,40.0,-219.0,4.0,47.0,-9.0,-38.0,16.0,25.0,0.0
-50.0,22.0,56.0,-221.0,-18.0,18.0,-19.0,-47.0,0.0,11.0,0.0
-37.0,57.0,44.0,-229.0,-34.0,-10.0,-18.0,-56.0,-15.0,-4.0,0.0
-39.0,76.0,25.0,-240.0,-30.0,-33.0,-17.0,-55.0,-1.0,-18.0,0.0
-32.0,59.0,-6.0,-239.0,-29.0,-18.0,-5.0,-47.0,8.0,-28.0,0.0
-38.0,35.0,-38.0,-226.0,-8.0,9.0,27.0,-40.0,16.0,-36.0,0.0
-46.0,21.0,-57.0,-225.0,14.0,29.0,38.0,-26.0,35.0,-46.0,0.0
-33.0,26.0,-56.0,-216.0,15.0,6.0,31.0,-16.0,48.0,-36.0,0.0
-11.0,35.0,-61.0,-204.0,5.0,5.0,35.0,-7.0,48.0,-21.0,0.0
-8.0,34.0,-63.0,-219.0,-4.0,-5.0,24.0,-6.0,58.0,-16.0,0.0
-9.0,30.0,-45.0,-231.0,-7.0,-6.0,9.0,-12.0,50.0,-27.0,0.0
-25.0,37.0,-22.0,-221.0,-8.0,0.0,7.0,-5.0,41.0,-41.0,0.0
-45.0,44.0,-12.0,-204.0,-4.0,13.0,12.0,-7.0,37.0,-51.0,0.0
-55.0,45.0,-3.0,-179.0,0.0,9.0,13.0,-16.0,23.0,-64.0,0.0
-49.0,31.0,-7.0,-175.0,-1.0,29.0,6.0,-13.0,19.0,-47.0,0.0
-47.0,12.0,1.0,-179.0,12.0,28.0,6.0,-11.0,17.0,-39.0,0.0
-48.0,0.0,9.0,-157.0,16.0,40.0,11.0,-13.0,16.0,-45.0,0.0
-43.0,9.0,8.0,-144.0,15.0,53.0,20.0,-14.0,16.0,-66.0,0.0
-49.0,28.0,2.0,-154.0,8.0,27.0,27.0,0.0,4.0,-89.0,0.0
-58.0,33.0,-6.0,-167.0,3.0,25.0,27.0,12.0,6.0,-79.0,0.0
-39.0,20.0,-10.0,-175.0,-12.0,16.0,31.0,11.0,7.0,-65.0,0.0
-29.0,25.0,2.0,-169.0,-15.0,-3.0,39.0,-8.0,12.0,-67.0,0.0
-15.0,34.0,7.0,-185.0,-12.0,-19.0,36.0,-20.0,4.0,-78.0,0.0
-5.0,36.0,17.0,-196.0,-2.0,-17.0,39.0,-20.0,7.0,-76.0,0.0
-8.0,30.0,15.0,-194.0,14.0,-24.0,34.0,-15.0,11.0,-75.0,0.0
-13.0,29.0,13.0,-208.0,14.0,-20.0,29.0,-23.0,10.0,-87.0,0.0
-18.0,29.0,8.0,-208.0,4.0,-14.0,19.0,-32.0,12.0,-82.0,0.0
-31.0,18.0,-2.0,-204.0,0.0,-16.0,20.0,-24.0,3.0,-92.0,0.0
-44.0,11.0,-10.0,-199.0,0.0,-23.0,14.0,-27.0,-6.0,-103.0,0.0
-49.0,-2.0,-10.0,-200.0,7.0,-27.0,-3.0,-44.0,-34.0,-118.0,0.0
-55.0,-19.0,0.0,-193.0,13.0,-32.0,-8.0,-49.0,-47.0,-133.0,0.0
-68.0,-39.0,2.0,-191.0,4.0,-33.0,-25.0,-66.0,-59.0,-143.0,0.0
-79.0,-60.0,1.0,-182.0,-14.0,-31.0,-45.0,-78.0,-84.0,-151.0,0.0
-89.0,-72.0,-8.0,-178.0,-17.0,-33.0,-43.0,-79.0,-76.0,-160.0,0.0
-91.0,-60.0,-1.0,-200.0,-23.0,-35.0,-41.0,-75.0,-47.0,-149.0,0.0
-69.0,-34.0,-6.0,-222.0,-40.0,-55.0,-47.0,-58.0,-37.0,-145.0,0.0
-39.0,-7.0,-10.0,-240.0,-70.0,-80.0,-53.0,-73.0,-38.0,-151.0,0.0
-45.0,4.0,-24.0,-246.0,-86.0,-101.0,-70.0,-94.0,-55.0,-163.0,0.0
-108.0,-53.0,-62.0,-261.0,-84.0,-100.0,-69.0,-89.0,-58.0,-194.0,0.0
-111.0,-52.0,-84.0,-258.0,-89.0,-94.0,-65.0,-85.0,-48.0,-187.0,0.0
-109.0,-70.0,-115.0,-279.0,-94.0,-102.0,-71.0,-83.0,-36.0,-180.0,0.0
-124.0,-111.0,-129.0,-302.0,-107.0,-122.0,-100.0,-101.0,-79.0,-191.0,0.0
-121.0,-133.0,-127.0,-296.0,-115.0,-120.0,-102.0,-90.0,-106.0,-197.0,0.0
-111.0,-88.0,-120.0,-271.0,-106.0,-87.0,-74.0,-46.0,-59.0,-171.0,0.0
-113.0,-87.0,-99.0,-259.0,-93.0,-92.0,-91.0,-48.0,-72.0,-175.0,0.0
-117.0,-80.0,-73.0,-227.0,-90.0,-69.0,-73.0,-46.0,-67.0,-178.0,0.0
-121.0,-78.0,-70.0,-208.0,-86.0,-63.0,-76.0,-64.0,-70.0,-186.0,0.0
-123.0,-74.0,-83.0,-213.0,-78.0,-51.0,-79.0,-75.0,-64.0,-191.0,0.0
-123.0,-75.0,-75.0,-203.0,-67.0,-41.0,-92.0,-70.0,-67.0,-186.0,0.0
-122.0,-69.0,-75.0,-201.0,-71.0,-42.0,-76.0,-55.0,-57.0,-180.0,0.0
-121.0,-52.0,-85.0,-199.0,-71.0,-39.0,-69.0,-51.0,-47.0,-158.0,0.0
-109.0,-49.0,-74.0,-199.0,-64.0,-43.0,-54.0,-43.0,-39.0,-152.0,0.0
-113.0,-49.0,-59.0,-202.0,-68.0,-61.0,-52.0,-34.0,-39.0,-159.0,0.0
-121.0,-49.0,-47.0,-202.0,-60.0,-68.0,-55.0,-31.0,-36.0,-165.0,0.0
-114.0,-48.0,-63.0,-203.0,-58.0,-70.0,-65.0,-32.0,-39.0,-166.0,0.0
-96.0,-33.0,-61.0,-215.0,-63.0,-60.0,-59.0,-30.0,-51.0,-156.0,0.0
-77.0,-16.0,-58.0,-214.0,-67.0,-48.0,-60.0,-27.0,-46.0,-147.0,0.0
-81.0,-7.0,-59.0,-209.0,-52.0,-40.0,-60.0,-21.0,-42.0,-153.0,0.0
-96.0,-9.0,-67.0,-204.0,-50.0,-34.0,-62.0,-25.0,-36.0,-157.0,0.0
-101.0,-23.0,-68.0,-184.0,-49.0,-34.0,-62.0,-26.0,-50.0,-154.0,0.0
-101.0,-30.0,-71.0,-175.0,-46.0,-39.0,-44.0,-31.0,-50.0,-157.0,0.0
-102.0,-17.0,-61.0,-164.0,-45.0,-35.0,-54.0,-38.0,-60.0,-174.0,0.0
-101.0,-14.0,-44.0,-138.0,-40.0,-16.0,-65.0,-43.0,-73.0,-170.0,0.0
-91.0,-10.0,-30.0,-125.0,-33.0,-7.0,-60.0,-47.0,-78.0,-168.0,0.0
-94.0,4.0,-14.0,-116.0,-30.0,7.0,-60.0,-38.0,-81.0,-144.0,0.0
-92.0,4.0,-3.0,-109.0,-27.0,13.0,-62.0,-28.0,-60.0,-136.0,0.0
-60.0,0.0,-21.0,-122.0,-31.0,6.0,-42.0,-28.0,-49.0,-145.0,0.0
-36.0,-5.0,-31.0,-159.0,-33.0,-14.0,-39.0,-25.0,-30.0,-130.0,0.0
-34.0,-20.0,-45.0,-189.0,-41.0,-39.0,-45.0,-20.0,-14.0,-125.0,0.0
-33.0,-36.0,-53.0,-180.0,-39.0,-40.0,-31.0,-7.0,0.0,-114.0,0.0
-39.0,-36.0,-42.0,-163.0,-33.0,-44.0,-40.0,5.0,14.0,-101.0,0.0
-36.0,-18.0,-22.0,-136.0,-27.0,-39.0,-48.0,15.0,20.0,-67.0,0.0
-37.0,-14.0,-16.0,-102.0,-3.0,-25.0,-18.0,26.0,34.0,-64.0,0.0
-49.0,-18.0,-20.0,-76.0,0.0,-27.0,-17.0,27.0,28.0,-79.0,0.0
-49.0,-8.0,-26.0,-83.0,-7.0,-30.0,-16.0,25.0,24.0,-76.0,0.0
-33.0,-1.0,-50.0,-97.0,-4.0,-24.0,2.0,39.0,44.0,-73.0,0.0
-17.0,-2.0,-57.0,-86.0,2.0,-14.0,0.0,42.0,35.0,-80.0,0.0
-17.0,10.0,-48.0,-75.0,7.0,-2.0,13.0,35.0,19.0,-99.0,0.0
-25.0,17.0,-36.0,-74.0,14.0,20.0,11.0,33.0,18.0,-105.0,0.0
-40.0,2.0,-23.0,-69.0,13.0,35.0,17.0,38.0,32.0,-102.0,0.0
-42.0,5.0,-1.0,-64.0,18.0,41.0,8.0,29.0,31.0,-101.0,0.0
-40.0,9.0,6.0,-55.0,31.0,35.0,1.0,16.0,23.0,-92.0,0.0
-46.0,-4.0,21.0,-49.0,34.0,25.0,-3.0,13.0,20.0,-90.0,0.0
-45.0,5.0,58.0,-54.0,42.0,18.0,0.0,5.0,23.0,-84.0,0.0
-33.0,23.0,70.0,-53.0,43.0,14.0,-4.0,8.0,28.0,-69.0,0.0
-32.0,17.0,36.0,-62.0,34.0,18.0,0.0,3.0,31.0,-59.0,0.0
-23.0,24.0,2.0,-79.0,28.0,3.0,-20.0,-2.0,28.0,-42.0,0.0
-9.0,36.0,-14.0,-94.0,25.0,-8.0,-8.0,6.0,32.0,-18.0,0.0
-4.0,15.0,-52.0,-88.0,22.0,9.0,3.0,16.0,47.0,-20.0,0.0
0.0,5.0,-68.0,-80.0,28.0,14.0,2.0,22.0,54.0,-17.0,0.0
9.0,15.0,-45.0,-86.0,22.0,19.0,7.0,28.0,48.0,-4.0,0.0
17.0,14.0,-39.0,-96.0,11.0,20.0,11.0,36.0,49.0,-14.0,0.0
-3.0,20.0,-29.0,-94.0,9.0,9.0,8.0,24.0,33.0,-37.0,0.0
-29.0,14.0,-10.0,-91.0,16.0,-6.0,-9.0,0.0,22.0,-72.0,0.0
-42.0,14.0,3.0,-90.0,22.0,0.0,-15.0,-18.0,14.0,-84.0,0.0
-46.0,10.0,8.0,-78.0,34.0,9.0,-26.0,-34.0,8.0,-84.0,0.0
-45.0,11.0,8.0,-54.0,32.0,7.0,-27.0,-39.0,11.0,-94.0,0.0
-51.0,9.0,6.0,-36.0,27.0,13.0,-25.0,-43.0,15.0,-95.0,0.0
-47.0,9.0,8.0,-41.0,12.0,15.0,-32.0,-43.0,15.0,-90.0,0.0
-46.0,-14.0,2.0,-66.0,0.0,22.0,-15.0,-35.0,13.0,-94.0,0.0
-46.0,-64.0,-19.0,-99.0,13.0,7.0,17.0,-4.0,32.0,-88.0,0.0
-51.0,-47.0,-16.0,-97.0,9.0,5.0,22.0,0.0,48.0,-84.0,0.0
-55.0,-47.0,-14.0,-99.0,8.0,-8.0,2.0,10.0,39.0,-94.0,0.0
-59.0,-53.0,-11.0,-97.0,0.0,-34.0,-19.0,0.0,8.0,-107.0,0.0
-57.0,-22.0,-7.0,-94.0,10.0,-1.0,7.0,-9.0,40.0,-89.0,0.0
-55.0,-22.0,-22.0,-101.0,20.0,20.0,13.0,-9.0,65.0,-84.0,0.0
-50.0,-17.0,-30.0,-96.0,21.0,9.0,18.0,0.0,53.0,-72.0,0.0
-40.0,-6.0,-25.0,-101.0,24.0,12.0,4.0,-7.0,67.0,-70.0,0.0
-36.0,9.0,-16.0,-98.0,33.0,19.0,5.0,0.0,62.0,-71.0,0.0
-44.0,12.0,3.0,-91.0,38.0,13.0,-9.0,-10.0,60.0,-75.0,0.0
-43.0,8.0,22.0,-80.0,35.0,13.0,-11.0,-27.0,46.0,-82.0,0.0
-38.0,17.0,40.0,-68.0,38.0,24.0,-3.0,-38.0,58.0,-83.0,0.0
-27.0,34.0,39.0,-68.0,36.0,33.0,-5.0,-43.0,65.0,-74.0,0.0
-13.0,41.0,30.0,-67.0,19.0,17.0,7.0,-49.0,58.0,-74.0,0.0
-21.0,30.0,15.0,-69.0,16.0,16.0,3.0,-61.0,57.0,-68.0,0.0
-16.0,18.0,14.0,-71.0,11.0,14.0,11.0,-65.0,40.0,-77.0,0.0
-7.0,8.0,11.0,-72.0,14.0,2.0,17.0,-43.0,40.0,-78.0,0.0
-3.0,2.0,6.0,-78.0,17.0,0.0,21.0,-34.0,35.0,-68.0,0.0
-1.0,-3.0,14.0,-72.0,16.0,-13.0,17.0,-50.0,30.0,-71.0,0.0
16.0,51.0,26.0,-76.0,-1.0,-1.0,15.0,-48.0,59.0,-85.0,0.0
11.0,46.0,10.0,-92.0,5.0,6.0,30.0,-54.0,70.0,-85.0,0.0
11.0,21.0,11.0,-100.0,8.0,-4.0,15.0,-61.0,59.0,-82.0,0.0
2.0,-9.0,12.0,-101.0,9.0,-25.0,-15.0,-68.0,5.0,-102.0,0.0
2.0,25.0,6.0,-79.0,27.0,1.0,33.0,-49.0,52.0,-83.0,0.0
-2.0,17.0,15.0,-66.0,27.0,7.0,38.0,-25.0,62.0,-67.0,0.0
4.0,23.0,30.0,-54.0,34.0,17.0,38.0,-31.0,48.0,-57.0,0.0
0.0,37.0,58.0,-33.0,56.0,41.0,32.0,-44.0,42.0,-67.0,0.0
-12.0,46.0,66.0,-18.0,75.0,53.0,28.0,-51.0,21.0,-83.0,0.0
-11.0,45.0,70.0,-2.0,75.0,65.0,32.0,-53.0,21.0,-90.0,0.0
-11.0,26.0,58.0,7.0,77.0,69.0,56.0,-50.0,41.0,-93.0,0.0
-15.0,9.0,40.0,2.0,69.0,72.0,55.0,-47.0,37.0,-88.0,0.0
-22.0,4.0,38.0,-3.0,56.0,64.0,52.0,-46.0,38.0,-77.0,0.0
-8.0,13.0,37.0,-7.0,54.0,48.0,39.0,-48.0,48.0,-58.0,0.0
-1.0,20.0,55.0,-5.0,50.0,34.0,32.0,-53.0,56.0,-46.0,0.0
-1.0,31.0,56.0,-2.0,45.0,38.0,40.0,-55.0,52.0,-31.0,0.0
2.0,23.0,57.0,-11.0,52.0,35.0,36.0,-44.0,47.0,-4.0,0.0
19.0,13.0,48.0,-22.0,76.0,22.0,44.0,-52.0,53.0,0.0,0.0
28.0,32.0,47.0,-24.0,77.0,24.0,39.0,-67.0,71.0,-6.0,0.0
38.0,49.0,25.0,-32.0,55.0,19.0,29.0,-79.0,77.0,-11.0,0.0
56.0,60.0,13.0,-37.0,43.0,16.0,29.0,-87.0,89.0,-29.0,0.0
68.0,72.0,15.0,-45.0,45.0,11.0,35.0,-85.0,81.0,-39.0,0.0
78.0,81.0,20.0,-55.0,50.0,4.0,33.0,-73.0,79.0,-24.0,0.0
80.0,83.0,35.0,-38.0,38.0,5.0,22.0,-84.0,75.0,-14.0,0.0
65.0,79.0,49.0,-24.0,41.0,18.0,13.0,-91.0,69.0,-23.0,0.0
44.0,74.0,52.0,-24.0,52.0,28.0,19.0,-84.0,75.0,-29.0,0.0
40.0,51.0,52.0,-20.0,61.0,48.0,17.0,-89.0,72.0,-28.0,0.0
30.0,20.0,37.0,-33.0,47.0,37.0,21.0,-86.0,65.0,-29.0,0.0
34.0,36.0,26.0,-31.0,35.0,32.0,20.0,-86.0,57.0,-41.0,0.0
46.0,65.0,41.0,-30.0,35.0,37.0,20.0,-89.0,58.0,-42.0,0.0
49.0,63.0,39.0,-37.0,28.0,33.0,21.0,-85.0,67.0,-52.0,0.0
44.0,62.0,32.0,-36.0,26.0,36.0,22.0,-82.0,79.0,-50.0,0.0
30.0,51.0,45.0,-29.0,36.0,26.0,21.0,-79.0,85.0,-48.0,0.0
38.0,45.0,41.0,-29.0,32.0,22.0,27.0,-74.0,74.0,-42.0,0.0
44.0,51.0,24.0,-34.0,23.0,21.0,32.0,-68.0,64.0,-37.0,0.0
44.0,57.0,27.0,-45.0,14.0,21.0,31.0,-64.0,65.0,-53.0,0.0
52.0,61.0,41.0,-46.0,22.0,19.0,28.0,-69.0,76.0,-54.0,0.0
37.0,55.0,35.0,-51.0,24.0,11.0,34.0,-79.0,75.0,-51.0,0.0
28.0,43.0,25.0,-37.0,21.0,8.0,37.0,-87.0,53.0,-44.0,0.0
19.0,34.0,33.0,-12.0,31.0,-5.0,30.0,-91.0,47.0,-30.0,0.0
19.0,25.0,34.0,-18.0,41.0,12.0,34.0,-109.0,45.0,-19.0,0.0
22.0,17.0,42.0,-10.0,49.0,24.0,26.0,-107.0,49.0,-23.0,0.0
15.0,14.0,47.0,0.0,45.0,54.0,30.0,-98.0,50.0,-46.0,0.0
20.0,30.0,50.0,8.0,52.0,72.0,39.0,-93.0,44.0,-54.0,0.0
28.0,34.0,52.0,10.0,57.0,63.0,32.0,-78.0,40.0,-41.0,0.0
21.0,40.0,68.0,1.0,55.0,57.0,31.0,-73.0,45.0,-22.0,0.0
23.0,53.0,59.0,5.0,44.0,38.0,42.0,-75.0,48.0,-11.0,0.0
22.0,52.0,67.0,10.0,26.0,37.0,40.0,-81.0,48.0,-14.0,0.0
14.0,57.0,83.0,0.0,20.0,23.0,26.0,-83.0,44.0,-27.0,0.0
7.0,63.0,83.0,0.0,28.0,35.0,24.0,-87.0,53.0,-32.0,0.0
0.0,43.0,59.0,7.0,35.0,32.0,32.0,-77.0,45.0,-28.0,0.0
-13.0,32.0,54.0,12.0,43.0,31.0,31.0,-69.0,39.0,-20.0,0.0
-22.0,18.0,62.0,31.0,47.0,25.0,9.0,-82.0,19.0,-57.0,0.0
14.0,71.0,47.0,21.0,39.0,40.0,12.0,-87.0,28.0,-38.0,0.0
41.0,80.0,24.0,-13.0,28.0,28.0,13.0,-91.0,42.0,-25.0,0.0
23.0,16.0,1.0,-25.0,26.0,16.0,0.0,-97.0,6.0,-49.0,0.0
-3.0,-8.0,9.0,4.0,49.0,59.0,23.0,-82.0,32.0,-45.0,0.0
-16.0,2.0,37.0,13.0,61.0,92.0,48.0,-66.0,62.0,-32.0,0.0
-14.0,30.0,61.0,-5.0,51.0,77.0,33.0,-84.0,61.0,-47.0,0.0
-17.0,34.0,65.0,-5.0,50.0,66.0,19.0,-99.0,38.0,-45.0,0.0
-18.0,25.0,57.0,8.0,46.0,67.0,13.0,-96.0,35.0,-29.0,0.0
-11.0,21.0,28.0,10.0,36.0,63.0,18.0,-83.0,55.0,-14.0,0.0
-3.0,15.0,5.0,-7.0,50.0,66.0,36.0,-76.0,62.0,-6.0,0.0
-3.0,9.0,1.0,6.0,56.0,54.0,42.0,-70.0,52.0,-23.0,0.0
-5.0,18.0,0.0,10.0,66.0,34.0,46.0,-58.0,41.0,-33.0,0.0
-1.0,34.0,2.0,-5.0,52.0,23.0,44.0,-63.0,59.0,-18.0,0.0
-1.0,34.0,-3.0,-6.0,32.0,30.0,43.0,-65.0,62.0,0.0,0.0
-8.0,30.0,0.0,6.0,30.0,18.0,44.0,-64.0,56.0,3.0,0.0
-15.0,25.0,-4.0,8.0,29.0,13.0,46.0,-76.0,45.0,-9.0,0.0
-13.0,23.0,43.0,19.0,17.0,-2.0,40.0,-83.0,39.0,-15.0,0.0
-15.0,35.0,69.0,27.0,26.0,0.0,46.0,-74.0,43.0,-20.0,0.0
-9.0,30.0,87.0,41.0,34.0,30.0,39.0,-73.0,31.0,-34.0,0.0
-22.0,-13.0,77.0,47.0,34.0,35.0,16.0,-89.0,-17.0,-59.0,0.0
-25.0,-2.0,66.0,52.0,51.0,57.0,36.0,-78.0,-3.0,-49.0,0.0
-9.0,15.0,37.0,55.0,49.0,85.0,57.0,-55.0,26.0,-16.0,0.0
0.0,7.0,6.0,66.0,32.0,74.0,46.0,-55.0,24.0,-18.0,0.0
-4.0,6.0,0.0,61.0,24.0,56.0,45.0,-78.0,18.0,-31.0,0.0
-4.0,3.0,-1.0,35.0,23.0,40.0,63.0,-75.0,48.0,-5.0,0.0
11.0,4.0,6.0,18.0,22.0,20.0,61.0,-54.0,58.0,23.0,0.0
12.0,32.0,23.0,5.0,7.0,7.0,45.0,-47.0,52.0,11.0,0.0
4.0,64.0,26.0,-4.0,10.0,15.0,40.0,-50.0,47.0,1.0,0.0
9.0,80.0,51.0,2.0,12.0,13.0,34.0,-56.0,37.0,-3.0,0.0
24.0,81.0,64.0,10.0,15.0,-3.0,31.0,-54.0,50.0,6.0,0.0
22.0,61.0,41.0,15.0,33.0,0.0,36.0,-51.0,58.0,5.0,0.0
5.0,33.0,14.0,16.0,29.0,20.0,46.0,-25.0,52.0,1.0,0.0
-7.0,19.0,-2.0,28.0,34.0,30.0,48.0,-10.0,40.0,-29.0,0.0
-4.0,11.0,1.0,20.0,37.0,32.0,54.0,-12.0,25.0,-32.0,0.0
-14.0,-22.0,0.0,10.0,39.0,28.0,26.0,-30.0,-6.0,-49.0,0.0
-30.0,-36.0,22.0,22.0,36.0,39.0,11.0,-39.0,-22.0,-61.0,0.0
-21.0,9.0,54.0,45.0,49.0,65.0,39.0,-36.0,-3.0,-48.0,0.0
-15.0,20.0,63.0,35.0,42.0,75.0,32.0,-40.0,0.0,-34.0,0.0
-18.0,29.0,49.0,36.0,39.0,66.0,20.0,-69.0,-3.0,-18.0,0.0
-1.0,39.0,44.0,30.0,29.0,52.0,7.0,-73.0,-4.0,-9.0,0.0
15.0,32.0,44.0,10.0,28.0,38.0,-1.0,-59.0,13.0,20.0,0.0
22.0,27.0,27.0,-5.0,26.0,23.0,2.0,-46.0,29.0,38.0,0.0
15.0,28.0,15.0,-22.0,31.0,16.0,8.0,-37.0,25.0,25.0,0.0
8.0,20.0,0.0,-32.0,9.0,1.0,8.0,-40.0,31.0,20.0,0.0
13.0,16.0,13.0,-22.0,5.0,-15.0,16.0,-48.0,31.0,23.0,0.0
32.0,23.0,32.0,-8.0,6.0,-19.0,29.0,-51.0,16.0,28.0,0.0
39.0,11.0,33.0,0.0,-5.0,-3.0,30.0,-59.0,13.0,9.0,0.0
29.0,33.0,41.0,-8.0,13.0,39.0,73.0,-67.0,85.0,0.0,0.0
45.0,39.0,48.0,-33.0,3.0,-22.0,24.0,-86.0,24.0,0.0,0.0
48.0,46.0,52.0,-58.0,-7.0,-43.0,-10.0,-108.0,-29.0,-28.0,0.0
23.0,60.0,54.0,-52.0,-10.0,-15.0,-7.0,-107.0,-48.0,-67.0,0.0
-1.0,80.0,67.0,-16.0,4.0,74.0,64.0,-69.0,37.0,-53.0,0.0
-23.0,30.0,50.0,-14.0,17.0,49.0,33.0,-83.0,0.0,-56.0,0.0
-27.0,22.0,33.0,-10.0,10.0,37.0,17.0,-77.0,-1.0,-48.0,0.0
-32.0,9.0,21.0,-15.0,8.0,36.0,22.0,-72.0,-4.0,-36.0,0.0
-26.0,2.0,15.0,-13.0,11.0,34.0,30.0,-62.0,-6.0,-19.0,0.0
-11.0,9.0,2.0,-10.0,7.0,28.0,39.0,-63.0,14.0,-9.0,0.0
12.0,22.0,-13.0,-13.0,-2.0,15.0,38.0,-52.0,32.0,-8.0,0.0
11.0,32.0,-19.0,-14.0,1.0,4.0,36.0,-47.0,30.0,-8.0,0.0
10.0,39.0,-30.0,-4.0,11.0,9.0,38.0,-36.0,28.0,-18.0,0.0
0.0,28.0,-27.0,-1.0,16.0,-4.0,39.0,-35.0,30.0,-29.0,0.0
-10.0,5.0,-24.0,2.0,12.0,-7.0,35.0,-25.0,35.0,-41.0,0.0
-8.0,-1.0,-23.0,1.0,9.0,-14.0,43.0,-18.0,25.0,-33.0,0.0
-12.0,-1.0,-18.0,-7.0,0.0,-17.0,41.0,-15.0,16.0,-24.0,0.0
-4.0,-2.0,-33.0,-10.0,-7.0,-6.0,39.0,-26.0,-1.0,-21.0,0.0
-13.0,-4.0,-29.0,0.0,-7.0,0.0,18.0,-32.0,-12.0,-22.0,0.0
-22.0,-4.0,-32.0,-19.0,-1.0,12.0,21.0,-39.0,-18.0,-33.0,0.0
-38.0,-26.0,-37.0,-27.0,-11.0,-4.0,-3.0,-54.0,-48.0,-62.0,0.0
-41.0,-52.0,-25.0,-12.0,-16.0,-23.0,-42.0,-64.0,-94.0,-78.0,0.0
-31.0,4.0,3.0,0.0,0.0,-7.0,-17.0,-53.0,-61.0,-40.0,0.0
-28.0,30.0,27.0,0.0,6.0,-3.0,-8.0,-55.0,-49.0,-24.0,0.0
-3.0,36.0,43.0,11.0,20.0,-9.0,-5.0,-58.0,-36.0,-12.0,0.0
18.0,52.0,62.0,14.0,25.0,-18.0,-12.0,-53.0,-32.0,-5.0,0.0
31.0,61.0,86.0,6.0,19.0,-15.0,0.0,-51.0,-36.0,-12.0,0.0
39.0,46.0,85.0,2.0,16.0,-7.0,21.0,-43.0,-29.0,-17.0,0.0
20.0,18.0,54.0,-11.0,15.0,-7.0,27.0,-39.0,-17.0,-26.0,0.0
14.0,-4.0,12.0,-44.0,7.0,0.0,27.0,-23.0,-22.0,-4.0,0.0
53.0,35.0,-4.0,-70.0,-6.0,-19.0,19.0,-21.0,-12.0,9.0,0.0
62.0,54.0,15.0,-73.0,-9.0,-24.0,-3.0,-33.0,-29.0,9.0,0.0
57.0,41.0,19.0,-84.0,-11.0,-8.0,2.0,-34.0,-25.0,1.0,0.0
47.0,31.0,-13.0,-92.0,5.0,17.0,16.0,-37.0,-11.0,0.0,0.0
29.0,31.0,-30.0,-88.0,12.0,23.0,19.0,-34.0,-28.0,7.0,0.0
6.0,33.0,-16.0,-79.0,14.0,26.0,6.0,-33.0,-31.0,10.0,0.0
-12.0,10.0,-19.0,-57.0,25.0,37.0,-6.0,-34.0,-29.0,1.0,0.0
-18.0,-13.0,-26.0,-31.0,31.0,45.0,-9.0,-40.0,-53.0,-20.0,0.0
-22.0,4.0,-15.0,-15.0,33.0,46.0,2.0,-51.0,-45.0,-9.0,0.0
-11.0,14.0,-29.0,-15.0,34.0,43.0,0.0,-61.0,-35.0,-1.0,0.0
2.0,19.0,-29.0,-28.0,31.0,31.0,-2.0,-48.0,-27.0,16.0,0.0
-7.0,17.0,-27.0,-29.0,33.0,23.0,2.0,-35.0,-22.0,17.0,0.0
-16.0,22.0,-34.0,-20.0,40.0,17.0,24.0,-23.0,-9.0,8.0,0.0
-9.0,27.0,-29.0,-15.0,25.0,6.0,31.0,-30.0,-19.0,11.0,0.0
-3.0,22.0,-13.0,-12.0,14.0,0.0,30.0,-41.0,-21.0,14.0,0.0
7.0,21.0,0.0,-21.0,23.0,1.0,40.0,-51.0,-27.0,5.0,0.0
22.0,32.0,2.0,-40.0,24.0,0.0,45.0,-42.0,-26.0,11.0,0.0
36.0,60.0,0.0,-48.0,9.0,-6.0,22.0,-40.0,-28.0,14.0,0.0
8.0,36.0,-7.0,-31.0,17.0,-9.0,14.0,-55.0,-28.0,13.0,0.0
12.0,27.0,-2.0,-41.0,14.0,-10.0,14.0,-66.0,-31.0,13.0,0.0
-11.0,1.0,13.0,-28.0,4.0,-15.0,0.0,-75.0,-71.0,-8.0,0.0
-21.0,14.0,33.0,-11.0,8.0,-9.0,6.0,-78.0,-61.0,-7.0,0.0
-10.0,45.0,53.0,14.0,33.0,22.0,31.0,-55.0,-23.0,39.0,0.0
-5.0,41.0,63.0,32.0,51.0,35.0,30.0,-62.0,-30.0,49.0,0.0
-5.0,32.0,52.0,29.0,46.0,56.0,32.0,-61.0,-26.0,44.0,0.0
10.0,49.0,44.0,22.0,29.0,49.0,19.0,-51.0,-18.0,42.0,0.0
35.0,72.0,39.0,6.0,18.0,26.0,4.0,-58.0,-23.0,35.0,0.0
46.0,68.0,37.0,-16.0,19.0,3.0,4.0,-52.0,-18.0,24.0,0.0
41.0,68.0,41.0,-35.0,26.0,-3.0,14.0,-39.0,-13.0,12.0,0.0
19.0,55.0,18.0,-32.0,20.0,0.0,23.0,-38.0,-22.0,16.0,0.0
7.0,29.0,14.0,-21.0,20.0,6.0,30.0,-34.0,-32.0,15.0,0.0
-4.0,16.0,11.0,-7.0,34.0,12.0,26.0,-25.0,-27.0,5.0,0.0
-25.0,-7.0,2.0,18.0,54.0,21.0,34.0,-26.0,-10.0,-11.0,0.0
-42.0,-22.0,-22.0,26.0,54.0,18.0,43.0,-25.0,2.0,-6.0,0.0
-42.0,-33.0,-39.0,15.0,45.0,21.0,33.0,-29.0,1.0,12.0,0.0
-34.0,-39.0,-22.0,6.0,37.0,16.0,40.0,-22.0,6.0,8.0,0.0
-25.0,-25.0,2.0,24.0,25.0,6.0,27.0,-27.0,1.0,0.0,0.0
-19.0,9.0,20.0,43.0,29.0,9.0,11.0,-36.0,-11.0,-14.0,0.0
-19.0,31.0,26.0,25.0,27.0,18.0,11.0,-42.0,-19.0,-14.0,0.0
-25.0,24.0,17.0,22.0,26.0,32.0,21.0,-41.0,-28.0,-18.0,0.0
-34.0,9.0,12.0,24.0,43.0,60.0,27.0,-27.0,-24.0,2.0,0.0
-28.0,18.0,3.0,15.0,34.0,54.0,22.0,-23.0,-24.0,3.0,0.0
-8.0,25.0,0.0,8.0,27.0,30.0,13.0,-30.0,-7.0,12.0,0.0
19.0,32.0,19.0,2.0,23.0,12.0,7.0,-32.0,1.0,20.0,0.0
44.0,61.0,24.0,-4.0,8.0,-5.0,7.0,-39.0,-3.0,14.0,0.0
52.0,84.0,23.0,-13.0,16.0,-13.0,7.0,-48.0,-3.0,0.0,0.0
24.0,75.0,25.0,-22.0,17.0,-6.0,1.0,-49.0,4.0,-8.0,0.0
-7.0,48.0,20.0,-19.0,16.0,4.0,6.0,-25.0,16.0,-18.0,0.0
-17.0,17.0,21.0,-23.0,19.0,3.0,9.0,-18.0,17.0,-8.0,0.0
-23.0,5.0,0.0,-65.0,17.0,-1.0,8.0,-24.0,10.0,0.0,0.0
-10.0,12.0,-17.0,-86.0,21.0,-2.0,11.0,-35.0,19.0,0.0,0.0
4.0,21.0,0.0,-61.0,19.0,-14.0,6.0,-38.0,26.0,6.0,0.0
9.0,38.0,26.0,-40.0,17.0,-10.0,2.0,-43.0,18.0,9.0,0.0
-2.0,33.0,35.0,-26.0,19.0,8.0,11.0,-45.0,12.0,0.0,0.0
-13.0,37.0,39.0,-18.0,24.0,27.0,4.0,-50.0,6.0,-7.0,0.0
-10.0,38.0,34.0,-3.0,27.0,48.0,-7.0,-47.0,0.0,7.0,0.0
-16.0,22.0,31.0,-5.0,27.0,41.0,-5.0,-43.0,-5.0,13.0,0.0
-12.0,9.0,21.0,-16.0,20.0,32.0,9.0,-48.0,12.0,0.0,0.0
-4.0,7.0,13.0,-22.0,6.0,15.0,1.0,-44.0,24.0,-3.0,0.0
-5.0,3.0,26.0,-32.0,9.0,8.0,-1.0,-48.0,19.0,-3.0,0.0
-6.0,-8.0,29.0,-38.0,4.0,3.0,0.0,-36.0,19.0,0.0,0.0
-3.0,-15.0,14.0,-39.0,-7.0,-11.0,2.0,-35.0,24.0,4.0,0.0
-9.0,-12.0,20.0,-39.0,4.0,-20.0,-7.0,-35.0,17.0,5.0,0.0
-12.0,-4.0,0.0,-46.0,-11.0,-19.0,1.0,-46.0,13.0,9.0,0.0
-7.0,-3.0,-11.0,-48.0,-12.0,-22.0,0.0,-40.0,4.0,8.0,0.0
-8.0,-6.0,-8.0,-53.0,-33.0,-52.0,-28.0,-50.0,-35.0,-17.0,0.0
-11.0,-23.0,4.0,-49.0,-39.0,-63.0,-38.0,-56.0,-48.0,-33.0,0.0
-4.0,12.0,5.0,-5.0,-22.0,-52.0,0.0,-34.0,-7.0,-19.0,0.0
-14.0,1.0,-8.0,20.0,-11.0,-27.0,9.0,-37.0,2.0,-20.0,0.0
-25.0,-4.0,-14.0,18.0,-1.0,-3.0,14.0,-45.0,7.0,-14.0,0.0
-17.0,-9.0,-10.0,13.0,13.0,8.0,6.0,-53.0,-2.0,-20.0,0.0
-14.0,-9.0,-10.0,15.0,17.0,-2.0,-10.0,-65.0,-16.0,-27.0,0.0
-16.0,-11.0,0.0,12.0,11.0,3.0,-18.0,-70.0,-10.0,-24.0,0.0
-18.0,-16.0,2.0,20.0,-1.0,9.0,-18.0,-64.0,2.0,-12.0,0.0
-18.0,-27.0,0.0,21.0,-11.0,17.0,-16.0,-51.0,0.0,-20.0,0.0
0.0,-9.0,3.0,2.0,-16.0,15.0,-19.0,-45.0,-6.0,-21.0,0.0
11.0,23.0,0.0,-11.0,-29.0,-2.0,-15.0,-50.0,3.0,-19.0,0.0
0.0,21.0,5.0,-13.0,-29.0,-9.0,-18.0,-48.0,17.0,-13.0,0.0
-15.0,-1.0,16.0,-11.0,-22.0,-3.0,-1.0,-41.0,13.0,-14.0,0.0
-30.0,-15.0,15.0,-5.0,-27.0,7.0,-3.0,-42.0,10.0,-17.0,0.0
-34.0,-17.0,1.0,-14.0,-23.0,-12.0,-16.0,-37.0,9.0,-17.0,0.0
-37.0,-30.0,3.0,-5.0,-20.0,-18.0,-11.0,-38.0,9.0,-27.0,0.0
-49.0,-33.0,6.0,7.0,-10.0,-13.0,-4.0,-51.0,3.0,-45.0,0.0
-40.0,-30.0,12.0,7.0,-3.0,-16.0,0.0,-50.0,9.0,-56.0,0.0
-46.0,-39.0,9.0,9.0,-7.0,-3.0,6.0,-42.0,33.0,-43.0,0.0
-55.0,-56.0,9.0,3.0,-3.0,0.0,11.0,-37.0,40.0,-56.0,0.0
-52.0,-67.0,37.0,0.0,0.0,5.0,0.0,-48.0,39.0,-56.0,0.0
-33.0,-30.0,48.0,-1.0,-22.0,2.0,-20.0,-59.0,22.0,-65.0,0.0
-10.0,40.0,45.0,0.0,-44.0,-6.0,-46.0,-76.0,25.0,-89.0,0.0
-9.0,66.0,47.0,-7.0,-49.0,-7.0,-49.0,-86.0,18.0,-86.0,0.0
-27.0,33.0,23.0,-24.0,-38.0,5.0,-31.0,-68.0,18.0,-62.0,0.0
-38.0,-10.0,-11.0,-9.0,-33.0,10.0,-19.0,-58.0,23.0,-60.0,0.0
-41.0,-9.0,-17.0,4.0,-19.0,-4.0,-12.0,-51.0,11.0,-67.0,0.0
-33.0,-4.0,-21.0,-12.0,-35.0,-13.0,-21.0,-52.0,14.0,-58.0,0.0
-21.0,-19.0,-48.0,-25.0,-38.0,-21.0,-18.0,-38.0,21.0,-23.0,0.0
-15.0,-49.0,-68.0,-16.0,-17.0,-17.0,-25.0,-45.0,8.0,-9.0,0.0
0.0,-45.0,-76.0,-9.0,-4.0,-10.0,-24.0,-45.0,25.0,10.0,0.0
10.0,-29.0,-75.0,-24.0,-7.0,-7.0,-16.0,-46.0,39.0,17.0,0.0
11.0,-15.0,-63.0,-35.0,-18.0,-11.0,-18.0,-58.0,28.0,10.0,0.0
6.0,-9.0,-43.0,-19.0,-24.0,-12.0,-19.0,-66.0,9.0,-7.0,0.0
4.0,4.0,-33.0,-1.0,-33.0,-6.0,-20.0,-72.0,-7.0,-13.0,0.0
10.0,25.0,-16.0,12.0,-39.0,-11.0,-23.0,-74.0,0.0,-15.0,0.0
13.0,33.0,7.0,27.0,-25.0,-11.0,-27.0,-81.0,-6.0,-24.0,0.0
7.0,32.0,17.0,34.0,-13.0,1.0,-26.0,-83.0,-9.0,-22.0,0.0
-20.0,19.0,18.0,17.0,-8.0,7.0,-23.0,-77.0,-8.0,-40.0,0.0
-42.0,-16.0,11.0,6.0,-3.0,19.0,-14.0,-77.0,-10.0,-64.0,0.0
-58.0,-27.0,-5.0,9.0,-5.0,21.0,-4.0,-74.0,-18.0,-73.0,0.0
-67.0,-18.0,-17.0,-1.0,-12.0,19.0,5.0,-73.0,-13.0,-70.0,0.0
-63.0,-31.0,-20.0,-16.0,-15.0,15.0,5.0,-75.0,-3.0,-39.0,0.0
-51.0,-60.0,-39.0,-29.0,-11.0,-1.0,12.0,-59.0,1.0,-24.0,0.0
-46.0,-66.0,-59.0,-52.0,-6.0,-4.0,12.0,-44.0,25.0,-23.0,0.0
-30.0,-37.0,-61.0,-76.0,-23.0,-11.0,5.0,-59.0,18.0,-11.0,0.0
-23.0,-16.0,-49.0,-74.0,-34.0,-16.0,5.0,-63.0,16.0,1.0,0.0
-19.0,-18.0,-38.0,-83.0,-31.0,-17.0,1.0,-49.0,33.0,-17.0,0.0
-16.0,-11.0,-40.0,-84.0,-19.0,-28.0,-3.0,-50.0,25.0,-10.0,0.0
-14.0,3.0,-36.0,-58.0,-8.0,-30.0,1.0,-52.0,15.0,2.0,0.0
-22.0,2.0,-32.0,-47.0,-12.0,-34.0,0.0,-52.0,10.0,-19.0,0.0
-36.0,10.0,-27.0,-52.0,-15.0,-28.0,-1.0,-56.0,16.0,-20.0,0.0
-36.0,15.0,-28.0,-52.0,-15.0,-14.0,-16.0,-57.0,-7.0,-19.0,0.0
-45.0,8.0,-30.0,-51.0,-7.0,5.0,-19.0,-63.0,-4.0,-42.0,0.0
-56.0,18.0,-20.0,-47.0,-11.0,20.0,-25.0,-69.0,1.0,-60.0,0.0
-57.0,18.0,1.0,-54.0,-21.0,14.0,-24.0,-66.0,-21.0,-68.0,0.0
-58.0,14.0,1.0,-52.0,-20.0,0.0,-39.0,-77.0,-29.0,-65.0,0.0
-51.0,15.0,1.0,-39.0,-23.0,2.0,-35.0,-71.0,-18.0,-61.0,0.0
-48.0,0.0,17.0,-35.0,-29.0,-7.0,-27.0,-72.0,-19.0,-57.0,0.0
-45.0,2.0,21.0,-36.0,-44.0,-25.0,-22.0,-67.0,-8.0,-59.0,0.0
-35.0,13.0,20.0,-55.0,-54.0,-42.0,-23.0,-76.0,11.0,-55.0,0.0
-25.0,25.0,22.0,-51.0,-39.0,-51.0,-17.0,-71.0,4.0,-50.0,0.0
-15.0,40.0,11.0,-34.0,-36.0,-47.0,-20.0,-62.0,-1.0,-33.0,0.0
-18.0,24.0,8.0,-43.0,-37.0,-35.0,-29.0,-66.0,3.0,-31.0,0.0
-25.0,7.0,7.0,-76.0,-44.0,-48.0,-29.0,-72.0,1.0,-29.0,0.0
-24.0,4.0,27.0,-83.0,-44.0,-54.0,-32.0,-73.0,10.0,-27.0,0.0
-19.0,27.0,42.0,-68.0,-39.0,-59.0,-44.0,-65.0,4.0,-25.0,0.0
-14.0,34.0,54.0,-51.0,-34.0,-57.0,-42.0,-66.0,-1.0,-25.0,0.0
-9.0,26.0,46.0,-47.0,-16.0,-46.0,-41.0,-70.0,-6.0,-23.0,0.0
-21.0,0.0,0.0,-35.0,-2.0,-24.0,-33.0,-63.0,-10.0,-26.0,0.0
-40.0,-16.0,-47.0,-23.0,-5.0,-10.0,-21.0,-60.0,-1.0,-33.0,0.0
-41.0,-22.0,-87.0,-39.0,-16.0,-2.0,-5.0,-45.0,31.0,-25.0,0.0
-18.0,-20.0,-99.0,-53.0,-23.0,-4.0,-4.0,-42.0,40.0,-11.0,0.0
-16.0,-23.0,-85.0,-55.0,-23.0,-1.0,0.0,-39.0,34.0,-14.0,0.0
-32.0,-9.0,-72.0,-39.0,-25.0,2.0,-1.0,-41.0,21.0,-21.0,0.0
-38.0,-3.0,-66.0,-31.0,-28.0,-1.0,-3.0,-31.0,27.0,-17.0,0.0
-38.0,-22.0,-72.0,-52.0,-31.0,-9.0,-2.0,-31.0,30.0,-10.0,0.0
-20.0,-22.0,-81.0,-87.0,-21.0,-20.0,-4.0,-38.0,28.0,-13.0,0.0
-8.0,-12.0,-62.0,-103.0,-24.0,-24.0,-8.0,-40.0,11.0,-26.0,0.0
-2.0,-7.0,-38.0,-84.0,-36.0,-17.0,-21.0,-54.0,16.0,-29.0,0.0
-14.0,-6.0,-39.0,-67.0,-37.0,-28.0,-31.0,-52.0,5.0,-35.0,0.0
-24.0,6.0,-39.0,-59.0,-39.0,-31.0,-33.0,-61.0,-2.0,-39.0,0.0
-18.0,8.0,-38.0,-58.0,-36.0,-7.0,-32.0,-71.0,-5.0,-27.0,0.0
-20.0,-5.0,-36.0,-64.0,-44.0,-11.0,-26.0,-68.0,-18.0,-37.0,0.0
-28.0,-15.0,-20.0,-65.0,-39.0,-31.0,-23.0,-74.0,-6.0,-33.0,0.0
-36.0,-2.0,10.0,-53.0,-28.0,-22.0,-26.0,-80.0,-7.0,-31.0,0.0
-39.0,12.0,40.0,-35.0,-17.0,0.0,-36.0,-81.0,-11.0,-30.0,0.0
-60.0,14.0,46.0,-16.0,-8.0,16.0,-29.0,-90.0,-15.0,-31.0,0.0
-71.0,2.0,48.0,9.0,3.0,23.0,-21.0,-94.0,-31.0,-36.0,0.0
-70.0,-1.0,52.0,20.0,3.0,26.0,-29.0,-77.0,-27.0,-30.0,0.0
-46.0,15.0,41.0,36.0,-2.0,8.0,-39.0,-75.0,-11.0,-21.0,0.0
-35.0,22.0,4.0,52.0,1.0,3.0,-39.0,-56.0,-23.0,-33.0,0.0
-23.0,30.0,-7.0,39.0,4.0,1.0,-37.0,-45.0,-24.0,-38.0,0.0
-17.0,9.0,-36.0,4.0,-7.0,7.0,-16.0,-45.0,-4.0,-23.0,0.0
-27.0,-42.0,-94.0,-23.0,-19.0,15.0,6.0,-24.0,8.0,-17.0,0.0
-33.0,-41.0,-97.0,-36.0,-30.0,7.0,4.0,-22.0,3.0,-1.0,0.0
-10.0,-9.0,-62.0,-30.0,-30.0,0.0,-12.0,-28.0,12.0,12.0,0.0
-1.0,-7.0,-46.0,-25.0,-28.0,-10.0,-16.0,-29.0,0.0,13.0,0.0
-17.0,-11.0,-35.0,-22.0,-29.0,-10.0,-24.0,-24.0,-14.0,20.0,0.0
-15.0,2.0,-14.0,-20.0,-25.0,-13.0,-29.0,-20.0,-13.0,39.0,0.0
-18.0,17.0,-10.0,-8.0,-6.0,-14.0,-19.0,-17.0,-26.0,49.0,0.0
-19.0,27.0,5.0,-2.0,-2.0,-4.0,-14.0,-16.0,-31.0,32.0,0.0
-21.0,30.0,22.0,-8.0,-13.0,-2.0,-15.0,-17.0,-42.0,15.0,0.0
-23.0,26.0,20.0,5.0,-5.0,13.0,-9.0,-32.0,-53.0,0.0,0.0
-21.0,29.0,38.0,21.0,2.0,22.0,-9.0,-32.0,-50.0,-1.0,0.0
-32.0,28.0,42.0,35.0,0.0,16.0,-9.0,-28.0,-49.0,-7.0,0.0
-41.0,24.0,42.0,48.0,-5.0,19.0,-4.0,-34.0,-54.0,-2.0,0.0
-36.0,18.0,34.0,39.0,-5.0,18.0,3.0,-23.0,-48.0,4.0,0.0
-31.0,3.0,20.0,23.0,3.0,19.0,8.0,-5.0,-44.0,12.0,0.0
-23.0,0.0,7.0,33.0,5.0,17.0,14.0,12.0,-39.0,15.0,0.0
-14.0,-6.0,0.0,32.0,8.0,19.0,25.0,3.0,-28.0,21.0,0.0
11.0,-6.0,-19.0,-7.0,7.0,10.0,33.0,-5.0,-11.0,39.0,0.0
32.0,9.0,-18.0,-3.0,4.0,-3.0,34.0,4.0,-10.0,46.0,0.0
31.0,6.0,-7.0,20.0,9.0,-18.0,40.0,1.0,-24.0,41.0,0.0
26.0,15.0,11.0,31.0,12.0,-21.0,41.0,-4.0,-39.0,45.0,0.0
20.0,32.0,20.0,32.0,6.0,-10.0,34.0,0.0,-50.0,42.0,0.0
20.0,40.0,23.0,12.0,7.0,-4.0,24.0,-7.0,-61.0,29.0,0.0
33.0,61.0,46.0,1.0,7.0,-11.0,7.0,-10.0,-62.0,28.0,0.0
32.0,59.0,65.0,-17.0,7.0,-25.0,-1.0,-7.0,-63.0,35.0,0.0
10.0,39.0,57.0,-7.0,14.0,-13.0,-4.0,-9.0,-69.0,31.0,0.0
-11.0,8.0,16.0,2.0,20.0,15.0,4.0,-19.0,-63.0,10.0,0.0
-22.0,-30.0,-5.0,6.0,29.0,33.0,11.0,-28.0,-58.0,-7.0,0.0
-13.0,-50.0,-8.0,15.0,24.0,40.0,0.0,-30.0,-66.0,-16.0,0.0
-5.0,-46.0,-22.0,3.0,25.0,40.0,-2.0,-24.0,-74.0,-2.0,0.0
-2.0,-41.0,-26.0,-13.0,33.0,41.0,7.0,-3.0,-67.0,29.0,0.0
-3.0,-36.0,-2.0,-15.0,28.0,39.0,18.0,7.0,-52.0,37.0,0.0
21.0,-17.0,9.0,-4.0,19.0,32.0,22.0,0.0,-38.0,32.0,0.0
50.0,6.0,13.0,12.0,7.0,18.0,18.0,-5.0,-42.0,26.0,0.0
53.0,8.0,16.0,16.0,15.0,4.0,8.0,-10.0,-45.0,18.0,0.0
41.0,3.0,17.0,5.0,10.0,0.0,1.0,-15.0,-48.0,10.0,0.0
39.0,-4.0,4.0,-5.0,7.0,-13.0,4.0,-14.0,-66.0,2.0,0.0
37.0,1.0,11.0,-2.0,4.0,-11.0,3.0,-15.0,-78.0,-2.0,0.0
40.0,7.0,25.0,-1.0,4.0,-3.0,-2.0,-19.0,-84.0,14.0,0.0
42.0,7.0,23.0,-3.0,7.0,-1.0,-2.0,-18.0,-99.0,29.0,0.0
50.0,11.0,36.0,4.0,16.0,10.0,-2.0,-10.0,-151.0,28.0,0.0
42.0,12.0,45.0,7.0,21.0,17.0,0.0,-10.0,-280.0,18.0,0.0
22.0,16.0,49.0,11.0,21.0,17.0,-5.0,-14.0,-387.0,8.0,0.0
0.0,12.0,64.0,14.0,21.0,26.0,-10.0,-25.0,-429.0,1.0,0.0
-8.0,13.0,57.0,31.0,20.0,28.0,-14.0,-27.0,-457.0,6.0,0.0
-9.0,10.0,56.0,31.0,28.0,34.0,-11.0,-29.0,-487.0,0.0,0.0
-13.0,5.0,45.0,40.0,25.0,37.0,-6.0,-19.0,-486.0,-4.0,0.0
-10.0,14.0,39.0,37.0,19.0,29.0,1.0,-29.0,-477.0,7.0,0.0
5.0,37.0,28.0,18.0,4.0,17.0,0.0,-23.0,-463.0,13.0,0.0
15.0,33.0,20.0,6.0,9.0,5.0,8.0,-17.0,-443.0,6.0,0.0
10.0,18.0,17.0,5.0,18.0,9.0,13.0,-2.0,-415.0,-6.0,0.0
-10.0,-3.0,18.0,9.0,26.0,13.0,15.0,5.0,-400.0,2.0,0.0
-19.0,-6.0,14.0,-9.0,38.0,21.0,17.0,-1.0,-390.0,10.0,0.0
-22.0,6.0,13.0,-15.0,33.0,17.0,9.0,-8.0,-369.0,8.0,0.0
-23.0,13.0,4.0,-19.0,31.0,8.0,0.0,-14.0,-345.0,-7.0,0.0
-21.0,21.0,-1.0,-35.0,27.0,4.0,3.0,-20.0,-331.0,-16.0,0.0
-13.0,25.0,-2.0,-34.0,28.0,4.0,8.0,-26.0,-307.0,-14.0,0.0
-21.0,18.0,-7.0,-27.0,19.0,-3.0,7.0,-26.0,-295.0,-7.0,0.0
-24.0,4.0,-15.0,-27.0,14.0,7.0,0.0,-32.0,-278.0,-3.0,0.0
-25.0,-15.0,-2.0,-23.0,27.0,14.0,-2.0,-35.0,-287.0,0.0,0.0
-9.0,-20.0,-3.0,-18.0,25.0,22.0,-5.0,-36.0,-293.0,-9.0,0.0
-13.0,-6.0,-4.0,-15.0,20.0,27.0,-10.0,-37.0,-298.0,-24.0,0.0
-31.0,-10.0,-9.0,-17.0,11.0,22.0,-10.0,-38.0,-281.0,-29.0,0.0
-40.0,-21.0,-13.0,-14.0,-5.0,21.0,-17.0,-32.0,-279.0,-31.0,0.0
-34.0,-23.0,-11.0,-9.0,2.0,13.0,-24.0,-33.0,-249.0,-25.0,0.0
-14.0,-11.0,-7.0,-8.0,-2.0,0.0,-28.0,-40.0,-227.0,-8.0,0.0
2.0,8.0,11.0,-9.0,11.0,-8.0,-19.0,-32.0,-192.0,9.0,0.0
20.0,28.0,10.0,-13.0,13.0,-32.0,-10.0,-26.0,-164.0,10.0,0.0
18.0,50.0,-8.0,-9.0,0.0,-40.0,0.0,-17.0,-137.0,-7.0,0.0
0.0,27.0,-15.0,-15.0,-1.0,-30.0,5.0,-11.0,-117.0,-21.0,0.0
-7.0,1.0,-21.0,-44.0,-7.0,-26.0,-2.0,-10.0,-103.0,-14.0,0.0
-16.0,12.0,3.0,-60.0,-15.0,-23.0,-10.0,-12.0,-92.0,-7.0,0.0
-12.0,24.0,33.0,-56.0,-10.0,-31.0,-25.0,-23.0,-85.0,-9.0,0.0
1.0,32.0,29.0,-64.0,-11.0,-44.0,-32.0,-36.0,-83.0,-6.0,0.0
5.0,27.0,25.0,-66.0,-6.0,-47.0,-29.0,-46.0,-77.0,-15.0,0.0
5.0,30.0,29.0,-56.0,0.0,-28.0,-19.0,-51.0,-71.0,-17.0,0.0
-12.0,22.0,14.0,-15.0,5.0,-16.0,-27.0,-71.0,-71.0,-24.0,0.0
-36.0,-14.0,10.0,27.0,19.0,3.0,-24.0,-91.0,-84.0,-19.0,0.0
-51.0,-46.0,11.0,25.0,22.0,20.0,-15.0,-92.0,-90.0,-24.0,0.0
-49.0,-59.0,1.0,10.0,18.0,21.0,-9.0,-73.0,-80.0,-25.0,0.0
-27.0,-58.0,0.0,-3.0,4.0,3.0,-15.0,-67.0,-90.0,-21.0,0.0
12.0,-4.0,-7.0,-11.0,-19.0,-21.0,-17.0,-79.0,-100.0,-10.0,0.0
28.0,52.0,-15.0,-20.0,-17.0,-34.0,-12.0,-77.0,-91.0,1.0,0.0
15.0,41.0,-20.0,-15.0,-5.0,-15.0,-7.0,-61.0,-70.0,15.0,0.0
-13.0,7.0,-1.0,0.0,6.0,3.0,9.0,-46.0,-45.0,14.0,0.0
-24.0,-13.0,-4.0,-7.0,12.0,0.0,7.0,-44.0,-25.0,9.0,0.0
-28.0,-47.0,-22.0,-19.0,18.0,0.0,7.0,-48.0,-8.0,9.0,0.0
-24.0,-25.0,-10.0,-11.0,5.0,-21.0,-5.0,-49.0,6.0,3.0,0.0
-6.0,32.0,1.0,-4.0,-8.0,-37.0,-5.0,-53.0,25.0,-8.0,0.0
-13.0,22.0,-20.0,11.0,5.0,-28.0,-2.0,-49.0,34.0,-17.0,0.0
-24.0,-3.0,-47.0,24.0,27.0,-14.0,13.0,-47.0,37.0,-28.0,0.0
-13.0,-24.0,-67.0,0.0,14.0,-12.0,29.0,-45.0,54.0,-14.0,0.0
-2.0,-29.0,-82.0,-26.0,9.0,-6.0,19.0,-39.0,61.0,-4.0,0.0
0.0,1.0,-66.0,-19.0,3.0,1.0,16.0,-40.0,55.0,-2.0,0.0
-9.0,18.0,-40.0,-18.0,-1.0,15.0,17.0,-43.0,52.0,1.0,0.0
-5.0,3.0,-50.0,-30.0,-4.0,13.0,21.0,-36.0,56.0,9.0,0.0
-5.0,-4.0,-37.0,-26.0,-10.0,6.0,11.0,-43.0,68.0,5.0,0.0
-1.0,-3.0,-25.0,-24.0,-9.0,11.0,9.0,-53.0,73.0,1.0,0.0
5.0,4.0,-27.0,-36.0,-12.0,-10.0,6.0,-55.0,86.0,7.0,0.0
13.0,15.0,-21.0,-44.0,-8.0,-35.0,0.0,-49.0,86.0,0.0,0.0
21.0,18.0,-17.0,-37.0,-1.0,-54.0,-3.0,-49.0,113.0,-1.0,0.0
18.0,35.0,-7.0,-18.0,-4.0,-47.0,-6.0,-49.0,122.0,12.0,0.0
8.0,44.0,8.0,-14.0,-16.0,-50.0,-8.0,-61.0,101.0,25.0,0.0
9.0,23.0,12.0,-11.0,-6.0,-36.0,-5.0,-56.0,121.0,17.0,0.0
-1.0,8.0,0.0,-9.0,5.0,-29.0,6.0,-55.0,136.0,-7.0,0.0
-12.0,-1.0,-25.0,-17.0,8.0,-28.0,34.0,-32.0,142.0,-11.0,0.0
-5.0,3.0,-30.0,-30.0,7.0,-16.0,47.0,-19.0,149.0,-15.0,0.0
2.0,21.0,-19.0,-34.0,-2.0,-5.0,31.0,-17.0,141.0,-25.0,0.0
2.0,23.0,2.0,-25.0,-19.0,-21.0,10.0,-32.0,129.0,-38.0,0.0
-1.0,21.0,5.0,-5.0,-20.0,-22.0,-8.0,-53.0,121.0,-44.0,0.0
-4.0,28.0,14.0,9.0,-27.0,-5.0,-19.0,-67.0,111.0,-36.0,0.0
-7.0,29.0,17.0,5.0,-13.0,16.0,-13.0,-65.0,99.0,-24.0,0.0
-18.0,22.0,9.0,14.0,-7.0,20.0,-24.0,-62.0,86.0,-29.0,0.0
-28.0,-6.0,-15.0,18.0,-1.0,11.0,-21.0,-61.0,86.0,-27.0,0.0
-22.0,-16.0,-41.0,-4.0,-1.0,5.0,-4.0,-63.0,102.0,-18.0,0.0
-3.0,-19.0,-73.0,-27.0,-21.0,-1.0,-6.0,-57.0,133.0,-1.0,0.0
-1.0,-27.0,-101.0,-48.0,-34.0,-14.0,-14.0,-47.0,157.0,8.0,0.0
-4.0,-41.0,-124.0,-56.0,-51.0,-34.0,-16.0,-47.0,153.0,-3.0,0.0
-8.0,-41.0,-107.0,-44.0,-56.0,-35.0,-16.0,-48.0,165.0,-13.0,0.0
-7.0,-32.0,-88.0,-30.0,-46.0,-34.0,-20.0,-41.0,155.0,-12.0,0.0
-8.0,-33.0,-66.0,-21.0,-32.0,-40.0,-17.0,-45.0,168.0,-19.0,0.0
-22.0,-27.0,-44.0,-11.0,-30.0,-34.0,-17.0,-45.0,154.0,-25.0,0.0
-28.0,-25.0,-41.0,-14.0,-19.0,-31.0,-23.0,-49.0,147.0,-15.0,0.0
-32.0,-37.0,-36.0,-19.0,-12.0,-38.0,-32.0,-61.0,127.0,-12.0,0.0
-37.0,-45.0,-29.0,-8.0,-10.0,-36.0,-53.0,-65.0,114.0,-11.0,0.0
-35.0,-49.0,-31.0,2.0,-8.0,-30.0,-48.0,-62.0,90.0,-18.0,0.0
-32.0,-46.0,-24.0,11.0,1.0,-7.0,-31.0,-59.0,97.0,-36.0,0.0
-45.0,-40.0,-16.0,18.0,13.0,16.0,-20.0,-60.0,79.0,-73.0,0.0
-46.0,-26.0,-26.0,12.0,6.0,17.0,-17.0,-55.0,75.0,-89.0,0.0
-46.0,-18.0,-28.0,1.0,-10.0,1.0,-22.0,-57.0,45.0,-81.0,0.0
-38.0,-16.0,-24.0,-2.0,-19.0,9.0,-29.0,-57.0,2.0,-87.0,0.0
-24.0,-8.0,-34.0,-9.0,-37.0,7.0,-24.0,-47.0,-19.0,-61.0,0.0
-22.0,-2.0,-34.0,-25.0,-45.0,-25.0,-24.0,-41.0,-36.0,-39.0,0.0
-26.0,-19.0,-17.0,-33.0,-34.0,-31.0,-22.0,-43.0,-42.0,-44.0,0.0
-33.0,-32.0,-9.0,-34.0,-30.0,-22.0,-23.0,-34.0,-42.0,-48.0,0.0
-34.0,-34.0,-10.0,-19.0,-21.0,-33.0,-33.0,-32.0,-44.0,-43.0,0.0
-21.0,-30.0,-9.0,-24.0,-19.0,-26.0,-46.0,-35.0,-46.0,-44.0,0.0
-5.0,-25.0,-3.0,-38.0,-18.0,-40.0,-46.0,-29.0,-34.0,-49.0,0.0
-2.0,-28.0,-6.0,-48.0,-11.0,-35.0,-40.0,-26.0,-20.0,-32.0,0.0
-10.0,-27.0,-2.0,-42.0,-5.0,-31.0,-35.0,-34.0,-19.0,-36.0,0.0
-12.0,-6.0,21.0,-34.0,2.0,-28.0,-29.0,-42.0,-13.0,-65.0,0.0
4.0,22.0,32.0,-4.0,-5.0,-40.0,-37.0,-50.0,-7.0,-59.0,0.0
-4.0,24.0,9.0,14.0,-3.0,-23.0,-41.0,-43.0,-6.0,-64.0,0.0
-12.0,-8.0,7.0,24.0,12.0,3.0,-35.0,-35.0,7.0,-48.0,0.0
-10.0,-19.0,-8.0,20.0,14.0,13.0,-29.0,-25.0,5.0,-38.0,0.0
-6.0,-17.0,-34.0,3.0,1.0,25.0,-23.0,-21.0,19.0,-43.0,0.0
5.0,4.0,-36.0,-4.0,1.0,28.0,-19.0,-24.0,47.0,-29.0,0.0
18.0,15.0,-21.0,0.0,-9.0,15.0,-13.0,-23.0,47.0,-21.0,0.0
21.0,-18.0,-26.0,-26.0,-15.0,6.0,-13.0,-19.0,27.0,-6.0,0.0
15.0,-29.0,-27.0,-34.0,-9.0,14.0,-8.0,-2.0,31.0,-3.0,0.0
13.0,-17.0,-41.0,-32.0,-9.0,8.0,-3.0,-3.0,55.0,-25.0,0.0
13.0,-4.0,-48.0,-37.0,-17.0,-7.0,-3.0,-11.0,40.0,-38.0,0.0
6.0,3.0,-24.0,-32.0,-21.0,-6.0,2.0,-13.0,28.0,-22.0,0.0
-9.0,9.0,-17.0,-25.0,-24.0,-13.0,10.0,-25.0,41.0,-27.0,0.0
-11.0,1.0,-24.0,-22.0,-29.0,-8.0,6.0,-23.0,56.0,-18.0,0.0
-2.0,-13.0,-25.0,-15.0,-32.0,9.0,-1.0,-17.0,48.0,-10.0,0.0
6.0,-19.0,-29.0,-4.0,-38.0,-7.0,-2.0,-25.0,72.0,-26.0,0.0
22.0,-8.0,-28.0,-11.0,-34.0,-18.0,-2.0,-34.0,74.0,-22.0,0.0
12.0,-8.0,-16.0,-10.0,-36.0,-13.0,-8.0,-36.0,78.0,-20.0,0.0
7.0,-13.0,-10.0,0.0,-28.0,-6.0,-16.0,-42.0,78.0,-31.0,0.0
2.0,-23.0,2.0,3.0,-33.0,15.0,-21.0,-53.0,64.0,-38.0,0.0
0.0,-37.0,17.0,9.0,-37.0,23.0,-27.0,-62.0,41.0,-59.0,0.0
5.0,-29.0,27.0,18.0,-40.0,12.0,-27.0,-61.0,51.0,-56.0,0.0
30.0,1.0,27.0,6.0,-37.0,9.0,-22.0,-56.0,59.0,-23.0,0.0
48.0,29.0,43.0,14.0,-33.0,1.0,-9.0,-53.0,91.0,5.0,0.0
38.0,17.0,66.0,7.0,-34.0,-11.0,-3.0,-34.0,98.0,-20.0,0.0
20.0,3.0,57.0,-3.0,-31.0,-5.0,14.0,-23.0,97.0,-33.0,0.0
9.0,-2.0,34.0,-14.0,-25.0,-1.0,25.0,-25.0,94.0,-24.0,0.0
9.0,0.0,15.0,-24.0,-24.0,-10.0,16.0,-30.0,88.0,-13.0,0.0
23.0,-2.0,-3.0,-23.0,-24.0,2.0,5.0,-20.0,112.0,-9.0,0.0
30.0,-4.0,-16.0,-9.0,-17.0,10.0,9.0,-14.0,128.0,-14.0,0.0
16.0,-12.0,-21.0,0.0,-25.0,-14.0,3.0,-13.0,121.0,-14.0,0.0
20.0,2.0,-31.0,-18.0,-31.0,-18.0,0.0,-6.0,124.0,-11.0,0.0
42.0,15.0,-40.0,-22.0,-20.0,-25.0,0.0,-7.0,126.0,-8.0,0.0
43.0,9.0,-18.0,-8.0,-16.0,-14.0,8.0,-17.0,131.0,-23.0,0.0
33.0,11.0,10.0,-4.0,-16.0,9.0,8.0,-27.0,138.0,-37.0,0.0
25.0,6.0,14.0,-21.0,-6.0,-1.0,0.0,-22.0,130.0,-43.0,0.0
23.0,0.0,2.0,-13.0,2.0,19.0,0.0,-21.0,120.0,-29.0,0.0
12.0,-12.0,-2.0,9.0,9.0,47.0,9.0,-24.0,134.0,-18.0,0.0
14.0,-15.0,6.0,19.0,14.0,56.0,20.0,-25.0,151.0,-7.0,0.0
9.0,-13.0,10.0,23.0,15.0,48.0,29.0,-15.0,167.0,-20.0,0.0
6.0,-6.0,23.0,14.0,9.0,38.0,32.0,-4.0,182.0,-29.0,0.0
4.0,9.0,43.0,14.0,5.0,36.0,23.0,8.0,171.0,-30.0,0.0
6.0,11.0,42.0,3.0,3.0,27.0,19.0,12.0,151.0,-30.0,0.0
17.0,2.0,39.0,-2.0,5.0,22.0,30.0,17.0,151.0,-13.0,0.0
19.0,4.0,33.0,-6.0,14.0,18.0,33.0,20.0,148.0,-8.0,0.0
15.0,3.0,26.0,2.0,27.0,3.0,31.0,16.0,138.0,18.0,0.0
12.0,-26.0,14.0,26.0,26.0,-3.0,20.0,27.0,137.0,4.0,0.0
15.0,-32.0,5.0,18.0,25.0,-1.0,8.0,34.0,151.0,9.0,0.0
30.0,-16.0,-5.0,5.0,14.0,-5.0,26.0,36.0,164.0,14.0,0.0
48.0,13.0,12.0,7.0,3.0,-15.0,27.0,31.0,164.0,12.0,0.0
55.0,51.0,44.0,16.0,1.0,-15.0,19.0,11.0,151.0,17.0,0.0
47.0,66.0,57.0,32.0,4.0,-11.0,18.0,3.0,133.0,1.0,0.0
39.0,60.0,59.0,41.0,7.0,0.0,19.0,4.0,133.0,13.0,0.0
30.0,22.0,52.0,38.0,18.0,16.0,21.0,9.0,137.0,21.0,0.0
30.0,0.0,25.0,34.0,29.0,33.0,23.0,19.0,147.0,21.0,0.0
41.0,-17.0,13.0,24.0,20.0,27.0,24.0,21.0,142.0,40.0,0.0
26.0,-11.0,6.0,24.0,11.0,13.0,19.0,15.0,131.0,40.0,0.0
16.0,-17.0,0.0,15.0,14.0,0.0,19.0,20.0,123.0,14.0,0.0
13.0,-14.0,11.0,8.0,28.0,-6.0,14.0,24.0,120.0,30.0,0.0
32.0,4.0,21.0,16.0,40.0,3.0,20.0,21.0,123.0,43.0,0.0
47.0,19.0,21.0,22.0,42.0,-2.0,15.0,18.0,127.0,9.0,0.0
38.0,24.0,30.0,20.0,53.0,-7.0,6.0,17.0,128.0,6.0,0.0
25.0,21.0,45.0,20.0,48.0,-1.0,25.0,17.0,127.0,21.0,0.0
12.0,13.0,54.0,23.0,53.0,1.0,39.0,24.0,123.0,15.0,0.0
4.0,-5.0,57.0,23.0,47.0,5.0,45.0,22.0,117.0,10.0,0.0
2.0,-7.0,63.0,34.0,44.0,6.0,45.0,15.0,94.0,14.0,0.0
28.0,16.0,81.0,33.0,32.0,7.0,38.0,8.0,72.0,11.0,0.0
41.0,40.0,78.0,24.0,28.0,2.0,24.0,2.0,58.0,2.0,0.0
25.0,31.0,59.0,19.0,36.0,33.0,51.0,9.0,49.0,18.0,0.0
14.0,2.0,17.0,-13.0,46.0,64.0,61.0,28.0,62.0,8.0,0.0
11.0,3.0,-2.0,-25.0,39.0,74.0,62.0,41.0,66.0,0.0,0.0
5.0,16.0,2.0,-11.0,51.0,69.0,59.0,25.0,58.0,9.0,0.0
12.0,5.0,15.0,1.0,51.0,59.0,50.0,17.0,57.0,6.0,0.0
37.0,22.0,27.0,-1.0,39.0,46.0,47.0,15.0,56.0,13.0,0.0
55.0,39.0,33.0,-26.0,30.0,41.0,56.0,25.0,67.0,37.0,0.0
51.0,17.0,19.0,-48.0,22.0,41.0,60.0,24.0,91.0,52.0,0.0
41.0,-3.0,-6.0,-58.0,9.0,35.0,55.0,22.0,93.0,55.0,0.0
53.0,0.0,-12.0,-62.0,14.0,21.0,48.0,17.0,86.0,42.0,0.0
53.0,8.0,0.0,-41.0,22.0,18.0,45.0,21.0,80.0,37.0,0.0
50.0,24.0,1.0,-16.0,16.0,19.0,41.0,14.0,57.0,29.0,0.0
41.0,27.0,2.0,-11.0,7.0,15.0,44.0,3.0,53.0,25.0,0.0
36.0,22.0,12.0,-10.0,8.0,2.0,48.0,10.0,60.0,29.0,0.0
32.0,18.0,25.0,-13.0,9.0,5.0,46.0,15.0,44.0,22.0,0.0
27.0,18.0,18.0,-11.0,9.0,11.0,49.0,31.0,46.0,5.0,0.0
26.0,14.0,20.0,3.0,9.0,23.0,52.0,29.0,43.0,-5.0,0.0
22.0,14.0,37.0,23.0,18.0,38.0,34.0,19.0,18.0,4.0,0.0
19.0,24.0,44.0,37.0,21.0,42.0,26.0,4.0,0.0,19.0,0.0
14.0,20.0,56.0,39.0,20.0,37.0,31.0,-4.0,4.0,16.0,0.0
32.0,25.0,67.0,43.0,14.0,31.0,21.0,-12.0,-1.0,0.0,0.0
37.0,34.0,59.0,42.0,20.0,22.0,27.0,-13.0,-4.0,1.0,0.0
19.0,34.0,39.0,28.0,24.0,17.0,25.0,-5.0,-11.0,7.0,0.0
15.0,26.0,37.0,10.0,19.0,22.0,21.0,20.0,-9.0,21.0,0.0
13.0,18.0,50.0,16.0,36.0,22.0,35.0,33.0,9.0,33.0,0.0
5.0,28.0,66.0,28.0,46.0,26.0,38.0,33.0,15.0,29.0,0.0
8.0,28.0,68.0,37.0,46.0,29.0,28.0,41.0,5.0,17.0,0.0
15.0,25.0,53.0,31.0,44.0,38.0,29.0,44.0,12.0,28.0,0.0
20.0,21.0,46.0,17.0,32.0,32.0,31.0,33.0,12.0,35.0,0.0
30.0,26.0,52.0,7.0,34.0,20.0,21.0,33.0,4.0,45.0,0.0
41.0,40.0,65.0,-5.0,31.0,16.0,14.0,36.0,13.0,51.0,0.0
53.0,49.0,72.0,-5.0,14.0,18.0,19.0,35.0,16.0,49.0,0.0
49.0,38.0,75.0,3.0,5.0,22.0,21.0,30.0,10.0,46.0,0.0
27.0,30.0,77.0,18.0,10.0,32.0,24.0,14.0,1.0,36.0,0.0
0.0,13.0,90.0,43.0,16.0,31.0,34.0,17.0,-1.0,25.0,0.0
-12.0,9.0,101.0,64.0,29.0,44.0,31.0,20.0,-8.0,26.0,0.0
-13.0,13.0,99.0,79.0,29.0,54.0,24.0,4.0,-6.0,30.0,0.0
-2.0,37.0,98.0,83.0,30.0,52.0,15.0,1.0,6.0,36.0,0.0
3.0,43.0,73.0,68.0,33.0,47.0,11.0,8.0,12.0,38.0,0.0
-1.0,21.0,50.0,56.0,30.0,37.0,20.0,22.0,15.0,37.0,0.0
-5.0,10.0,50.0,43.0,17.0,26.0,19.0,33.0,22.0,31.0,0.0
-4.0,22.0,88.0,32.0,10.0,25.0,18.0,38.0,32.0,26.0,0.0
1.0,28.0,95.0,26.0,9.0,34.0,15.0,35.0,29.0,28.0,0.0
-3.0,33.0,83.0,16.0,9.0,41.0,8.0,32.0,41.0,34.0,0.0
-6.0,28.0,68.0,9.0,7.0,24.0,9.0,27.0,50.0,22.0,0.0
-5.0,19.0,51.0,22.0,15.0,14.0,31.0,24.0,42.0,7.0,0.0
12.0,28.0,50.0,34.0,25.0,13.0,36.0,21.0,44.0,1.0,0.0
25.0,56.0,24.0,29.0,22.0,6.0,28.0,15.0,34.0,-7.0,0.0
24.0,51.0,4.0,4.0,14.0,9.0,26.0,19.0,36.0,2.0,0.0
16.0,34.0,-6.0,-3.0,14.0,29.0,23.0,27.0,47.0,12.0,0.0
0.0,39.0,23.0,8.0,22.0,29.0,25.0,18.0,23.0,13.0,0.0
-10.0,58.0,72.0,20.0,21.0,35.0,21.0,-1.0,13.0,-3.0,0.0
-12.0,47.0,80.0,25.0,26.0,61.0,20.0,-6.0,19.0,-22.0,0.0
-11.0,26.0,69.0,25.0,29.0,56.0,21.0,-8.0,19.0,-24.0,0.0
6.0,36.0,59.0,14.0,19.0,45.0,14.0,-13.0,24.0,-22.0,0.0
22.0,54.0,36.0,10.0,18.0,39.0,11.0,-17.0,25.0,-5.0,0.0
17.0,24.0,-2.0,9.0,31.0,28.0,24.0,-7.0,35.0,0.0,0.0
5.0,5.0,-29.0,-8.0,30.0,15.0,39.0,11.0,38.0,9.0,0.0
0.0,-7.0,-37.0,-33.0,18.0,22.0,39.0,19.0,34.0,23.0,0.0
-6.0,-20.0,-43.0,-23.0,25.0,25.0,44.0,18.0,40.0,8.0,0.0
-12.0,-19.0,-31.0,3.0,33.0,13.0,47.0,19.0,34.0,-9.0,0.0
5.0,5.0,-22.0,1.0,30.0,3.0,34.0,11.0,27.0,-8.0,0.0
39.0,32.0,-13.0,-16.0,9.0,4.0,11.0,18.0,12.0,3.0,0.0
46.0,33.0,-13.0,-15.0,0.0,-5.0,6.0,31.0,21.0,7.0,0.0
32.0,15.0,-29.0,-16.0,1.0,-14.0,14.0,34.0,32.0,4.0,0.0
22.0,12.0,-19.0,-23.0,3.0,-5.0,14.0,32.0,37.0,16.0,0.0
27.0,23.0,18.0,-15.0,7.0,14.0,13.0,27.0,23.0,18.0,0.0
17.0,45.0,43.0,-2.0,13.0,29.0,9.0,6.0,15.0,2.0,0.0
10.0,56.0,53.0,8.0,12.0,28.0,8.0,-21.0,-7.0,0.0,0.0
7.0,64.0,63.0,18.0,3.0,30.0,3.0,-26.0,-15.0,16.0,0.0
6.0,64.0,79.0,28.0,6.0,35.0,3.0,-16.0,-17.0,12.0,0.0
-2.0,38.0,66.0,45.0,11.0,27.0,10.0,-4.0,-33.0,1.0,0.0
-15.0,-5.0,14.0,55.0,28.0,25.0,21.0,16.0,-20.0,-2.0,0.0
-14.0,-23.0,-37.0,19.0,23.0,29.0,30.0,27.0,-3.0,15.0,0.0
0.0,-19.0,-52.0,-10.0,7.0,7.0,39.0,38.0,4.0,34.0,0.0
13.0,-10.0,-35.0,-5.0,-3.0,-9.0,46.0,31.0,8.0,37.0,0.0
17.0,-4.0,-10.0,-8.0,2.0,4.0,38.0,11.0,16.0,31.0,0.0
15.0,3.0,0.0,-5.0,4.0,4.0,15.0,13.0,7.0,22.0,0.0
7.0,12.0,4.0,-5.0,-5.0,-8.0,-3.0,14.0,5.0,7.0,0.0
3.0,11.0,16.0,-7.0,-7.0,-13.0,2.0,-2.0,2.0,3.0,0.0
14.0,13.0,26.0,-5.0,-7.0,0.0,2.0,2.0,3.0,12.0,0.0
37.0,31.0,36.0,0.0,-6.0,5.0,-6.0,12.0,7.0,15.0,0.0
48.0,29.0,54.0,8.0,-3.0,-7.0,-10.0,0.0,-2.0,10.0,0.0
38.0,12.0,60.0,23.0,0.0,0.0,-2.0,-9.0,-8.0,-7.0,0.0
14.0,8.0,67.0,44.0,0.0,21.0,-4.0,-11.0,-9.0,-17.0,0.0
22.0,14.0,62.0,54.0,4.0,25.0,-5.0,-16.0,-34.0,-18.0,0.0
30.0,25.0,37.0,29.0,4.0,32.0,5.0,-11.0,-17.0,1.0,0.0
26.0,32.0,24.0,12.0,0.0,29.0,3.0,-7.0,-9.0,9.0,0.0
19.0,44.0,11.0,18.0,-6.0,18.0,4.0,0.0,-19.0,13.0,0.0
13.0,38.0,-6.0,25.0,-4.0,20.0,12.0,14.0,-2.0,14.0,0.0
11.0,33.0,-6.0,28.0,0.0,22.0,16.0,22.0,18.0,20.0,0.0
4.0,24.0,11.0,36.0,10.0,22.0,26.0,16.0,16.0,14.0,0.0
1.0,20.0,6.0,39.0,25.0,29.0,30.0,23.0,16.0,11.0,0.0
8.0,6.0,2.0,38.0,23.0,19.0,31.0,38.0,17.0,10.0,0.0
4.0,23.0,7.0,22.0,31.0,15.0,34.0,28.0,15.0,11.0,0.0
1.0,27.0,7.0,18.0,21.0,2.0,25.0,21.0,-3.0,10.0,0.0
2.0,28.0,20.0,28.0,17.0,-12.0,18.0,10.0,-20.0,1.0,0.0
3.0,25.0,19.0,38.0,23.0,11.0,26.0,6.0,-18.0,0.0,0.0
6.0,17.0,8.0,36.0,13.0,21.0,17.0,8.0,-30.0,0.0,0.0
5.0,10.0,5.0,29.0,9.0,9.0,10.0,12.0,-45.0,-5.0,0.0
2.0,13.0,9.0,33.0,21.0,9.0,1.0,3.0,-71.0,-9.0,0.0
-1.0,1.0,4.0,36.0,21.0,14.0,7.0,-1.0,-79.0,-1.0,0.0
0.0,14.0,17.0,44.0,27.0,30.0,18.0,-1.0,-61.0,4.0,0.0
5.0,27.0,24.0,58.0,37.0,38.0,18.0,16.0,-51.0,20.0,0.0
7.0,23.0,27.0,75.0,40.0,54.0,20.0,22.0,-53.0,28.0,0.0
2.0,20.0,36.0,61.0,26.0,40.0,26.0,15.0,-51.0,33.0,0.0
11.0,24.0,34.0,37.0,24.0,16.0,37.0,17.0,-57.0,46.0,0.0
29.0,22.0,22.0,28.0,23.0,9.0,36.0,23.0,-48.0,49.0,0.0
26.0,7.0,15.0,24.0,20.0,5.0,20.0,23.0,-43.0,35.0,0.0
26.0,5.0,16.0,22.0,14.0,6.0,26.0,23.0,-52.0,30.0,0.0
18.0,0.0,15.0,20.0,18.0,-12.0,32.0,19.0,-54.0,26.0,0.0
16.0,-5.0,11.0,21.0,20.0,-18.0,41.0,17.0,-44.0,36.0,0.0
11.0,-4.0,12.0,10.0,25.0,-3.0,42.0,21.0,-40.0,46.0,0.0
16.0,-2.0,13.0,11.0,17.0,7.0,36.0,23.0,-43.0,37.0,0.0
32.0,0.0,12.0,16.0,10.0,11.0,28.0,16.0,-41.0,25.0,0.0
35.0,16.0,0.0,21.0,15.0,13.0,28.0,23.0,-39.0,42.0,0.0
30.0,29.0,17.0,27.0,29.0,20.0,27.0,22.0,-49.0,43.0,0.0
17.0,38.0,41.0,44.0,34.0,47.0,24.0,22.0,-59.0,24.0,0.0
11.0,26.0,31.0,52.0,31.0,49.0,27.0,16.0,-60.0,2.0,0.0
13.0,6.0,16.0,44.0,24.0,42.0,34.0,9.0,-56.0,-10.0,0.0
6.0,-4.0,8.0,30.0,20.0,38.0,32.0,4.0,-54.0,4.0,0.0
6.0,1.0,-3.0,25.0,15.0,27.0,23.0,-1.0,-48.0,19.0,0.0
-1.0,0.0,9.0,38.0,19.0,19.0,30.0,3.0,-33.0,28.0,0.0
4.0,-7.0,25.0,39.0,22.0,17.0,38.0,8.0,-26.0,29.0,0.0
3.0,-18.0,20.0,25.0,18.0,20.0,34.0,16.0,-23.0,26.0,0.0
15.0,0.0,21.0,17.0,13.0,5.0,25.0,26.0,-25.0,36.0,0.0
40.0,28.0,32.0,9.0,10.0,2.0,22.0,23.0,-27.0,32.0,0.0
63.0,35.0,25.0,-1.0,10.0,-15.0,21.0,14.0,-40.0,16.0,0.0
68.0,15.0,12.0,-4.0,15.0,-11.0,27.0,11.0,-49.0,21.0,0.0
59.0,8.0,0.0,-5.0,21.0,-7.0,27.0,14.0,-41.0,29.0,0.0
49.0,39.0,8.0,-4.0,27.0,-9.0,18.0,12.0,-32.0,23.0,0.0
28.0,67.0,39.0,5.0,30.0,1.0,17.0,11.0,-21.0,9.0,0.0
15.0,46.0,39.0,2.0,37.0,14.0,27.0,14.0,-22.0,14.0,0.0
9.0,5.0,21.0,8.0,38.0,28.0,29.0,19.0,-33.0,19.0,0.0
1.0,-8.0,18.0,30.0,48.0,35.0,23.0,25.0,-39.0,13.0,0.0
-1.0,-16.0,7.0,22.0,57.0,43.0,27.0,37.0,-23.0,-1.0,0.0
-5.0,-4.0,-6.0,30.0,73.0,61.0,37.0,38.0,-19.0,-15.0,0.0
-4.0,-12.0,-24.0,51.0,82.0,72.0,42.0,23.0,-25.0,-17.0,0.0
9.0,-2.0,-26.0,45.0,71.0,68.0,43.0,15.0,-17.0,0.0,0.0
24.0,-3.0,-33.0,17.0,54.0,54.0,45.0,19.0,-5.0,10.0,0.0
28.0,-5.0,-14.0,5.0,44.0,46.0,43.0,27.0,-10.0,15.0,0.0
20.0,-6.0,-1.0,4.0,40.0,39.0,49.0,33.0,-12.0,24.0,0.0
13.0,-7.0,9.0,15.0,48.0,32.0,48.0,31.0,-11.0,18.0,0.0
14.0,-8.0,14.0,17.0,49.0,24.0,47.0,19.0,-10.0,5.0,0.0
21.0,4.0,16.0,4.0,45.0,12.0,38.0,9.0,-2.0,-3.0,0.0
25.0,22.0,11.0,0.0,37.0,15.0,33.0,-1.0,-5.0,-17.0,0.0
30.0,21.0,27.0,3.0,37.0,12.0,34.0,-4.0,3.0,-10.0,0.0
36.0,16.0,36.0,9.0,39.0,0.0,18.0,-6.0,0.0,-3.0,0.0
33.0,13.0,40.0,10.0,27.0,1.0,16.0,0.0,-8.0,7.0,0.0
25.0,23.0,37.0,23.0,26.0,22.0,11.0,3.0,-17.0,2.0,0.0
21.0,28.0,50.0,47.0,33.0,23.0,0.0,16.0,-12.0,-7.0,0.0
9.0,24.0,56.0,64.0,41.0,27.0,0.0,15.0,-18.0,-2.0,0.0
0.0,-9.0,43.0,62.0,40.0,41.0,8.0,12.0,-16.0,-4.0,0.0
-13.0,-33.0,39.0,52.0,39.0,44.0,9.0,4.0,-22.0,-17.0,0.0
-6.0,-6.0,67.0,42.0,25.0,35.0,0.0,-5.0,-25.0,-8.0,0.0
14.0,35.0,88.0,39.0,9.0,9.0,-5.0,-12.0,-32.0,-8.0,0.0
25.0,57.0,101.0,39.0,3.0,-12.0,-9.0,-21.0,-42.0,-4.0,0.0
23.0,51.0,91.0,25.0,0.0,-27.0,-11.0,-22.0,-36.0,11.0,0.0
32.0,34.0,72.0,-5.0,-5.0,-16.0,-11.0,-22.0,-39.0,22.0,0.0
50.0,12.0,18.0,-2.0,8.0,-16.0,2.0,-18.0,-45.0,16.0,0.0
70.0,17.0,-25.0,0.0,19.0,-17.0,5.0,-5.0,-46.0,11.0,0.0
77.0,24.0,-47.0,-17.0,23.0,-11.0,19.0,-2.0,-25.0,33.0,0.0
68.0,1.0,-83.0,-22.0,30.0,13.0,53.0,9.0,-9.0,31.0,0.0
49.0,-36.0,-90.0,-12.0,26.0,20.0,58.0,11.0,-10.0,26.0,0.0
51.0,-22.0,-66.0,0.0,28.0,13.0,52.0,12.0,-16.0,38.0,0.0
57.0,-7.0,-47.0,2.0,17.0,23.0,44.0,14.0,-19.0,23.0,0.0
41.0,-9.0,-29.0,12.0,20.0,44.0,45.0,1.0,-24.0,12.0,0.0
20.0,4.0,-17.0,25.0,29.0,54.0,42.0,-5.0,-45.0,13.0,0.0
17.0,12.0,-11.0,-22.0,0.0,34.0,30.0,1.0,-21.0,-1.0,0.0
17.0,14.0,-9.0,-23.0,2.0,29.0,36.0,4.0,-28.0,-6.0,0.0
21.0,2.0,-6.0,-31.0,8.0,16.0,45.0,7.0,-24.0,-18.0,0.0
15.0,-10.0,8.0,-25.0,10.0,7.0,33.0,17.0,-22.0,-13.0,0.0
18.0,-10.0,15.0,-26.0,10.0,11.0,24.0,13.0,-31.0,0.0,0.0
11.0,1.0,20.0,-30.0,7.0,23.0,21.0,13.0,-32.0,9.0,0.0
9.0,8.0,25.0,-44.0,9.0,21.0,14.0,9.0,-21.0,0.0,0.0
4.0,3.0,25.0,-50.0,0.0,12.0,6.0,0.0,-34.0,6.0,0.0
0.0,1.0,21.0,-50.0,-9.0,-5.0,8.0,1.0,-26.0,21.0,0.0
5.0,-2.0,22.0,-38.0,-9.0,-7.0,11.0,4.0,-15.0,13.0,0.0
-8.0,-5.0,34.0,-32.0,-4.0,8.0,22.0,5.0,-21.0,-6.0,0.0
-25.0,0.0,33.0,-15.0,2.0,27.0,25.0,6.0,-13.0,0.0,0.0
-28.0,0.0,26.0,3.0,23.0,46.0,19.0,3.0,-20.0,-7.0,0.0
-35.0,-11.0,27.0,8.0,21.0,53.0,12.0,-1.0,-31.0,-21.0,0.0
-34.0,-16.0,34.0,1.0,21.0,49.0,6.0,-4.0,-24.0,-31.0,0.0
-9.0,10.0,30.0,-7.0,11.0,35.0,-4.0,-7.0,-29.0,-33.0,0.0
6.0,28.0,18.0,-14.0,6.0,45.0,4.0,-15.0,-28.0,-8.0,0.0
13.0,29.0,17.0,-24.0,4.0,28.0,9.0,-16.0,-29.0,9.0,0.0
13.0,18.0,16.0,-32.0,12.0,17.0,12.0,-9.0,-41.0,12.0,0.0
23.0,27.0,25.0,-29.0,11.0,20.0,3.0,-2.0,-44.0,-7.0,0.0
32.0,30.0,38.0,-11.0,7.0,15.0,1.0,-3.0,-52.0,-20.0,0.0
24.0,28.0,39.0,-9.0,8.0,6.0,9.0,-9.0,-50.0,-15.0,0.0
14.0,20.0,34.0,-14.0,5.0,5.0,9.0,-16.0,-52.0,-4.0,0.0
23.0,19.0,16.0,-13.0,-1.0,15.0,11.0,-13.0,-38.0,16.0,0.0
34.0,10.0,-14.0,-20.0,0.0,14.0,18.0,0.0,-28.0,23.0,0.0
36.0,14.0,-12.0,-19.0,3.0,21.0,7.0,9.0,-22.0,38.0,0.0
32.0,10.0,2.0,-16.0,6.0,22.0,9.0,4.0,-23.0,34.0,0.0
24.0,4.0,17.0,-2.0,-7.0,22.0,6.0,0.0,-28.0,16.0,0.0
17.0,7.0,28.0,15.0,-13.0,27.0,-2.0,-16.0,-40.0,22.0,0.0
25.0,24.0,57.0,25.0,-11.0,25.0,-15.0,-26.0,-52.0,18.0,0.0
42.0,53.0,85.0,30.0,-19.0,27.0,-31.0,-28.0,-50.0,-3.0,0.0
46.0,42.0,84.0,29.0,-6.0,32.0,-30.0,-18.0,-40.0,-11.0,0.0
12.0,4.0,63.0,16.0,1.0,38.0,-29.0,-7.0,-38.0,12.0,0.0
-3.0,-20.0,25.0,3.0,-3.0,30.0,-20.0,10.0,-27.0,13.0,0.0
-4.0,-1.0,11.0,5.0,-6.0,14.0,-5.0,13.0,-21.0,-6.0,0.0
-12.0,19.0,12.0,37.0,-9.0,4.0,2.0,9.0,-17.0,0.0,0.0
-8.0,49.0,6.0,44.0,-10.0,7.0,18.0,11.0,-11.0,5.0,0.0
1.0,38.0,-23.0,7.0,-18.0,7.0,17.0,23.0,7.0,0.0,0.0
0.0,-6.0,-74.0,-12.0,-19.0,20.0,32.0,43.0,18.0,4.0,0.0
0.0,-4.0,-65.0,-6.0,-14.0,20.0,44.0,49.0,27.0,22.0,0.0
3.0,0.0,-42.0,-7.0,-23.0,15.0,21.0,41.0,26.0,14.0,0.0
-5.0,-13.0,-56.0,-19.0,-22.0,15.0,23.0,39.0,12.0,-1.0,0.0
-5.0,-12.0,-75.0,-33.0,-19.0,14.0,37.0,29.0,6.0,11.0,0.0
-1.0,-19.0,-59.0,-30.0,-13.0,6.0,27.0,24.0,2.0,21.0,0.0
-6.0,-20.0,-23.0,-12.0,-10.0,8.0,17.0,12.0,4.0,12.0,0.0
-13.0,-22.0,-14.0,7.0,-15.0,26.0,4.0,-7.0,-14.0,14.0,0.0
-25.0,-36.0,-5.0,6.0,-7.0,27.0,-2.0,-13.0,-10.0,3.0,0.0
-28.0,-28.0,11.0,3.0,-4.0,19.0,-7.0,-22.0,-10.0,-13.0,0.0
-6.0,13.0,22.0,-11.0,-7.0,14.0,-22.0,-35.0,-11.0,-5.0,0.0
-1.0,56.0,36.0,-21.0,-17.0,6.0,-21.0,-37.0,-15.0,10.0,0.0
-6.0,46.0,17.0,-34.0,-10.0,16.0,-1.0,-27.0,1.0,4.0,0.0
-5.0,11.0,-6.0,-45.0,3.0,31.0,12.0,-15.0,7.0,3.0,0.0
2.0,-1.0,-9.0,-47.0,0.0,17.0,18.0,6.0,30.0,9.0,0.0
3.0,2.0,6.0,-31.0,-4.0,1.0,18.0,7.0,51.0,0.0,0.0
3.0,12.0,16.0,-25.0,-11.0,2.0,7.0,-20.0,44.0,-15.0,0.0
6.0,16.0,15.0,-20.0,-11.0,3.0,14.0,-17.0,35.0,-3.0,0.0
-2.0,14.0,14.0,-14.0,-3.0,9.0,17.0,-4.0,34.0,-1.0,0.0
-14.0,16.0,21.0,-12.0,-6.0,7.0,10.0,-14.0,31.0,-21.0,0.0
-11.0,8.0,28.0,-15.0,-7.0,2.0,7.0,-8.0,20.0,-28.0,0.0
-11.0,-6.0,28.0,-19.0,-15.0,-5.0,-2.0,-13.0,27.0,-27.0,0.0
-3.0,-20.0,25.0,-12.0,-26.0,-8.0,-12.0,-15.0,44.0,-12.0,0.0
0.0,-17.0,23.0,-10.0,-19.0,-11.0,-11.0,-10.0,35.0,-9.0,0.0
-4.0,-12.0,13.0,-6.0,-17.0,2.0,-6.0,-22.0,21.0,-18.0,0.0
-10.0,0.0,16.0,4.0,-9.0,21.0,-1.0,-33.0,33.0,-29.0,0.0
-17.0,-6.0,11.0,13.0,-1.0,24.0,1.0,-39.0,37.0,-32.0,0.0
-16.0,-8.0,8.0,22.0,6.0,18.0,-7.0,-36.0,26.0,-15.0,0.0
-17.0,-28.0,-4.0,29.0,11.0,10.0,-2.0,-32.0,18.0,-3.0,0.0
-21.0,-41.0,-23.0,10.0,11.0,3.0,9.0,-24.0,41.0,0.0,0.0
-23.0,-38.0,-41.0,-7.0,8.0,-5.0,7.0,-16.0,61.0,-14.0,0.0
-22.0,-19.0,-27.0,6.0,3.0,-11.0,-6.0,-13.0,58.0,-18.0,0.0
-25.0,-13.0,-10.0,19.0,-2.0,-18.0,-16.0,-7.0,55.0,-26.0,0.0
-16.0,-11.0,-11.0,17.0,-7.0,-21.0,-19.0,-13.0,48.0,-21.0,0.0
-7.0,-11.0,-14.0,4.0,-11.0,-20.0,-18.0,-12.0,28.0,7.0,0.0
0.0,1.0,-6.0,11.0,-4.0,-16.0,-17.0,-12.0,29.0,21.0,0.0
10.0,0.0,9.0,23.0,2.0,-24.0,-22.0,-20.0,32.0,28.0,0.0
16.0,-3.0,28.0,31.0,10.0,-20.0,1.0,-22.0,42.0,31.0,0.0
12.0,6.0,41.0,35.0,13.0,-15.0,0.0,-27.0,39.0,7.0,0.0
8.0,16.0,52.0,33.0,8.0,-8.0,-8.0,-31.0,30.0,-17.0,0.0
6.0,12.0,44.0,24.0,4.0,-3.0,-18.0,-27.0,25.0,-25.0,0.0
-1.0,6.0,24.0,17.0,5.0,0.0,-24.0,-32.0,11.0,-23.0,0.0
3.0,3.0,10.0,15.0,5.0,-2.0,-25.0,-42.0,-10.0,-18.0,0.0
-3.0,15.0,4.0,27.0,4.0,0.0,-32.0,-47.0,-8.0,-24.0,0.0
-11.0,17.0,-15.0,30.0,6.0,13.0,-26.0,-48.0,5.0,-19.0,0.0
3.0,2.0,-54.0,3.0,4.0,13.0,-8.0,-37.0,25.0,0.0,0.0
32.0,2.0,-68.0,-21.0,-2.0,3.0,0.0,-28.0,44.0,10.0,0.0
38.0,15.0,-60.0,-30.0,-8.0,-13.0,7.0,-24.0,52.0,29.0,0.0
23.0,13.0,-41.0,-25.0,-4.0,-23.0,-5.0,-43.0,40.0,17.0,0.0
13.0,10.0,-14.0,-7.0,-5.0,-30.0,-11.0,-57.0,28.0,-12.0,0.0
21.0,10.0,11.0,0.0,-6.0,-37.0,1.0,-54.0,28.0,-24.0,0.0
24.0,10.0,5.0,-13.0,-9.0,-27.0,8.0,-34.0,37.0,-16.0,0.0
14.0,20.0,5.0,-17.0,0.0,-21.0,17.0,-15.0,38.0,2.0,0.0
10.0,16.0,0.0,-7.0,7.0,-1.0,17.0,-9.0,46.0,-6.0,0.0
-6.0,1.0,-15.0,-10.0,12.0,10.0,27.0,-1.0,51.0,-11.0,0.0
-26.0,-7.0,-35.0,5.0,12.0,19.0,38.0,5.0,46.0,-16.0,0.0
-37.0,-14.0,-41.0,25.0,7.0,27.0,28.0,-2.0,35.0,-25.0,0.0
-31.0,-14.0,-35.0,-3.0,7.0,25.0,13.0,-7.0,36.0,-16.0,0.0
-18.0,-5.0,-41.0,-23.0,4.0,29.0,7.0,-14.0,33.0,9.0,0.0
-7.0,0.0,-23.0,-14.0,-1.0,32.0,-2.0,-21.0,24.0,0.0,0.0
-13.0,0.0,-4.0,-4.0,-8.0,30.0,-6.0,-31.0,22.0,-5.0,0.0
-8.0,0.0,12.0,-2.0,-11.0,19.0,-11.0,-30.0,24.0,-12.0,0.0
-12.0,7.0,19.0,8.0,2.0,9.0,-17.0,-23.0,28.0,-1.0,0.0
-13.0,10.0,23.0,11.0,0.0,0.0,-17.0,-28.0,33.0,17.0,0.0
-20.0,14.0,28.0,12.0,-5.0,-20.0,-11.0,-29.0,32.0,25.0,0.0
-16.0,0.0,33.0,11.0,2.0,-26.0,-14.0,-30.0,32.0,12.0,0.0
0.0,8.0,35.0,2.0,10.0,-19.0,-26.0,-29.0,38.0,-1.0,0.0
40.0,39.0,30.0,-14.0,-1.0,-24.0,-35.0,-39.0,29.0,-11.0,0.0
45.0,52.0,0.0,-21.0,-18.0,-32.0,-45.0,-36.0,26.0,-10.0,0.0
17.0,43.0,-23.0,-12.0,-32.0,-31.0,-34.0,-27.0,33.0,-5.0,0.0
14.0,17.0,-25.0,-5.0,-24.0,-11.0,-12.0,-27.0,37.0,-3.0,0.0
12.0,-2.0,-25.0,1.0,-12.0,0.0,-1.0,-27.0,44.0,-5.0,0.0
-7.0,-7.0,-22.0,1.0,-11.0,8.0,11.0,-26.0,40.0,-16.0,0.0
-23.0,-15.0,-11.0,23.0,-7.0,19.0,4.0,-23.0,16.0,-33.0,0.0
-34.0,-20.0,-4.0,33.0,8.0,28.0,8.0,-15.0,0.0,-38.0,0.0
-42.0,-7.0,14.0,42.0,20.0,35.0,15.0,-13.0,-9.0,-28.0,0.0
-44.0,9.0,26.0,44.0,10.0,37.0,10.0,-24.0,-3.0,-28.0,0.0
-23.0,15.0,29.0,42.0,7.0,41.0,17.0,-18.0,1.0,-27.0,0.0
-13.0,11.0,7.0,27.0,7.0,32.0,12.0,-3.0,0.0,-13.0,0.0
-5.0,6.0,-1.0,12.0,7.0,10.0,7.0,0.0,14.0,8.0,0.0
-10.0,4.0,8.0,7.0,2.0,-3.0,15.0,-1.0,37.0,1.0,0.0
-14.0,-3.0,12.0,10.0,4.0,0.0,14.0,11.0,37.0,-8.0,0.0
0.0,23.0,11.0,-8.0,-6.0,-19.0,-20.0,4.0,39.0,-15.0,0.0
14.0,69.0,12.0,-14.0,-22.0,-29.0,-32.0,-13.0,34.0,-21.0,0.0
3.0,68.0,17.0,-5.0,-11.0,-27.0,-10.0,-22.0,40.0,-23.0,0.0
-18.0,43.0,40.0,1.0,0.0,-29.0,-5.0,-18.0,47.0,-15.0,0.0
-27.0,35.0,56.0,-3.0,6.0,-29.0,-6.0,-20.0,45.0,6.0,0.0
-28.0,23.0,35.0,-9.0,4.0,-14.0,-15.0,-13.0,42.0,22.0,0.0
-18.0,26.0,16.0,-15.0,-4.0,-4.0,-12.0,-13.0,36.0,23.0,0.0
-17.0,31.0,10.0,-9.0,-12.0,5.0,-10.0,-28.0,31.0,12.0,0.0
-25.0,29.0,-2.0,6.0,-6.0,16.0,-22.0,-39.0,23.0,-12.0,0.0
-22.0,22.0,-15.0,33.0,3.0,30.0,-18.0,-38.0,13.0,-23.0,0.0
-18.0,23.0,-21.0,20.0,-4.0,35.0,-16.0,-27.0,18.0,-19.0,0.0
-14.0,18.0,-33.0,-4.0,-13.0,24.0,-11.0,-18.0,23.0,-7.0,0.0
-6.0,13.0,-30.0,-16.0,-21.0,13.0,-11.0,-23.0,39.0,7.0,0.0
3.0,15.0,-1.0,-12.0,-21.0,10.0,-9.0,-25.0,43.0,18.0,0.0
1.0,26.0,21.0,-8.0,-17.0,-1.0,-11.0,-22.0,32.0,10.0,0.0
10.0,39.0,31.0,-13.0,-25.0,-12.0,-7.0,-9.0,44.0,8.0,0.0
5.0,39.0,18.0,-2.0,-28.0,-10.0,0.0,-4.0,58.0,9.0,0.0
3.0,42.0,5.0,1.0,-28.0,-7.0,8.0,-6.0,36.0,0.0,0.0
-4.0,18.0,-4.0,-4.0,-13.0,-8.0,3.0,-7.0,40.0,-2.0,0.0
-9.0,9.0,-7.0,-24.0,-2.0,-6.0,14.0,-13.0,41.0,0.0,0.0
-14.0,-1.0,0.0,-42.0,7.0,-8.0,15.0,-12.0,33.0,3.0,0.0
-17.0,15.0,3.0,-55.0,7.0,-13.0,10.0,-8.0,51.0,11.0,0.0
-8.0,25.0,15.0,-46.0,9.0,-3.0,31.0,-8.0,61.0,38.0,0.0
13.0,22.0,9.0,-26.0,8.0,2.0,31.0,3.0,58.0,38.0,0.0
2.0,2.0,14.0,-21.0,6.0,0.0,16.0,2.0,42.0,3.0,0.0
-15.0,-7.0,22.0,-19.0,6.0,15.0,13.0,-8.0,37.0,-25.0,0.0
-18.0,-4.0,22.0,-10.0,18.0,29.0,10.0,-4.0,34.0,-38.0,0.0
-10.0,4.0,34.0,3.0,22.0,26.0,2.0,-13.0,38.0,-32.0,0.0
-15.0,5.0,28.0,-1.0,16.0,28.0,3.0,-28.0,44.0,-27.0,0.0
-13.0,0.0,15.0,-1.0,10.0,17.0,12.0,-25.0,42.0,-20.0,0.0
-20.0,-11.0,6.0,3.0,4.0,7.0,20.0,-15.0,45.0,-8.0,0.0
-13.0,-10.0,2.0,-8.0,-6.0,-1.0,25.0,-13.0,53.0,-5.0,0.0
-6.0,-6.0,9.0,-22.0,-4.0,-14.0,24.0,-9.0,44.0,-3.0,0.0
3.0,3.0,13.0,-28.0,-1.0,-11.0,24.0,-9.0,41.0,10.0,0.0
2.0,17.0,10.0,-25.0,6.0,-1.0,21.0,-7.0,32.0,8.0,0.0
-1.0,24.0,7.0,-15.0,3.0,-2.0,18.0,-4.0,39.0,0.0,0.0
-6.0,22.0,8.0,-12.0,1.0,-5.0,25.0,-12.0,34.0,4.0,0.0
-1.0,29.0,9.0,-14.0,-1.0,-11.0,22.0,-17.0,48.0,15.0,0.0
0.0,35.0,0.0,-6.0,-4.0,-14.0,32.0,-20.0,56.0,24.0,0.0
-7.0,29.0,-9.0,-11.0,-1.0,-15.0,31.0,-6.0,66.0,25.0,0.0
-24.0,19.0,-5.0,-10.0,-2.0,-9.0,26.0,0.0,58.0,7.0,0.0
-25.0,17.0,6.0,-7.0,-4.0,11.0,7.0,-9.0,33.0,-10.0,0.0
-23.0,8.0,20.0,7.0,7.0,21.0,0.0,-20.0,22.0,-14.0,0.0
-23.0,-9.0,20.0,18.0,20.0,32.0,-4.0,-21.0,22.0,-9.0,0.0
-14.0,-20.0,8.0,15.0,25.0,21.0,-2.0,-16.0,24.0,-7.0,0.0
-4.0,-18.0,-3.0,8.0,10.0,13.0,-8.0,-7.0,27.0,4.0,0.0
-12.0,-10.0,6.0,18.0,9.0,12.0,-19.0,-8.0,27.0,11.0,0.0
-12.0,-2.0,31.0,26.0,12.0,4.0,-12.0,-12.0,29.0,11.0,0.0
0.0,8.0,45.0,35.0,9.0,4.0,0.0,-5.0,31.0,4.0,0.0
13.0,14.0,48.0,29.0,17.0,0.0,0.0,-6.0,27.0,11.0,0.0
8.0,14.0,35.0,16.0,9.0,1.0,2.0,-8.0,17.0,31.0,0.0
11.0,0.0,5.0,1.0,-4.0,-3.0,0.0,-17.0,10.0,42.0,0.0
2.0,-17.0,-18.0,0.0,3.0,-3.0,1.0,-18.0,21.0,31.0,0.0
-16.0,-52.0,-39.0,-6.0,13.0,-3.0,9.0,-13.0,16.0,13.0,0.0
-5.0,-57.0,-52.0,-3.0,9.0,5.0,9.0,-12.0,24.0,7.0,0.0
26.0,-18.0,-40.0,-2.0,3.0,13.0,16.0,-8.0,34.0,20.0,0.0
26.0,3.0,-19.0,-10.0,5.0,18.0,21.0,-6.0,32.0,18.0,0.0
10.0,-2.0,-1.0,-13.0,11.0,27.0,24.0,0.0,25.0,12.0,0.0
-20.0,-9.0,14.0,14.0,23.0,48.0,26.0,-5.0,11.0,13.0,0.0
-39.0,-20.0,20.0,26.0,21.0,59.0,27.0,-2.0,0.0,-4.0,0.0
-47.0,-22.0,15.0,28.0,18.0,72.0,21.0,-15.0,-9.0,-21.0,0.0
-45.0,-13.0,14.0,55.0,12.0,65.0,19.0,-9.0,-13.0,-27.0,0.0
-39.0,-6.0,14.0,63.0,22.0,59.0,21.0,-8.0,-12.0,-25.0,0.0
-37.0,-17.0,0.0,48.0,18.0,41.0,21.0,-12.0,-6.0,-26.0,0.0
-30.0,-16.0,-12.0,26.0,-4.0,16.0,18.0,-7.0,3.0,2.0,0.0
1.0,-1.0,-15.0,5.0,-14.0,-3.0,15.0,-4.0,20.0,35.0,0.0
-2.0,7.0,-6.0,7.0,-22.0,4.0,8.0,-6.0,22.0,38.0,0.0
0.0,4.0,-1.0,14.0,-23.0,0.0,-3.0,-1.0,14.0,29.0,0.0
-3.0,-16.0,-12.0,8.0,-10.0,-5.0,3.0,15.0,17.0,30.0,0.0
-11.0,-19.0,-17.0,-1.0,3.0,-10.0,14.0,18.0,16.0,23.0,0.0
-14.0,-7.0,-4.0,6.0,3.0,-17.0,8.0,8.0,3.0,8.0,0.0
-5.0,-1.0,5.0,15.0,-4.0,-12.0,6.0,7.0,3.0,18.0,0.0
2.0,2.0,10.0,17.0,0.0,-6.0,10.0,4.0,3.0,28.0,0.0
-5.0,5.0,3.0,18.0,3.0,0.0,23.0,6.0,2.0,6.0,0.0
-18.0,-6.0,6.0,21.0,10.0,7.0,17.0,0.0,-2.0,-4.0,0.0
-13.0,3.0,17.0,26.0,10.0,14.0,13.0,-11.0,-11.0,-3.0,0.0
-11.0,6.0,25.0,24.0,16.0,22.0,10.0,-16.0,-5.0,-4.0,0.0
-23.0,2.0,26.0,22.0,15.0,31.0,14.0,-11.0,-4.0,-12.0,0.0
-36.0,-9.0,26.0,22.0,6.0,27.0,15.0,-6.0,-22.0,-9.0,0.0
-46.0,-30.0,8.0,32.0,11.0,33.0,25.0,-6.0,-31.0,-20.0,0.0
-36.0,-40.0,-11.0,38.0,15.0,21.0,21.0,-1.0,-42.0,-17.0,0.0
-7.0,-44.0,-14.0,23.0,5.0,5.0,17.0,8.0,-28.0,7.0,0.0
-2.0,-46.0,-15.0,12.0,-6.0,-9.0,23.0,18.0,-7.0,26.0,0.0
3.0,-53.0,-3.0,7.0,-3.0,-10.0,22.0,16.0,4.0,28.0,0.0
35.0,-25.0,9.0,1.0,-14.0,-33.0,-1.0,-1.0,-4.0,37.0,0.0
69.0,26.0,20.0,0.0,-24.0,-52.0,-19.0,-17.0,1.0,45.0,0.0
83.0,63.0,28.0,-5.0,-22.0,-54.0,-34.0,-18.0,0.0,45.0,0.0
64.0,47.0,36.0,15.0,-14.0,-46.0,-27.0,-21.0,-3.0,37.0,0.0
27.0,8.0,29.0,30.0,1.0,-31.0,-15.0,-7.0,-1.0,27.0,0.0
2.0,8.0,33.0,8.0,14.0,-13.0,4.0,-8.0,5.0,44.0,0.0
4.0,18.0,40.0,-22.0,20.0,-18.0,2.0,-23.0,7.0,29.0,0.0
7.0,31.0,59.0,-23.0,1.0,-12.0,-13.0,-23.0,-6.0,34.0,0.0
6.0,49.0,55.0,-21.0,-12.0,6.0,-9.0,-28.0,-8.0,33.0,0.0
8.0,50.0,46.0,-26.0,-10.0,15.0,-3.0,-35.0,-10.0,15.0,0.0
5.0,46.0,39.0,-25.0,-1.0,17.0,3.0,-23.0,-4.0,20.0,0.0
-10.0,24.0,10.0,-19.0,4.0,16.0,9.0,0.0,0.0,31.0,0.0
-23.0,-2.0,-32.0,-16.0,15.0,13.0,17.0,3.0,6.0,35.0,0.0
-13.0,3.0,-49.0,-26.0,26.0,-3.0,15.0,0.0,2.0,33.0,0.0
11.0,15.0,-42.0,-35.0,23.0,-9.0,18.0,3.0,6.0,45.0,0.0
24.0,24.0,-34.0,-24.0,14.0,-13.0,14.0,10.0,5.0,38.0,0.0
30.0,34.0,0.0,-23.0,11.0,-24.0,10.0,10.0,2.0,24.0,0.0
34.0,37.0,11.0,-18.0,7.0,-33.0,13.0,-4.0,6.0,9.0,0.0
18.0,18.0,-7.0,-19.0,1.0,-25.0,17.0,-6.0,0.0,11.0,0.0
8.0,3.0,-24.0,-32.0,-3.0,-18.0,20.0,1.0,0.0,31.0,0.0
12.0,14.0,-12.0,-13.0,-15.0,-22.0,9.0,5.0,-6.0,29.0,0.0
12.0,27.0,-4.0,-6.0,-20.0,-33.0,3.0,-3.0,0.0,20.0,0.0
11.0,24.0,0.0,-24.0,-9.0,-33.0,3.0,-16.0,10.0,22.0,0.0
8.0,16.0,0.0,-17.0,-2.0,-18.0,-1.0,-11.0,18.0,31.0,0.0
0.0,4.0,1.0,4.0,5.0,-5.0,2.0,-16.0,5.0,37.0,0.0
-5.0,-20.0,11.0,26.0,13.0,9.0,7.0,-21.0,-7.0,28.0,0.0
-4.0,-31.0,11.0,34.0,12.0,13.0,-2.0,-26.0,-2.0,6.0,0.0
-5.0,-10.0,15.0,29.0,10.0,22.0,-4.0,-24.0,-10.0,3.0,0.0
-1.0,7.0,16.0,6.0,0.0,13.0,0.0,-16.0,-8.0,-1.0,0.0
4.0,17.0,10.0,-3.0,5.0,-4.0,0.0,-21.0,-17.0,2.0,0.0
4.0,11.0,3.0,-6.0,13.0,-12.0,4.0,-14.0,-12.0,-7.0,0.0
5.0,9.0,0.0,-13.0,4.0,-8.0,8.0,0.0,-9.0,2.0,0.0
1.0,20.0,1.0,1.0,-2.0,-4.0,9.0,-1.0,1.0,7.0,0.0
-5.0,23.0,-3.0,24.0,7.0,-10.0,9.0,-11.0,3.0,6.0,0.0
-8.0,14.0,-10.0,30.0,13.0,-12.0,11.0,-11.0,8.0,11.0,0.0
-8.0,-2.0,-11.0,25.0,8.0,-7.0,0.0,-14.0,0.0,6.0,0.0
4.0,-2.0,-2.0,9.0,4.0,-1.0,-7.0,-2.0,-5.0,6.0,0.0
6.0,22.0,8.0,1.0,-3.0,-6.0,-5.0,-9.0,-5.0,18.0,0.0
6.0,25.0,18.0,1.0,-9.0,-2.0,-3.0,-15.0,6.0,28.0,0.0
2.0,19.0,24.0,8.0,-15.0,0.0,-10.0,-16.0,4.0,10.0,0.0
-7.0,31.0,24.0,23.0,-11.0,3.0,-12.0,-18.0,4.0,0.0,0.0
-4.0,29.0,25.0,31.0,0.0,17.0,-9.0,-23.0,4.0,-15.0,0.0
-9.0,15.0,14.0,14.0,1.0,23.0,-11.0,-21.0,3.0,-3.0,0.0
-3.0,8.0,19.0,2.0,17.0,43.0,0.0,-23.0,15.0,-5.0,0.0
-3.0,17.0,21.0,14.0,21.0,54.0,7.0,-10.0,12.0,-8.0,0.0
-5.0,16.0,16.0,1.0,16.0,42.0,4.0,0.0,12.0,-10.0,0.0
-2.0,18.0,15.0,-1.0,10.0,24.0,4.0,5.0,18.0,-16.0,0.0
6.0,14.0,16.0,15.0,19.0,15.0,12.0,4.0,14.0,-11.0,0.0
9.0,27.0,9.0,10.0,16.0,11.0,15.0,10.0,1.0,-14.0,0.0
15.0,27.0,0.0,-10.0,12.0,10.0,7.0,14.0,6.0,7.0,0.0
8.0,7.0,-22.0,-13.0,21.0,6.0,9.0,20.0,18.0,24.0,0.0
7.0,3.0,-25.0,-3.0,28.0,1.0,21.0,17.0,25.0,38.0,0.0
12.0,27.0,-4.0,0.0,18.0,1.0,27.0,14.0,45.0,60.0,0.0
25.0,36.0,6.0,-3.0,15.0,-4.0,30.0,15.0,56.0,62.0,0.0
25.0,32.0,12.0,-1.0,24.0,-2.0,31.0,20.0,48.0,50.0,0.0
12.0,28.0,18.0,6.0,31.0,10.0,23.0,23.0,44.0,37.0,0.0
6.0,28.0,32.0,6.0,23.0,19.0,13.0,14.0,40.0,22.0,0.0
-1.0,29.0,61.0,23.0,18.0,35.0,-4.0,-2.0,36.0,14.0,0.0
-8.0,24.0,89.0,41.0,22.0,51.0,0.0,-10.0,24.0,8.0,0.0
-6.0,26.0,95.0,47.0,27.0,58.0,0.0,-17.0,19.0,-7.0,0.0
-13.0,18.0,72.0,47.0,36.0,79.0,5.0,-19.0,26.0,-8.0,0.0
0.0,36.0,57.0,43.0,29.0,70.0,5.0,-16.0,29.0,7.0,0.0
24.0,64.0,36.0,28.0,11.0,41.0,-6.0,-14.0,25.0,0.0,0.0
25.0,46.0,-3.0,18.0,22.0,27.0,7.0,-20.0,31.0,-2.0,0.0
21.0,20.0,-29.0,-4.0,24.0,17.0,16.0,-16.0,41.0,13.0,0.0
19.0,14.0,-44.0,-27.0,11.0,13.0,4.0,-1.0,53.0,29.0,0.0
10.0,16.0,-26.0,-28.0,2.0,16.0,1.0,-13.0,46.0,29.0,0.0
2.0,12.0,6.0,-20.0,7.0,20.0,12.0,-18.0,44.0,18.0,0.0
1.0,19.0,12.0,-7.0,12.0,31.0,21.0,-8.0,57.0,9.0,0.0
0.0,20.0,-2.0,-8.0,14.0,22.0,24.0,-3.0,55.0,3.0,0.0
-4.0,14.0,-5.0,1.0,13.0,11.0,28.0,6.0,53.0,-2.0,0.0
-15.0,9.0,5.0,7.0,15.0,13.0,16.0,12.0,42.0,-10.0,0.0
-29.0,3.0,0.0,10.0,17.0,17.0,-3.0,5.0,39.0,-23.0,0.0
-19.0,-3.0,-9.0,15.0,8.0,20.0,-18.0,2.0,29.0,-30.0,0.0
-22.0,-18.0,-9.0,9.0,-4.0,33.0,-20.0,1.0,25.0,-41.0,0.0
-28.0,-3.0,-18.0,21.0,0.0,40.0,-15.0,1.0,38.0,-36.0,0.0
-29.0,-5.0,-17.0,7.0,3.0,43.0,-8.0,5.0,52.0,-31.0,0.0
-31.0,-9.0,-6.0,-8.0,3.0,47.0,5.0,10.0,53.0,-32.0,0.0
-17.0,18.0,33.0,-7.0,3.0,47.0,1.0,-7.0,37.0,-20.0,0.0
-2.0,50.0,78.0,5.0,2.0,29.0,-9.0,-12.0,26.0,-32.0,0.0
-3.0,57.0,91.0,-1.0,9.0,4.0,-20.0,-11.0,20.0,-36.0,0.0
2.0,43.0,69.0,2.0,21.0,-5.0,-20.0,-16.0,13.0,-21.0,0.0
14.0,21.0,65.0,-4.0,15.0,-5.0,-13.0,-19.0,14.0,-20.0,0.0
38.0,24.0,43.0,-14.0,-2.0,10.0,-13.0,-21.0,21.0,5.0,0.0
37.0,30.0,8.0,-14.0,-19.0,-5.0,-15.0,-12.0,28.0,20.0,0.0
9.0,6.0,-21.0,-8.0,-14.0,-20.0,-17.0,-10.0,31.0,18.0,0.0
-14.0,-4.0,-19.0,-2.0,-8.0,-15.0,-10.0,-9.0,36.0,8.0,0.0
-3.0,9.0,-6.0,-15.0,-10.0,-4.0,-2.0,-9.0,43.0,18.0,0.0
2.0,15.0,8.0,-16.0,-9.0,-4.0,9.0,-16.0,44.0,17.0,0.0
-5.0,30.0,27.0,-10.0,-13.0,-4.0,20.0,-13.0,32.0,13.0,0.0
-17.0,33.0,40.0,6.0,-6.0,5.0,22.0,-15.0,18.0,0.0,0.0
-21.0,31.0,41.0,18.0,4.0,16.0,26.0,-23.0,14.0,-3.0,0.0
-20.0,13.0,15.0,39.0,18.0,30.0,27.0,-27.0,9.0,-6.0,0.0
-23.0,8.0,-1.0,31.0,21.0,42.0,27.0,-23.0,8.0,5.0,0.0
-14.0,-5.0,-37.0,18.0,26.0,38.0,29.0,-3.0,14.0,14.0,0.0
0.0,-5.0,-49.0,-11.0,15.0,34.0,35.0,9.0,22.0,12.0,0.0
-14.0,-5.0,-25.0,-38.0,0.0,25.0,23.0,11.0,30.0,-3.0,0.0
-24.0,-10.0,-8.0,-40.0,2.0,9.0,12.0,14.0,36.0,2.0,0.0
-24.0,-13.0,-15.0,-30.0,-2.0,-8.0,7.0,23.0,34.0,14.0,0.0
-25.0,-22.0,-14.0,-5.0,-16.0,-13.0,6.0,8.0,37.0,24.0,0.0
-11.0,-6.0,-13.0,0.0,-27.0,-15.0,4.0,-4.0,26.0,17.0,0.0
-3.0,7.0,-17.0,-2.0,-34.0,-21.0,-12.0,-19.0,25.0,18.0,0.0
-12.0,2.0,-11.0,-11.0,-29.0,-29.0,-6.0,-18.0,28.0,22.0,0.0
-12.0,-2.0,-5.0,-14.0,-12.0,-21.0,10.0,-11.0,39.0,19.0,0.0
-10.0,-18.0,0.0,-2.0,-6.0,-13.0,7.0,-17.0,43.0,17.0,0.0
-9.0,-19.0,16.0,9.0,-7.0,-16.0,-10.0,-24.0,35.0,34.0,0.0
4.0,-6.0,27.0,11.0,-7.0,-26.0,-22.0,-29.0,30.0,53.0,0.0
19.0,39.0,46.0,14.0,-20.0,-25.0,-31.0,-31.0,21.0,46.0,0.0
14.0,78.0,55.0,16.0,-3.0,-1.0,-26.0,-25.0,10.0,25.0,0.0
7.0,73.0,44.0,25.0,5.0,14.0,-13.0,-13.0,17.0,15.0,0.0
13.0,42.0,30.0,22.0,1.0,14.0,-5.0,-17.0,22.0,13.0,0.0
21.0,31.0,34.0,16.0,0.0,27.0,0.0,-16.0,24.0,10.0,0.0
19.0,25.0,30.0,7.0,-5.0,30.0,7.0,-8.0,25.0,18.0,0.0
13.0,30.0,24.0,-3.0,-8.0,7.0,0.0,-3.0,21.0,15.0,0.0
9.0,35.0,28.0,-8.0,-5.0,-6.0,-9.0,3.0,23.0,12.0,0.0
6.0,32.0,26.0,-15.0,-14.0,-21.0,-9.0,17.0,35.0,14.0,0.0
0.0,30.0,31.0,-17.0,-8.0,-25.0,-3.0,11.0,35.0,14.0,0.0
-2.0,14.0,33.0,-13.0,-6.0,-24.0,-1.0,3.0,22.0,19.0,0.0
-1.0,8.0,42.0,-1.0,12.0,-27.0,-3.0,-6.0,8.0,15.0,0.0
-11.0,0.0,37.0,-13.0,21.0,-36.0,4.0,-5.0,8.0,15.0,0.0
-15.0,-15.0,20.0,-28.0,4.0,-38.0,15.0,-5.0,10.0,21.0,0.0
-7.0,-22.0,11.0,-41.0,0.0,-45.0,15.0,0.0,10.0,21.0,0.0
14.0,-4.0,3.0,-39.0,-5.0,-45.0,9.0,-4.0,1.0,19.0,0.0
17.0,3.0,-7.0,-39.0,-7.0,-40.0,0.0,-12.0,-3.0,12.0,0.0
-7.0,-18.0,11.0,-31.0,-7.0,-22.0,1.0,-21.0,0.0,-5.0,0.0
-30.0,-32.0,16.0,-19.0,-3.0,2.0,8.0,-17.0,-10.0,-10.0,0.0
-34.0,-18.0,13.0,-1.0,2.0,15.0,8.0,-17.0,-19.0,-9.0,0.0
-33.0,-13.0,16.0,17.0,0.0,9.0,11.0,-20.0,-16.0,-5.0,0.0
-33.0,-11.0,20.0,28.0,0.0,5.0,16.0,-20.0,-20.0,4.0,0.0
-21.0,-2.0,25.0,21.0,-7.0,1.0,18.0,-14.0,-9.0,13.0,0.0
-2.0,2.0,27.0,24.0,-13.0,-5.0,2.0,-19.0,0.0,22.0,0.0
6.0,7.0,25.0,13.0,-5.0,-15.0,-3.0,-13.0,5.0,26.0,0.0
9.0,10.0,13.0,-2.0,-1.0,-20.0,-3.0,-23.0,10.0,10.0,0.0
14.0,10.0,18.0,-2.0,1.0,-15.0,-6.0,-21.0,16.0,4.0,0.0
32.0,31.0,11.0,5.0,2.0,-19.0,1.0,-13.0,14.0,0.0,0.0
40.0,35.0,-1.0,5.0,10.0,-18.0,12.0,-16.0,25.0,4.0,0.0
37.0,15.0,-5.0,-1.0,4.0,-16.0,8.0,-13.0,30.0,24.0,0.0
39.0,14.0,11.0,-12.0,-2.0,-7.0,17.0,-15.0,23.0,19.0,0.0
27.0,28.0,25.0,-17.0,-7.0,-6.0,13.0,-17.0,14.0,20.0,0.0
24.0,37.0,14.0,-14.0,-10.0,-16.0,3.0,-16.0,0.0,20.0,0.0
12.0,31.0,17.0,-8.0,0.0,-12.0,-1.0,-32.0,-14.0,8.0,0.0
-1.0,26.0,21.0,13.0,9.0,10.0,-2.0,-40.0,-19.0,6.0,0.0
-11.0,12.0,30.0,15.0,13.0,24.0,-2.0,-29.0,-15.0,-1.0,0.0
-24.0,11.0,16.0,19.0,10.0,22.0,6.0,-19.0,-20.0,-13.0,0.0
-25.0,8.0,8.0,28.0,12.0,22.0,16.0,-16.0,-16.0,-12.0,0.0
-19.0,2.0,11.0,35.0,16.0,29.0,30.0,-23.0,-10.0,-17.0,0.0
-14.0,5.0,11.0,25.0,26.0,28.0,29.0,-11.0,-2.0,-12.0,0.0
-14.0,-7.0,-1.0,5.0,27.0,8.0,27.0,3.0,13.0,-1.0,0.0
-16.0,-12.0,-13.0,0.0,25.0,3.0,30.0,20.0,24.0,0.0,0.0
-20.0,-14.0,-3.0,-6.0,28.0,8.0,26.0,25.0,23.0,-7.0,0.0
-22.0,-17.0,7.0,-6.0,22.0,20.0,18.0,15.0,11.0,-15.0,0.0
-21.0,-13.0,16.0,-2.0,14.0,25.0,14.0,17.0,14.0,-26.0,0.0
-11.0,24.0,33.0,-1.0,18.0,3.0,6.0,8.0,19.0,-26.0,0.0
1.0,35.0,33.0,-5.0,21.0,0.0,-9.0,-2.0,9.0,-15.0,0.0
1.0,29.0,37.0,-28.0,16.0,9.0,-2.0,-4.0,-2.0,-13.0,0.0
-7.0,16.0,19.0,-36.0,17.0,7.0,5.0,0.0,-5.0,-6.0,0.0
-8.0,-3.0,0.0,-44.0,20.0,9.0,7.0,13.0,7.0,1.0,0.0
2.0,2.0,-7.0,-26.0,14.0,21.0,-2.0,10.0,8.0,15.0,0.0
-16.0,15.0,-10.0,-10.0,13.0,23.0,2.0,1.0,0.0,18.0,0.0
-16.0,13.0,-12.0,-10.0,28.0,20.0,4.0,-9.0,-1.0,4.0,0.0
-3.0,11.0,-34.0,-22.0,26.0,30.0,9.0,-23.0,-8.0,0.0,0.0
3.0,18.0,-40.0,-11.0,15.0,36.0,17.0,-23.0,-10.0,-7.0,0.0
-2.0,6.0,-29.0,-4.0,7.0,20.0,14.0,-24.0,-7.0,-11.0,0.0
-1.0,14.0,-30.0,-14.0,2.0,0.0,13.0,-12.0,11.0,1.0,0.0
9.0,30.0,-25.0,-22.0,-6.0,-18.0,9.0,-25.0,17.0,17.0,0.0
11.0,27.0,-26.0,-20.0,-17.0,-32.0,2.0,-24.0,12.0,20.0,0.0
6.0,24.0,-16.0,-7.0,-9.0,-29.0,-9.0,-21.0,10.0,15.0,0.0
0.0,27.0,-13.0,-2.0,-10.0,-21.0,-10.0,-20.0,9.0,18.0,0.0
0.0,16.0,-16.0,-9.0,-10.0,-27.0,-1.0,-11.0,7.0,30.0,0.0
-3.0,14.0,-17.0,-1.0,-12.0,-23.0,4.0,-1.0,5.0,24.0,0.0
-27.0,6.0,0.0,1.0,-11.0,-20.0,11.0,0.0,-2.0,29.0,0.0
-23.0,1.0,19.0,4.0,-5.0,-15.0,20.0,-3.0,7.0,32.0,0.0
-23.0,26.0,39.0,-12.0,-7.0,-14.0,21.0,2.0,14.0,10.0,0.0
-13.0,62.0,47.0,-14.0,-4.0,-10.0,17.0,-19.0,11.0,-7.0,0.0
-15.0,48.0,53.0,0.0,-2.0,1.0,20.0,-29.0,5.0,-15.0,0.0
-41.0,14.0,50.0,9.0,7.0,26.0,22.0,-24.0,1.0,-7.0,0.0
-48.0,8.0,30.0,26.0,22.0,45.0,18.0,-9.0,10.0,-13.0,0.0
-32.0,12.0,-7.0,19.0,13.0,41.0,9.0,-3.0,8.0,-10.0,0.0
-11.0,18.0,-24.0,-1.0,-7.0,32.0,6.0,0.0,12.0,2.0,0.0
0.0,37.0,-22.0,-10.0,-12.0,17.0,6.0,-1.0,18.0,8.0,0.0
1.0,39.0,-31.0,7.0,-1.0,8.0,6.0,3.0,17.0,8.0,0.0
0.0,20.0,-46.0,5.0,4.0,0.0,7.0,22.0,22.0,12.0,0.0
9.0,11.0,-45.0,-11.0,3.0,-12.0,16.0,19.0,31.0,14.0,0.0
19.0,10.0,-43.0,-15.0,-6.0,-8.0,13.0,13.0,36.0,16.0,0.0
6.0,21.0,-25.0,-15.0,-16.0,-14.0,14.0,13.0,31.0,2.0,0.0
13.0,15.0,-12.0,-25.0,-25.0,-30.0,15.0,2.0,16.0,1.0,0.0
14.0,18.0,-13.0,-38.0,-20.0,-29.0,23.0,-11.0,29.0,8.0,0.0
7.0,15.0,-3.0,-32.0,-17.0,-17.0,15.0,-14.0,14.0,11.0,0.0
11.0,26.0,8.0,-14.0,-20.0,-8.0,4.0,-11.0,10.0,18.0,0.0
0.0,13.0,-7.0,-15.0,-8.0,-2.0,10.0,-13.0,20.0,18.0,0.0
-5.0,-16.0,-21.0,-26.0,-1.0,24.0,8.0,-10.0,17.0,15.0,0.0
-8.0,-11.0,1.0,-8.0,8.0,33.0,-3.0,-29.0,-1.0,6.0,0.0
-6.0,-4.0,15.0,15.0,3.0,32.0,-3.0,-33.0,1.0,1.0,0.0
-5.0,-10.0,30.0,15.0,-3.0,32.0,0.0,-42.0,14.0,4.0,0.0
-8.0,0.0,48.0,15.0,-2.0,25.0,-4.0,-44.0,23.0,-2.0,0.0
-8.0,12.0,63.0,9.0,-1.0,18.0,-1.0,-35.0,28.0,1.0,0.0
-18.0,15.0,90.0,-20.0,-9.0,11.0,-1.0,-36.0,21.0,9.0,0.0
-26.0,4.0,96.0,-27.0,-7.0,3.0,0.0,-28.0,25.0,9.0,0.0
-30.0,-2.0,92.0,-40.0,-18.0,2.0,-4.0,-21.0,26.0,-2.0,0.0
-26.0,-7.0,89.0,-32.0,-17.0,1.0,-11.0,-31.0,17.0,-14.0,0.0
-22.0,-4.0,75.0,-14.0,-11.0,-12.0,-15.0,-44.0,9.0,-19.0,0.0
-4.0,24.0,59.0,-15.0,-18.0,-18.0,-22.0,-42.0,10.0,0.0,0.0
12.0,24.0,32.0,-42.0,-24.0,-15.0,-18.0,-34.0,28.0,8.0,0.0
-2.0,-28.0,-5.0,-32.0,-17.0,-8.0,-2.0,-9.0,34.0,10.0,0.0
-35.0,-75.0,-7.0,6.0,-2.0,-13.0,-1.0,-7.0,32.0,-12.0,0.0
-36.0,-48.0,-1.0,27.0,0.0,-19.0,-4.0,-8.0,29.0,-13.0,0.0
-22.0,-24.0,-4.0,28.0,-4.0,-25.0,-14.0,-9.0,21.0,18.0,0.0
5.0,-2.0,-5.0,20.0,-15.0,-18.0,-17.0,-26.0,10.0,36.0,0.0
22.0,8.0,3.0,29.0,-27.0,-2.0,-8.0,-38.0,7.0,42.0,0.0
12.0,-3.0,0.0,44.0,-20.0,3.0,-15.0,-34.0,6.0,34.0,0.0
0.0,-36.0,-16.0,55.0,-11.0,22.0,0.0,-29.0,5.0,4.0,0.0
-16.0,-66.0,-20.0,35.0,12.0,41.0,15.0,-25.0,9.0,-20.0,0.0
-3.0,-37.0,-9.0,16.0,9.0,28.0,16.0,-15.0,15.0,-11.0,0.0
29.0,32.0,15.0,-3.0,-18.0,-4.0,3.0,-12.0,24.0,15.0,0.0
47.0,61.0,6.0,-23.0,-16.0,-14.0,1.0,-15.0,26.0,28.0,0.0
27.0,33.0,2.0,-13.0,-13.0,-11.0,4.0,-12.0,21.0,15.0,0.0
3.0,4.0,10.0,9.0,-9.0,-2.0,7.0,-5.0,19.0,8.0,0.0
-4.0,-6.0,5.0,15.0,-7.0,10.0,13.0,-1.0,33.0,8.0,0.0
-7.0,-15.0,5.0,5.0,-10.0,6.0,8.0,-4.0,38.0,4.0,0.0
-5.0,-16.0,-4.0,7.0,-14.0,4.0,13.0,-3.0,42.0,4.0,0.0
-2.0,-20.0,0.0,20.0,-7.0,0.0,13.0,-12.0,40.0,17.0,0.0
-10.0,-7.0,5.0,30.0,-11.0,7.0,12.0,-11.0,34.0,23.0,0.0
-10.0,-11.0,-1.0,26.0,-13.0,1.0,6.0,-15.0,43.0,3.0,0.0
-12.0,-8.0,-5.0,27.0,-7.0,11.0,11.0,-11.0,41.0,0.0,0.0
-13.0,-3.0,14.0,42.0,1.0,27.0,16.0,-12.0,36.0,-11.0,0.0
-16.0,1.0,30.0,57.0,4.0,39.0,5.0,-15.0,21.0,-12.0,0.0
-10.0,2.0,51.0,58.0,11.0,34.0,-9.0,-19.0,18.0,-13.0,0.0
-8.0,9.0,65.0,45.0,15.0,33.0,-11.0,-26.0,31.0,-14.0,0.0
-2.0,3.0,72.0,36.0,9.0,38.0,-14.0,-36.0,35.0,-4.0,0.0
5.0,-9.0,68.0,32.0,18.0,28.0,-9.0,-31.0,36.0,13.0,0.0
-2.0,-19.0,67.0,28.0,10.0,14.0,-2.0,-21.0,30.0,30.0,0.0
-10.0,-17.0,73.0,23.0,9.0,-8.0,-2.0,-10.0,23.0,45.0,0.0
10.0,13.0,70.0,0.0,6.0,-21.0,-9.0,-17.0,22.0,45.0,0.0
37.0,79.0,67.0,-24.0,-11.0,-28.0,-22.0,-33.0,13.0,38.0,0.0
48.0,120.0,57.0,-35.0,-11.0,-30.0,-23.0,-27.0,19.0,30.0,0.0
29.0,86.0,34.0,-25.0,6.0,-17.0,-6.0,-3.0,30.0,29.0,0.0
4.0,18.0,6.0,-7.0,24.0,-2.0,11.0,6.0,35.0,30.0,0.0
2.0,0.0,-4.0,-4.0,28.0,2.0,10.0,7.0,41.0,23.0,0.0
1.0,4.0,-6.0,-11.0,24.0,-2.0,8.0,12.0,42.0,17.0,0.0
1.0,6.0,-1.0,-2.0,29.0,2.0,18.0,7.0,27.0,2.0,0.0
6.0,16.0,53.0,18.0,37.0,18.0,14.0,-11.0,9.0,-15.0,0.0
4.0,13.0,91.0,24.0,29.0,35.0,14.0,-19.0,-9.0,-23.0,0.0
-9.0,6.0,82.0,33.0,20.0,33.0,15.0,-15.0,-8.0,-22.0,0.0
0.0,12.0,60.0,58.0,16.0,30.0,14.0,-21.0,-6.0,-20.0,0.0
18.0,33.0,41.0,52.0,12.0,29.0,0.0,-13.0,5.0,-26.0,0.0
31.0,22.0,26.0,60.0,18.0,33.0,4.0,-12.0,12.0,-14.0,0.0
33.0,-9.0,2.0,68.0,35.0,33.0,15.0,-9.0,22.0,-9.0,0.0
27.0,-17.0,-4.0,49.0,30.0,23.0,15.0,3.0,31.0,4.0,0.0
30.0,-13.0,-25.0,26.0,16.0,3.0,19.0,8.0,32.0,26.0,0.0
29.0,-18.0,-12.0,30.0,5.0,-5.0,24.0,-3.0,28.0,32.0,0.0
35.0,-6.0,19.0,34.0,9.0,-14.0,16.0,-9.0,41.0,46.0,0.0
45.0,5.0,30.0,13.0,6.0,-9.0,20.0,1.0,43.0,60.0,0.0
67.0,27.0,26.0,2.0,8.0,-10.0,18.0,3.0,27.0,52.0,0.0
71.0,47.0,41.0,13.0,0.0,-20.0,1.0,-15.0,13.0,37.0,0.0
58.0,44.0,37.0,0.0,-5.0,-29.0,-4.0,-26.0,8.0,39.0,0.0
45.0,28.0,22.0,-8.0,-2.0,-17.0,-5.0,-16.0,6.0,35.0,0.0
41.0,2.0,18.0,0.0,0.0,-24.0,3.0,-11.0,2.0,37.0,0.0
26.0,-1.0,43.0,17.0,6.0,-9.0,-5.0,-14.0,-1.0,16.0,0.0
26.0,1.0,70.0,27.0,1.0,1.0,-5.0,-22.0,-8.0,0.0,0.0
10.0,-8.0,74.0,25.0,9.0,0.0,-3.0,-20.0,-23.0,-2.0,0.0
0.0,-8.0,63.0,36.0,25.0,4.0,-8.0,-21.0,-18.0,-5.0,0.0
7.0,-1.0,54.0,29.0,22.0,0.0,3.0,-13.0,-11.0,-12.0,0.0
12.0,-3.0,47.0,12.0,11.0,1.0,12.0,-4.0,1.0,-10.0,0.0
18.0,-6.0,42.0,13.0,3.0,0.0,12.0,-14.0,5.0,-3.0,0.0
0.0,-6.0,38.0,11.0,-5.0,-6.0,0.0,-17.0,10.0,1.0,0.0
0.0,0.0,48.0,4.0,0.0,-1.0,7.0,-18.0,8.0,-6.0,0.0
4.0,11.0,62.0,17.0,5.0,-15.0,5.0,-24.0,0.0,-8.0,0.0
5.0,38.0,71.0,20.0,8.0,-29.0,6.0,-28.0,-5.0,0.0,0.0
0.0,39.0,81.0,24.0,5.0,-24.0,7.0,-27.0,-3.0,8.0,0.0
-4.0,29.0,67.0,19.0,5.0,-14.0,16.0,-19.0,-3.0,22.0,0.0
1.0,7.0,52.0,-1.0,5.0,-9.0,27.0,-6.0,-2.0,26.0,0.0
18.0,-6.0,17.0,-29.0,0.0,-7.0,35.0,10.0,7.0,28.0,0.0
22.0,-5.0,8.0,-15.0,5.0,3.0,33.0,4.0,15.0,21.0,0.0
16.0,-5.0,12.0,-6.0,17.0,11.0,26.0,-8.0,13.0,6.0,0.0
6.0,-17.0,-9.0,-8.0,16.0,20.0,8.0,-6.0,-1.0,-10.0,0.0
-2.0,-9.0,-5.0,-14.0,3.0,23.0,9.0,-11.0,0.0,-16.0,0.0
-11.0,11.0,20.0,-1.0,-2.0,20.0,3.0,-14.0,-3.0,-29.0,0.0
-2.0,35.0,43.0,-1.0,-9.0,18.0,-1.0,-21.0,-3.0,-29.0,0.0
15.0,45.0,66.0,1.0,-13.0,1.0,-13.0,-25.0,-10.0,-27.0,0.0
15.0,43.0,46.0,2.0,-8.0,-2.0,-12.0,-17.0,-8.0,-24.0,0.0
0.0,26.0,19.0,12.0,0.0,11.0,1.0,3.0,-3.0,-20.0,0.0
-6.0,-16.0,2.0,24.0,12.0,8.0,13.0,18.0,-11.0,-24.0,0.0
-13.0,-51.0,-10.0,29.0,22.0,5.0,19.0,20.0,-9.0,-25.0,0.0
-4.0,-58.0,-17.0,3.0,14.0,0.0,20.0,19.0,1.0,-7.0,0.0
12.0,-54.0,-43.0,-27.0,-12.0,0.0,13.0,19.0,1.0,1.0,0.0
7.0,-23.0,-23.0,-41.0,-13.0,0.0,13.0,18.0,-3.0,0.0,0.0
22.0,10.0,5.0,-29.0,-11.0,-8.0,8.0,11.0,-8.0,24.0,0.0
31.0,23.0,11.0,-7.0,0.0,-4.0,6.0,22.0,-5.0,24.0,0.0
19.0,14.0,4.0,-16.0,9.0,6.0,21.0,38.0,10.0,9.0,0.0
24.0,20.0,-5.0,-18.0,20.0,17.0,20.0,50.0,10.0,-6.0,0.0
18.0,-4.0,-20.0,-7.0,22.0,25.0,23.0,35.0,10.0,-12.0,0.0
14.0,-20.0,-7.0,-8.0,13.0,39.0,21.0,27.0,6.0,-11.0,0.0
20.0,-3.0,7.0,-2.0,21.0,42.0,16.0,19.0,7.0,0.0,0.0
15.0,16.0,18.0,3.0,16.0,50.0,12.0,4.0,10.0,-6.0,0.0
11.0,10.0,22.0,8.0,13.0,46.0,8.0,1.0,7.0,-14.0,0.0
8.0,8.0,28.0,16.0,7.0,23.0,0.0,6.0,4.0,-19.0,0.0
12.0,-1.0,20.0,33.0,-3.0,15.0,3.0,5.0,2.0,-13.0,0.0
16.0,-15.0,6.0,25.0,-14.0,20.0,4.0,4.0,9.0,11.0,0.0
14.0,-15.0,9.0,8.0,-19.0,4.0,-2.0,4.0,14.0,17.0,0.0
15.0,-2.0,38.0,5.0,-16.0,-7.0,-9.0,4.0,8.0,4.0,0.0
24.0,18.0,49.0,-2.0,-19.0,-3.0,-4.0,0.0,-1.0,-8.0,0.0
35.0,34.0,53.0,3.0,-14.0,-6.0,-4.0,-2.0,-4.0,2.0,0.0
26.0,23.0,44.0,7.0,-2.0,-2.0,-2.0,4.0,5.0,14.0,0.0
14.0,1.0,21.0,5.0,-9.0,10.0,-7.0,19.0,17.0,15.0,0.0
20.0,1.0,34.0,0.0,-8.0,17.0,-8.0,35.0,34.0,24.0,0.0
15.0,13.0,23.0,-6.0,0.0,24.0,-3.0,36.0,26.0,28.0,0.0
7.0,13.0,0.0,9.0,4.0,22.0,0.0,37.0,15.0,30.0,0.0
11.0,9.0,-4.0,26.0,16.0,30.0,7.0,24.0,16.0,21.0,0.0
10.0,19.0,1.0,27.0,17.0,46.0,4.0,8.0,12.0,21.0,0.0
11.0,31.0,-2.0,34.0,15.0,49.0,-9.0,3.0,-5.0,22.0,0.0
0.0,28.0,13.0,40.0,18.0,37.0,-17.0,0.0,-18.0,12.0,0.0
-9.0,28.0,45.0,36.0,16.0,27.0,-24.0,0.0,-11.0,-8.0,0.0
-7.0,27.0,53.0,38.0,14.0,15.0,-21.0,7.0,3.0,-3.0,0.0
-9.0,10.0,41.0,40.0,12.0,1.0,-26.0,18.0,8.0,7.0,0.0
-12.0,5.0,43.0,35.0,0.0,-10.0,-34.0,25.0,11.0,1.0,0.0
-19.0,7.0,39.0,30.0,-4.0,-13.0,-31.0,25.0,10.0,-1.0,0.0
-28.0,-5.0,28.0,30.0,4.0,-6.0,-15.0,25.0,13.0,-2.0,0.0
-31.0,-17.0,12.0,21.0,10.0,-8.0,-9.0,21.0,15.0,2.0,0.0
-39.0,-27.0,33.0,17.0,4.0,-5.0,-5.0,20.0,3.0,-6.0,0.0
-47.0,-15.0,52.0,26.0,10.0,-11.0,-4.0,18.0,-7.0,-4.0,0.0
-27.0,7.0,48.0,29.0,16.0,-17.0,-2.0,8.0,-7.0,3.0,0.0
0.0,31.0,32.0,12.0,7.0,-4.0,6.0,8.0,10.0,20.0,0.0
3.0,37.0,15.0,8.0,-1.0,-3.0,13.0,30.0,22.0,37.0,0.0
-14.0,19.0,-6.0,23.0,2.0,10.0,21.0,33.0,22.0,34.0,0.0
-28.0,-19.0,-27.0,52.0,18.0,31.0,36.0,25.0,11.0,13.0,0.0
-18.0,-26.0,-23.0,59.0,22.0,35.0,39.0,20.0,1.0,0.0,0.0
-2.0,-11.0,-15.0,48.0,23.0,41.0,33.0,24.0,11.0,-2.0,0.0
11.0,-2.0,-2.0,38.0,19.0,27.0,30.0,30.0,17.0,5.0,0.0
20.0,7.0,0.0,29.0,17.0,18.0,20.0,32.0,15.0,-4.0,0.0
15.0,5.0,10.0,29.0,13.0,14.0,22.0,25.0,12.0,-5.0,0.0
7.0,-12.0,24.0,23.0,13.0,-5.0,12.0,23.0,19.0,-8.0,0.0
7.0,-11.0,22.0,8.0,2.0,-18.0,4.0,16.0,16.0,-15.0,0.0
6.0,0.0,23.0,-6.0,-8.0,-25.0,4.0,11.0,27.0,-13.0,0.0
-1.0,-2.0,17.0,-20.0,-4.0,-24.0,8.0,10.0,21.0,-10.0,0.0
8.0,5.0,9.0,-31.0,-7.0,-31.0,10.0,7.0,18.0,2.0,0.0
12.0,10.0,18.0,-28.0,-7.0,-37.0,-2.0,2.0,21.0,18.0,0.0
9.0,0.0,19.0,-18.0,-9.0,-27.0,-4.0,6.0,21.0,22.0,0.0
3.0,-4.0,29.0,-1.0,5.0,-12.0,1.0,10.0,33.0,36.0,0.0
6.0,13.0,30.0,9.0,9.0,-17.0,1.0,2.0,44.0,24.0,0.0
11.0,36.0,41.0,-3.0,-3.0,-23.0,-13.0,-2.0,40.0,-2.0,0.0
-1.0,40.0,44.0,-3.0,-13.0,-9.0,-15.0,-1.0,15.0,-13.0,0.0
-18.0,12.0,25.0,-2.0,-3.0,18.0,-12.0,-6.0,4.0,-25.0,0.0
-34.0,-29.0,9.0,0.0,6.0,49.0,-9.0,-5.0,-2.0,-28.0,0.0
-35.0,-37.0,10.0,-4.0,0.0,55.0,-10.0,3.0,10.0,-21.0,0.0
-19.0,-29.0,33.0,-4.0,-2.0,48.0,-4.0,0.0,22.0,-19.0,0.0
-15.0,-14.0,51.0,-3.0,-4.0,36.0,0.0,-1.0,20.0,-13.0,0.0
-12.0,-12.0,43.0,-11.0,-8.0,12.0,9.0,0.0,8.0,-13.0,0.0
-1.0,-2.0,6.0,-19.0,-17.0,9.0,3.0,1.0,0.0,-16.0,0.0
7.0,0.0,0.0,-18.0,-27.0,1.0,-8.0,8.0,0.0,-10.0,0.0
15.0,-1.0,9.0,-9.0,-18.0,-10.0,-4.0,6.0,-5.0,-12.0,0.0
13.0,0.0,26.0,-2.0,-15.0,-10.0,1.0,14.0,-4.0,-11.0,0.0
14.0,1.0,33.0,-6.0,-20.0,-7.0,0.0,19.0,-7.0,-8.0,0.0
19.0,2.0,21.0,-16.0,-29.0,2.0,1.0,17.0,-8.0,1.0,0.0
18.0,1.0,19.0,-16.0,-21.0,-2.0,-1.0,8.0,-5.0,2.0,0.0
18.0,-2.0,28.0,-1.0,-19.0,-8.0,0.0,2.0,11.0,-2.0,0.0
15.0,0.0,38.0,-8.0,-10.0,-5.0,0.0,11.0,11.0,0.0,0.0
7.0,5.0,39.0,-24.0,-5.0,5.0,-7.0,14.0,3.0,0.0,0.0
-13.0,12.0,34.0,-24.0,-3.0,16.0,-11.0,12.0,5.0,-1.0,0.0
-23.0,4.0,34.0,-1.0,6.0,26.0,-15.0,9.0,-1.0,-5.0,0.0
-23.0,22.0,50.0,14.0,20.0,29.0,-12.0,9.0,-5.0,-7.0,0.0
-9.0,35.0,51.0,24.0,18.0,23.0,-3.0,0.0,-4.0,-16.0,0.0
0.0,32.0,37.0,42.0,12.0,24.0,1.0,-3.0,0.0,-4.0,0.0
-2.0,19.0,24.0,34.0,6.0,19.0,5.0,9.0,-3.0,7.0,0.0
4.0,16.0,9.0,27.0,1.0,2.0,-2.0,12.0,0.0,18.0,0.0
11.0,29.0,5.0,22.0,-1.0,-2.0,8.0,0.0,10.0,21.0,0.0
16.0,40.0,7.0,12.0,-8.0,-14.0,-3.0,7.0,8.0,21.0,0.0
12.0,47.0,13.0,14.0,-3.0,-17.0,-8.0,8.0,6.0,11.0,0.0
4.0,38.0,9.0,6.0,-7.0,-11.0,4.0,11.0,13.0,0.0,0.0
6.0,44.0,-5.0,-10.0,-17.0,-3.0,4.0,9.0,10.0,6.0,0.0
-6.0,49.0,3.0,-15.0,-20.0,-8.0,6.0,15.0,21.0,8.0,0.0
-3.0,47.0,5.0,-11.0,-18.0,-14.0,15.0,5.0,26.0,13.0,0.0
6.0,44.0,11.0,-11.0,-11.0,-13.0,27.0,4.0,15.0,9.0,0.0
-1.0,36.0,16.0,-6.0,-3.0,-8.0,27.0,18.0,11.0,10.0,0.0
-3.0,30.0,26.0,7.0,-1.0,4.0,20.0,18.0,12.0,15.0,0.0
-12.0,34.0,37.0,-3.0,2.0,15.0,13.0,13.0,2.0,6.0,0.0
-11.0,49.0,33.0,0.0,3.0,12.0,14.0,0.0,-7.0,17.0,0.0
-3.0,61.0,35.0,2.0,9.0,15.0,0.0,-11.0,-16.0,34.0,0.0
-6.0,66.0,50.0,1.0,11.0,13.0,-11.0,-15.0,-18.0,39.0,0.0
-7.0,64.0,67.0,0.0,8.0,18.0,-3.0,-14.0,-11.0,21.0,0.0
-6.0,53.0,76.0,-9.0,10.0,28.0,12.0,-10.0,-1.0,0.0,0.0
-1.0,48.0,59.0,-22.0,2.0,13.0,10.0,-12.0,14.0,11.0,0.0
16.0,62.0,36.0,-28.0,-5.0,-2.0,5.0,0.0,17.0,31.0,0.0
27.0,86.0,24.0,-30.0,-10.0,-4.0,7.0,4.0,18.0,25.0,0.0
30.0,93.0,28.0,-35.0,-14.0,-12.0,7.0,4.0,16.0,20.0,0.0
38.0,93.0,21.0,-40.0,-9.0,-13.0,6.0,-1.0,23.0,19.0,0.0
40.0,102.0,16.0,-37.0,-12.0,-13.0,8.0,3.0,31.0,19.0,0.0
41.0,117.0,24.0,-15.0,-13.0,-16.0,10.0,6.0,22.0,31.0,0.0
35.0,104.0,17.0,2.0,-2.0,-23.0,11.0,10.0,24.0,33.0,0.0
18.0,67.0,2.0,20.0,2.0,-23.0,12.0,4.0,22.0,29.0,0.0
17.0,35.0,-8.0,37.0,9.0,-7.0,6.0,-10.0,15.0,15.0,0.0
12.0,45.0,3.0,42.0,0.0,-3.0,12.0,-17.0,-4.0,4.0,0.0
30.0,86.0,38.0,43.0,9.0,5.0,12.0,-18.0,-29.0,-1.0,0.0
40.0,141.0,62.0,39.0,4.0,14.0,7.0,-30.0,-32.0,-6.0,0.0
30.0,139.0,59.0,24.0,5.0,18.0,13.0,-26.0,-21.0,-12.0,0.0
18.0,89.0,32.0,0.0,17.0,27.0,39.0,-7.0,6.0,-14.0,0.0
3.0,53.0,4.0,-23.0,18.0,26.0,45.0,0.0,6.0,-2.0,0.0
9.0,52.0,-22.0,-40.0,20.0,14.0,40.0,7.0,12.0,3.0,0.0
6.0,67.0,-32.0,-40.0,23.0,12.0,24.0,7.0,10.0,19.0,0.0
-6.0,59.0,-40.0,-47.0,24.0,6.0,28.0,5.0,5.0,31.0,0.0
-11.0,43.0,-51.0,-50.0,29.0,5.0,30.0,10.0,11.0,26.0,0.0
-3.0,37.0,-48.0,-47.0,26.0,5.0,28.0,12.0,19.0,18.0,0.0
-6.0,38.0,-33.0,-46.0,25.0,-1.0,17.0,9.0,4.0,4.0,0.0
-22.0,29.0,-26.0,-45.0,29.0,-3.0,12.0,9.0,-2.0,-3.0,0.0
-25.0,32.0,-25.0,-31.0,20.0,8.0,10.0,1.0,5.0,8.0,0.0
-6.0,52.0,-14.0,-27.0,14.0,2.0,3.0,1.0,9.0,18.0,0.0
0.0,88.0,-5.0,-32.0,2.0,-12.0,-3.0,3.0,13.0,12.0,0.0
1.0,87.0,-7.0,-30.0,5.0,-6.0,-10.0,-4.0,9.0,7.0,0.0
-15.0,63.0,-6.0,-9.0,17.0,7.0,-8.0,-9.0,0.0,0.0,0.0
-27.0,49.0,1.0,15.0,26.0,23.0,-6.0,-14.0,-9.0,-10.0,0.0
-30.0,39.0,20.0,24.0,35.0,20.0,0.0,-15.0,-18.0,-21.0,0.0
-16.0,53.0,26.0,36.0,35.0,15.0,-8.0,-28.0,-20.0,-9.0,0.0
-9.0,56.0,28.0,38.0,35.0,14.0,-17.0,-21.0,-19.0,8.0,0.0
-8.0,51.0,22.0,33.0,25.0,19.0,-21.0,-4.0,-15.0,11.0,0.0
-7.0,66.0,7.0,6.0,5.0,15.0,-16.0,-8.0,-10.0,14.0,0.0
4.0,82.0,3.0,-9.0,-8.0,-9.0,-23.0,-17.0,-4.0,5.0,0.0
0.0,71.0,19.0,-17.0,-11.0,-26.0,-31.0,-27.0,-12.0,-6.0,0.0
-4.0,56.0,42.0,-14.0,-6.0,-15.0,-21.0,-23.0,-11.0,-9.0,0.0
-1.0,58.0,73.0,-6.0,-8.0,-5.0,-11.0,-16.0,-8.0,-17.0,0.0
-5.0,57.0,96.0,7.0,-3.0,-6.0,2.0,-28.0,0.0,-18.0,0.0
-8.0,53.0,103.0,2.0,-4.0,-1.0,5.0,-28.0,0.0,-11.0,0.0
-15.0,47.0,76.0,-14.0,6.0,-3.0,10.0,-13.0,-1.0,-8.0,0.0
-30.0,15.0,26.0,-13.0,-3.0,-8.0,6.0,-7.0,-1.0,-2.0,0.0
-47.0,-20.0,-18.0,-2.0,-1.0,0.0,3.0,3.0,-12.0,6.0,0.0
-42.0,-33.0,-59.0,12.0,22.0,14.0,-5.0,-3.0,-24.0,17.0,0.0
-13.0,-3.0,-73.0,10.0,13.0,26.0,-24.0,-17.0,-32.0,20.0,0.0
0.0,-7.0,-71.0,1.0,7.0,30.0,-23.0,-11.0,-14.0,20.0,0.0
-20.0,-23.0,-73.0,5.0,6.0,37.0,-12.0,-12.0,-8.0,19.0,0.0
-34.0,-22.0,-59.0,-7.0,-6.0,37.0,-12.0,-8.0,-8.0,23.0,0.0
-30.0,-26.0,-43.0,-15.0,-13.0,28.0,-15.0,-1.0,0.0,18.0,0.0
-20.0,-25.0,-40.0,-16.0,0.0,23.0,-13.0,-8.0,-6.0,-4.0,0.0
-10.0,-12.0,-46.0,-17.0,1.0,11.0,-10.0,1.0,1.0,0.0,0.0
6.0,1.0,-40.0,-24.0,-6.0,-7.0,-10.0,6.0,9.0,17.0,0.0
21.0,10.0,-40.0,-33.0,-13.0,-17.0,-7.0,9.0,25.0,18.0,0.0
18.0,26.0,-34.0,-31.0,-10.0,-12.0,0.0,3.0,38.0,17.0,0.0
18.0,14.0,-44.0,-45.0,-7.0,1.0,9.0,6.0,30.0,16.0,0.0
21.0,8.0,-50.0,-48.0,-8.0,-9.0,19.0,6.0,20.0,7.0,0.0
9.0,2.0,-48.0,-49.0,-18.0,-2.0,9.0,4.0,18.0,4.0,0.0
10.0,-12.0,-32.0,-52.0,-8.0,-5.0,11.0,-1.0,16.0,5.0,0.0
-2.0,-16.0,-24.0,-56.0,-6.0,-2.0,11.0,1.0,10.0,3.0,0.0
-16.0,-29.0,-16.0,-48.0,-2.0,-3.0,12.0,16.0,13.0,6.0,0.0
-22.0,-39.0,-3.0,-28.0,4.0,6.0,8.0,16.0,11.0,19.0,0.0
-31.0,-34.0,5.0,3.0,13.0,29.0,17.0,7.0,12.0,19.0,0.0
-47.0,-22.0,20.0,21.0,15.0,39.0,20.0,1.0,4.0,2.0,0.0
-42.0,-27.0,16.0,22.0,10.0,41.0,21.0,-4.0,-7.0,-10.0,0.0
-26.0,-23.0,18.0,12.0,8.0,36.0,22.0,5.0,-9.0,0.0,0.0
-23.0,-17.0,19.0,8.0,3.0,17.0,13.0,4.0,11.0,26.0,0.0
-5.0,0.0,6.0,7.0,-1.0,10.0,7.0,5.0,17.0,32.0,0.0
20.0,9.0,9.0,5.0,0.0,-4.0,1.0,8.0,14.0,32.0,0.0
18.0,2.0,7.0,-8.0,-4.0,-16.0,1.0,4.0,15.0,29.0,0.0
14.0,-8.0,6.0,-13.0,-7.0,-16.0,5.0,0.0,10.0,10.0,0.0
11.0,-12.0,13.0,1.0,-10.0,-20.0,2.0,-5.0,8.0,6.0,0.0
2.0,-18.0,22.0,10.0,-3.0,-23.0,-4.0,-7.0,7.0,-1.0,0.0
-3.0,-18.0,38.0,15.0,-6.0,-18.0,0.0,-7.0,8.0,0.0,0.0
0.0,-29.0,49.0,15.0,-13.0,-25.0,2.0,-10.0,11.0,8.0,0.0
-8.0,-27.0,50.0,14.0,-11.0,-27.0,0.0,-7.0,11.0,4.0,0.0
-11.0,-9.0,49.0,10.0,-12.0,-18.0,4.0,1.0,23.0,4.0,0.0
-7.0,0.0,46.0,26.0,-17.0,-6.0,4.0,-5.0,19.0,1.0,0.0
-15.0,9.0,55.0,60.0,-19.0,2.0,0.0,-28.0,5.0,-10.0,0.0
-18.0,39.0,60.0,71.0,-22.0,-2.0,-7.0,-35.0,1.0,-11.0,0.0
-18.0,36.0,64.0,71.0,-23.0,20.0,-4.0,-23.0,0.0,-12.0,0.0
-32.0,18.0,83.0,72.0,-23.0,23.0,13.0,-19.0,-5.0,-11.0,0.0
-43.0,0.0,66.0,70.0,-15.0,18.0,12.0,-24.0,-6.0,-8.0,0.0
-38.0,-33.0,7.0,31.0,-11.0,17.0,19.0,-14.0,-6.0,-1.0,0.0
-12.0,-53.0,-31.0,-1.0,-17.0,2.0,20.0,5.0,4.0,25.0,0.0
14.0,-34.0,-41.0,-25.0,-28.0,-22.0,-2.0,3.0,0.0,36.0,0.0
8.0,-22.0,-34.0,-19.0,-20.0,-40.0,-17.0,-5.0,5.0,21.0,0.0
-16.0,-36.0,-33.0,3.0,3.0,-32.0,-6.0,-1.0,5.0,4.0,0.0
-7.0,-40.0,-25.0,7.0,12.0,-23.0,4.0,9.0,16.0,10.0,0.0
9.0,-28.0,-33.0,-6.0,4.0,-26.0,-1.0,14.0,23.0,30.0,0.0
3.0,-26.0,-25.0,-7.0,-4.0,-29.0,8.0,6.0,27.0,28.0,0.0
-8.0,-38.0,-3.0,-7.0,3.0,-23.0,3.0,-2.0,37.0,25.0,0.0
-12.0,-39.0,-3.0,0.0,8.0,-15.0,3.0,2.0,51.0,38.0,0.0
-17.0,-44.0,-16.0,-12.0,10.0,-1.0,15.0,0.0,41.0,37.0,0.0
-23.0,-45.0,-35.0,-34.0,9.0,8.0,11.0,4.0,42.0,23.0,0.0
-23.0,-56.0,-26.0,-23.0,4.0,11.0,13.0,7.0,33.0,9.0,0.0
-31.0,-70.0,-39.0,-11.0,3.0,8.0,14.0,2.0,13.0,-1.0,0.0
-37.0,-77.0,-59.0,-13.0,3.0,17.0,10.0,1.0,8.0,-6.0,0.0
-15.0,-59.0,-48.0,-16.0,3.0,8.0,-2.0,-3.0,-6.0,2.0,0.0
1.0,-61.0,-22.0,-18.0,-2.0,2.0,-8.0,-19.0,-10.0,8.0,0.0
2.0,-68.0,-1.0,-21.0,-8.0,-2.0,-9.0,-22.0,-9.0,6.0,0.0
9.0,-69.0,-8.0,-27.0,-12.0,-5.0,-1.0,-10.0,-2.0,0.0,0.0
32.0,-68.0,-24.0,-50.0,-21.0,-6.0,2.0,16.0,23.0,2.0,0.0
58.0,-7.0,-24.0,-74.0,-38.0,-20.0,-5.0,11.0,15.0,10.0,0.0
49.0,47.0,-8.0,-83.0,-47.0,-20.0,-13.0,-1.0,-5.0,5.0,0.0
26.0,18.0,-23.0,-64.0,-25.0,-15.0,-1.0,8.0,9.0,6.0,0.0
7.0,-20.0,-51.0,-49.0,-7.0,-11.0,11.0,15.0,14.0,8.0,0.0
1.0,-31.0,-51.0,-47.0,-6.0,-10.0,10.0,8.0,21.0,7.0,0.0
-4.0,-29.0,-43.0,-47.0,-27.0,-10.0,16.0,1.0,10.0,19.0,0.0
-5.0,-37.0,-32.0,-36.0,-37.0,-2.0,21.0,3.0,-1.0,29.0,0.0
-13.0,-49.0,-7.0,-34.0,-23.0,-5.0,6.0,0.0,-11.0,40.0,0.0
-24.0,-44.0,51.0,-14.0,-23.0,-9.0,-5.0,-12.0,-4.0,37.0,0.0
-16.0,-30.0,88.0,9.0,-24.0,2.0,-3.0,-20.0,-1.0,25.0,0.0
1.0,-21.0,99.0,7.0,-25.0,7.0,-17.0,-14.0,-5.0,3.0,0.0
25.0,4.0,87.0,0.0,-28.0,20.0,-28.0,-24.0,-11.0,2.0,0.0
26.0,16.0,67.0,-1.0,-27.0,14.0,-26.0,-28.0,-16.0,6.0,0.0
12.0,-5.0,37.0,14.0,-23.0,12.0,-11.0,-28.0,-21.0,-7.0,0.0
-5.0,-37.0,-10.0,34.0,-8.0,10.0,2.0,-20.0,-18.0,-18.0,0.0
5.0,-30.0,-17.0,19.0,-9.0,0.0,0.0,-12.0,-15.0,-11.0,0.0
28.0,-29.0,-28.0,-3.0,-4.0,-1.0,8.0,6.0,10.0,19.0,0.0
28.0,-31.0,-32.0,3.0,-2.0,4.0,17.0,18.0,20.0,31.0,0.0
10.0,-65.0,-35.0,12.0,0.0,5.0,22.0,17.0,21.0,28.0,0.0
8.0,-85.0,-52.0,10.0,4.0,2.0,26.0,0.0,21.0,37.0,0.0
22.0,-84.0,-52.0,4.0,-5.0,1.0,18.0,3.0,25.0,29.0,0.0
23.0,-69.0,-35.0,21.0,-4.0,0.0,-1.0,9.0,18.0,16.0,0.0
17.0,-60.0,-17.0,32.0,1.0,-4.0,0.0,12.0,10.0,3.0,0.0
16.0,-50.0,-2.0,26.0,-10.0,-7.0,1.0,1.0,11.0,11.0,0.0
23.0,-36.0,8.0,24.0,-19.0,-7.0,1.0,-9.0,13.0,14.0,0.0
27.0,-9.0,12.0,40.0,-22.0,-8.0,-15.0,-17.0,-11.0,4.0,0.0
13.0,-22.0,7.0,52.0,-24.0,2.0,-14.0,-18.0,-18.0,-11.0,0.0
-5.0,-48.0,0.0,56.0,-17.0,14.0,-1.0,-5.0,-13.0,-18.0,0.0
-13.0,-67.0,-13.0,51.0,-7.0,22.0,9.0,14.0,0.0,-14.0,0.0
-12.0,-75.0,-1.0,50.0,-15.0,40.0,9.0,17.0,9.0,-12.0,0.0
-1.0,-69.0,3.0,32.0,-23.0,31.0,-8.0,8.0,16.0,-8.0,0.0
6.0,-59.0,-13.0,2.0,-36.0,9.0,-2.0,0.0,15.0,-3.0,0.0
10.0,-58.0,-28.0,-3.0,-37.0,2.0,8.0,9.0,22.0,0.0,0.0
10.0,-42.0,-23.0,-2.0,-36.0,-14.0,7.0,7.0,30.0,-10.0,0.0
7.0,-21.0,-8.0,-7.0,-32.0,-22.0,6.0,10.0,32.0,-18.0,0.0
4.0,-11.0,-20.0,-6.0,-28.0,-22.0,4.0,14.0,23.0,-16.0,0.0
7.0,-7.0,-19.0,-31.0,-28.0,-26.0,-2.0,2.0,22.0,-10.0,0.0
5.0,-7.0,-6.0,-33.0,-28.0,-8.0,-9.0,0.0,21.0,-12.0,0.0
-2.0,-15.0,0.0,-29.0,-29.0,-3.0,-1.0,5.0,19.0,-11.0,0.0
0.0,-26.0,7.0,-37.0,-22.0,-9.0,-2.0,10.0,11.0,-18.0,0.0
-2.0,-26.0,11.0,-34.0,-13.0,-16.0,6.0,18.0,14.0,-22.0,0.0
-21.0,-19.0,5.0,-13.0,-10.0,0.0,13.0,18.0,17.0,-23.0,0.0
-31.0,-24.0,12.0,0.0,-7.0,23.0,15.0,7.0,12.0,-28.0,0.0
-38.0,-23.0,22.0,12.0,-9.0,18.0,11.0,-7.0,9.0,-12.0,0.0
-30.0,-24.0,30.0,17.0,10.0,18.0,15.0,-14.0,12.0,-3.0,0.0
-19.0,-25.0,26.0,27.0,10.0,21.0,22.0,-5.0,6.0,-4.0,0.0
-15.0,-26.0,30.0,17.0,-9.0,8.0,11.0,-8.0,-1.0,-16.0,0.0
-1.0,-23.0,33.0,0.0,-11.0,-8.0,7.0,-2.0,6.0,-20.0,0.0
9.0,-25.0,22.0,-1.0,-18.0,-25.0,15.0,15.0,18.0,-13.0,0.0
3.0,-26.0,11.0,-8.0,-13.0,-25.0,29.0,14.0,25.0,-9.0,0.0
-5.0,-19.0,9.0,-8.0,-12.0,-18.0,22.0,18.0,24.0,-7.0,0.0
-9.0,-9.0,-5.0,-3.0,-21.0,-21.0,17.0,8.0,23.0,8.0,0.0
-11.0,-16.0,-2.0,-2.0,-15.0,-14.0,13.0,20.0,28.0,4.0,0.0
-25.0,-18.0,0.0,-8.0,-19.0,-7.0,13.0,26.0,30.0,-12.0,0.0
-28.0,-4.0,13.0,-14.0,-26.0,-10.0,9.0,28.0,40.0,-14.0,0.0
-20.0,-15.0,20.0,-6.0,-20.0,-15.0,9.0,25.0,34.0,-12.0,0.0
-23.0,-17.0,36.0,12.0,-3.0,-12.0,5.0,23.0,32.0,-18.0,0.0
-28.0,-21.0,43.0,32.0,1.0,-12.0,16.0,25.0,29.0,-23.0,0.0
-26.0,-22.0,49.0,37.0,3.0,-4.0,14.0,4.0,19.0,-18.0,0.0
-25.0,-5.0,53.0,48.0,-2.0,0.0,5.0,-3.0,11.0,-18.0,0.0
-30.0,-10.0,42.0,52.0,2.0,6.0,-6.0,-15.0,18.0,-15.0,0.0
-33.0,-39.0,24.0,41.0,5.0,11.0,-10.0,-18.0,13.0,-20.0,0.0
-45.0,-47.0,13.0,20.0,-3.0,7.0,-9.0,-27.0,5.0,-33.0,0.0
-16.0,-29.0,0.0,-4.0,-12.0,-1.0,0.0,-23.0,13.0,-20.0,0.0
20.0,-34.0,-40.0,-38.0,-16.0,-18.0,8.0,-2.0,32.0,24.0,0.0
28.0,-52.0,-47.0,-37.0,-7.0,-20.0,12.0,9.0,37.0,50.0,0.0
26.0,-60.0,-44.0,-22.0,-1.0,-19.0,11.0,8.0,28.0,42.0,0.0
26.0,-56.0,-37.0,-25.0,4.0,-12.0,17.0,9.0,27.0,32.0,0.0
25.0,-52.0,-33.0,-29.0,1.0,-14.0,11.0,10.0,39.0,36.0,0.0
32.0,-39.0,-20.0,-25.0,-4.0,-10.0,13.0,3.0,38.0,36.0,0.0
25.0,-34.0,-17.0,-12.0,2.0,-13.0,23.0,0.0,34.0,32.0,0.0
11.0,-46.0,-23.0,-1.0,5.0,-16.0,22.0,-2.0,33.0,33.0,0.0
26.0,-51.0,-41.0,4.0,0.0,-18.0,22.0,-1.0,26.0,31.0,0.0
42.0,-43.0,-26.0,16.0,-1.0,-13.0,17.0,1.0,18.0,27.0,0.0
39.0,-28.0,-10.0,23.0,7.0,-4.0,4.0,1.0,12.0,17.0,0.0
29.0,-28.0,4.0,33.0,9.0,12.0,0.0,3.0,5.0,13.0,0.0
18.0,-20.0,19.0,37.0,8.0,15.0,-5.0,-12.0,10.0,10.0,0.0
18.0,-15.0,34.0,48.0,3.0,19.0,-7.0,-32.0,4.0,2.0,0.0
9.0,-31.0,48.0,61.0,8.0,16.0,-1.0,-34.0,-6.0,-4.0,0.0
4.0,-41.0,53.0,57.0,8.0,16.0,-5.0,-36.0,0.0,-16.0,0.0
0.0,-39.0,49.0,64.0,2.0,9.0,-6.0,-27.0,5.0,-16.0,0.0
-3.0,-33.0,47.0,48.0,3.0,0.0,-8.0,-16.0,-1.0,-24.0,0.0
-2.0,-33.0,22.0,-3.0,5.0,-6.0,10.0,-3.0,8.0,-24.0,0.0
0.0,-33.0,-4.0,-27.0,3.0,-10.0,27.0,13.0,24.0,-5.0,0.0
5.0,-24.0,-14.0,-30.0,-9.0,-9.0,25.0,15.0,24.0,8.0,0.0
17.0,-6.0,-19.0,-31.0,-19.0,-18.0,13.0,14.0,19.0,7.0,0.0
20.0,-13.0,-23.0,-30.0,-18.0,-14.0,27.0,17.0,22.0,16.0,0.0
9.0,-24.0,-28.0,-35.0,-11.0,-12.0,22.0,25.0,33.0,16.0,0.0
-5.0,-20.0,-38.0,-36.0,-20.0,-12.0,18.0,14.0,27.0,5.0,0.0
-9.0,-16.0,-37.0,-19.0,-26.0,-13.0,23.0,5.0,16.0,0.0,0.0
-5.0,-8.0,-27.0,-4.0,-15.0,-10.0,22.0,4.0,15.0,9.0,0.0
-10.0,3.0,-11.0,0.0,-11.0,0.0,22.0,-4.0,17.0,13.0,0.0
-14.0,5.0,2.0,14.0,-10.0,10.0,18.0,-19.0,2.0,4.0,0.0
-17.0,-1.0,10.0,29.0,-13.0,17.0,2.0,-19.0,-16.0,-3.0,0.0
-22.0,-8.0,56.0,44.0,-13.0,17.0,-18.0,-34.0,-37.0,-15.0,0.0
-24.0,0.0,82.0,47.0,-10.0,7.0,-13.0,-37.0,-55.0,-27.0,0.0
-31.0,-1.0,70.0,43.0,-18.0,5.0,0.0,-24.0,-54.0,-21.0,0.0
-19.0,4.0,43.0,22.0,-35.0,-2.0,-3.0,-11.0,-44.0,-10.0,0.0
25.0,59.0,49.0,-4.0,-38.0,-24.0,-4.0,3.0,-32.0,9.0,0.0
50.0,89.0,43.0,-19.0,-46.0,-30.0,-4.0,8.0,-26.0,17.0,0.0
37.0,72.0,19.0,5.0,-44.0,-21.0,-13.0,14.0,-28.0,7.0,0.0
16.0,40.0,-2.0,15.0,-31.0,-16.0,-10.0,5.0,-31.0,-20.0,0.0
8.0,2.0,-37.0,1.0,-36.0,-12.0,5.0,11.0,-24.0,-21.0,0.0
33.0,0.0,-69.0,-28.0,-31.0,-18.0,-4.0,18.0,-1.0,-8.0,0.0
50.0,21.0,-76.0,-35.0,-34.0,-19.0,-15.0,15.0,4.0,-1.0,0.0
37.0,18.0,-78.0,-26.0,-39.0,-19.0,-17.0,6.0,-3.0,-13.0,0.0
31.0,-4.0,-97.0,-30.0,-44.0,-18.0,-13.0,8.0,10.0,7.0,0.0
34.0,-33.0,-104.0,-19.0,-31.0,-10.0,-5.0,18.0,24.0,13.0,0.0
21.0,-41.0,-85.0,8.0,-15.0,5.0,-4.0,18.0,30.0,12.0,0.0
14.0,-36.0,-45.0,30.0,0.0,24.0,-3.0,17.0,32.0,13.0,0.0
6.0,-8.0,-38.0,32.0,5.0,33.0,-1.0,8.0,25.0,1.0,0.0
0.0,6.0,-42.0,24.0,4.0,37.0,-10.0,6.0,20.0,-14.0,0.0
2.0,-7.0,-29.0,34.0,9.0,30.0,-8.0,0.0,22.0,-21.0,0.0
-2.0,-15.0,-18.0,20.0,9.0,31.0,-10.0,0.0,28.0,-25.0,0.0
0.0,-21.0,-8.0,23.0,7.0,27.0,-13.0,9.0,29.0,-26.0,0.0
12.0,-6.0,-7.0,22.0,3.0,14.0,-20.0,14.0,24.0,-13.0,0.0
41.0,40.0,0.0,8.0,-10.0,-11.0,-26.0,17.0,26.0,-7.0,0.0
63.0,71.0,7.0,4.0,-15.0,-29.0,-32.0,14.0,21.0,-5.0,0.0
48.0,62.0,-3.0,0.0,0.0,-32.0,-31.0,14.0,25.0,-6.0,0.0
14.0,18.0,-18.0,-3.0,9.0,-20.0,-24.0,16.0,26.0,-4.0,0.0
14.0,-1.0,-16.0,-5.0,13.0,-10.0,-21.0,11.0,26.0,1.0,0.0
20.0,-8.0,-15.0,-16.0,6.0,-11.0,-21.0,0.0,27.0,11.0,0.0
21.0,-6.0,-12.0,-15.0,2.0,-17.0,-29.0,-1.0,16.0,8.0,0.0
36.0,7.0,16.0,1.0,-3.0,-15.0,-36.0,3.0,13.0,17.0,0.0
27.0,14.0,35.0,10.0,-2.0,-9.0,-33.0,3.0,2.0,14.0,0.0
9.0,10.0,43.0,18.0,9.0,6.0,-28.0,-1.0,-1.0,-12.0,0.0
-25.0,16.0,73.0,39.0,17.0,18.0,-17.0,-1.0,-5.0,-29.0,0.0
-46.0,8.0,115.0,65.0,24.0,40.0,-11.0,-2.0,-8.0,-45.0,0.0
-58.0,-16.0,106.0,76.0,46.0,38.0,-1.0,0.0,-12.0,-58.0,0.0
-52.0,-35.0,53.0,53.0,44.0,34.0,8.0,8.0,0.0,-50.0,0.0
-25.0,-23.0,2.0,22.0,16.0,19.0,16.0,16.0,-3.0,-25.0,0.0
3.0,10.0,-43.0,-7.0,1.0,-10.0,0.0,12.0,-4.0,-9.0,0.0
0.0,3.0,-68.0,-23.0,10.0,-7.0,7.0,6.0,8.0,-6.0,0.0
-13.0,-18.0,-78.0,-34.0,14.0,-4.0,17.0,12.0,22.0,1.0,0.0
-13.0,-47.0,-101.0,-45.0,17.0,-9.0,21.0,12.0,28.0,1.0,0.0
-20.0,-73.0,-103.0,-49.0,13.0,-18.0,11.0,-1.0,16.0,-10.0,0.0
-27.0,-67.0,-86.0,-65.0,16.0,-20.0,0.0,0.0,4.0,-18.0,0.0
-9.0,-48.0,-77.0,-72.0,9.0,-30.0,-13.0,2.0,0.0,-16.0,0.0
5.0,-36.0,-69.0,-73.0,2.0,-38.0,1.0,8.0,3.0,-11.0,0.0
16.0,-27.0,-31.0,-63.0,-2.0,-37.0,-1.0,-2.0,0.0,-5.0,0.0
27.0,-7.0,-13.0,-36.0,-15.0,-39.0,-18.0,-26.0,-12.0,5.0,0.0
16.0,-4.0,3.0,-28.0,-14.0,-30.0,-21.0,-38.0,-13.0,0.0,0.0
3.0,-19.0,13.0,-10.0,-11.0,-14.0,-8.0,-42.0,-19.0,-17.0,0.0
-3.0,-20.0,16.0,-8.0,-3.0,6.0,-15.0,-48.0,-21.0,-26.0,0.0
-18.0,-27.0,17.0,0.0,2.0,16.0,-14.0,-53.0,-28.0,-27.0,0.0
-20.0,-28.0,30.0,9.0,15.0,10.0,-7.0,-49.0,-25.0,-32.0,0.0
-19.0,-34.0,31.0,12.0,12.0,15.0,5.0,-31.0,-14.0,-37.0,0.0
-12.0,-42.0,22.0,-2.0,4.0,8.0,11.0,-26.0,-7.0,-24.0,0.0
-4.0,-38.0,6.0,-20.0,-2.0,-4.0,6.0,-17.0,-6.0,-14.0,0.0
9.0,-25.0,-5.0,-28.0,-4.0,-25.0,9.0,-11.0,-4.0,-10.0,0.0
9.0,-24.0,-6.0,-30.0,4.0,-28.0,14.0,-9.0,11.0,1.0,0.0
23.0,-18.0,4.0,-30.0,-3.0,-22.0,7.0,-5.0,3.0,5.0,0.0
23.0,-16.0,11.0,-34.0,-4.0,-16.0,4.0,-12.0,-14.0,2.0,0.0
28.0,-5.0,12.0,-35.0,-2.0,-13.0,3.0,-8.0,-21.0,5.0,0.0
21.0,-1.0,1.0,-38.0,-12.0,-13.0,-7.0,-21.0,-26.0,9.0,0.0
17.0,0.0,-2.0,-39.0,-25.0,-19.0,-8.0,-27.0,-23.0,13.0,0.0
19.0,0.0,-4.0,-41.0,-36.0,-26.0,-2.0,-30.0,-36.0,10.0,0.0
29.0,-7.0,2.0,-48.0,-26.0,-27.0,0.0,-27.0,-25.0,9.0,0.0
20.0,-2.0,9.0,-30.0,-4.0,-10.0,7.0,-28.0,-13.0,3.0,0.0
19.0,-9.0,17.0,-10.0,16.0,1.0,5.0,-41.0,-24.0,-3.0,0.0
20.0,-19.0,35.0,22.0,23.0,13.0,3.0,-35.0,-27.0,-14.0,0.0
2.0,-27.0,27.0,42.0,23.0,31.0,-3.0,-25.0,-14.0,-21.0,0.0
-11.0,-28.0,16.0,34.0,24.0,34.0,-4.0,-22.0,-18.0,-12.0,0.0
-2.0,-25.0,3.0,22.0,25.0,30.0,12.0,-14.0,-10.0,-8.0,0.0
0.0,-18.0,4.0,18.0,11.0,5.0,14.0,-9.0,-3.0,-8.0,0.0
10.0,-2.0,19.0,17.0,-6.0,-26.0,12.0,-14.0,-13.0,-9.0,0.0
25.0,6.0,22.0,2.0,-7.0,-29.0,18.0,-21.0,-20.0,-21.0,0.0
17.0,7.0,38.0,-9.0,-8.0,-26.0,20.0,-17.0,-26.0,-28.0,0.0
3.0,6.0,76.0,-7.0,-12.0,-25.0,12.0,-18.0,-31.0,-29.0,0.0
-7.0,4.0,81.0,7.0,-13.0,-34.0,15.0,-19.0,-28.0,-30.0,0.0
1.0,-12.0,63.0,14.0,-8.0,-30.0,16.0,-10.0,-20.0,-25.0,0.0
-2.0,-19.0,44.0,0.0,-8.0,-26.0,7.0,-1.0,-13.0,-28.0,0.0
-8.0,-10.0,43.0,-2.0,-17.0,-22.0,6.0,-7.0,-19.0,-36.0,0.0
-22.0,-26.0,42.0,-2.0,-18.0,-9.0,17.0,-11.0,-23.0,-28.0,0.0
-43.0,-57.0,8.0,-4.0,0.0,-3.0,18.0,-17.0,-34.0,-36.0,0.0
-40.0,-46.0,20.0,8.0,3.0,11.0,7.0,-33.0,-33.0,-14.0,0.0
-23.0,-26.0,25.0,-1.0,0.0,21.0,4.0,-30.0,-21.0,21.0,0.0
-3.0,-5.0,20.0,-4.0,0.0,10.0,-7.0,-20.0,-26.0,9.0,0.0
-5.0,-3.0,7.0,9.0,-5.0,-3.0,-26.0,-28.0,-41.0,-16.0,0.0
1.0,-5.0,-21.0,9.0,-10.0,-11.0,-24.0,-25.0,-45.0,-21.0,0.0
8.0,-16.0,-41.0,-19.0,-30.0,-17.0,-2.0,4.0,-29.0,3.0,0.0
5.0,-40.0,-74.0,-41.0,-42.0,-15.0,19.0,31.0,-7.0,20.0,0.0
5.0,-46.0,-46.0,-37.0,-41.0,-11.0,18.0,37.0,12.0,30.0,0.0
13.0,-44.0,-22.0,-28.0,-36.0,-29.0,3.0,19.0,12.0,19.0,0.0
5.0,-30.0,-32.0,-23.0,-27.0,-30.0,10.0,15.0,6.0,15.0,0.0
-6.0,-10.0,-36.0,-25.0,-22.0,-25.0,18.0,13.0,3.0,-3.0,0.0
-14.0,-6.0,-18.0,-24.0,-21.0,-17.0,23.0,17.0,9.0,-2.0,0.0
-12.0,-19.0,-19.0,-13.0,-29.0,-20.0,36.0,23.0,10.0,-3.0,0.0
-28.0,-43.0,-24.0,-15.0,-16.0,-21.0,38.0,25.0,7.0,-5.0,0.0
-42.0,-67.0,-21.0,-9.0,-14.0,-30.0,24.0,16.0,-5.0,-14.0,0.0
-49.0,-60.0,0.0,-1.0,-9.0,-22.0,17.0,8.0,-14.0,-15.0,0.0
-43.0,-48.0,14.0,17.0,3.0,-13.0,13.0,13.0,-34.0,-25.0,0.0
-43.0,-51.0,20.0,23.0,21.0,-1.0,10.0,16.0,-44.0,-41.0,0.0
-39.0,-53.0,26.0,36.0,11.0,15.0,-2.0,0.0,-50.0,-40.0,0.0
-31.0,-36.0,20.0,42.0,11.0,19.0,-10.0,-7.0,-46.0,-26.0,0.0
-25.0,-31.0,22.0,30.0,6.0,8.0,-25.0,-11.0,-35.0,-31.0,0.0
-21.0,-27.0,30.0,13.0,2.0,-8.0,-18.0,-17.0,-34.0,-35.0,0.0
-18.0,-21.0,37.0,-5.0,-2.0,-18.0,-12.0,-18.0,-26.0,-24.0,0.0
-15.0,-5.0,35.0,-38.0,3.0,-23.0,-14.0,-19.0,-7.0,-15.0,0.0
0.0,-7.0,21.0,-38.0,0.0,-26.0,-12.0,-18.0,-2.0,-8.0,0.0
5.0,-18.0,15.0,-21.0,-4.0,-33.0,-11.0,-21.0,3.0,0.0,0.0
1.0,-25.0,7.0,-20.0,1.0,-29.0,-8.0,-10.0,0.0,11.0,0.0
-7.0,-21.0,5.0,-27.0,-12.0,-31.0,-15.0,-5.0,1.0,10.0,0.0
-1.0,-17.0,13.0,-25.0,-16.0,-35.0,-22.0,-11.0,-2.0,9.0,0.0
4.0,0.0,17.0,-4.0,-21.0,-35.0,-22.0,-5.0,1.0,-1.0,0.0
9.0,-3.0,7.0,2.0,-28.0,-24.0,-21.0,4.0,-4.0,6.0,0.0
5.0,-32.0,-13.0,2.0,-28.0,-9.0,-21.0,12.0,-5.0,14.0,0.0
-2.0,-41.0,-12.0,15.0,-16.0,0.0,-15.0,0.0,-8.0,8.0,0.0
-9.0,-52.0,3.0,49.0,-1.0,3.0,-4.0,-14.0,-21.0,-9.0,0.0
-14.0,-56.0,13.0,53.0,9.0,18.0,3.0,-12.0,-13.0,0.0,0.0
-13.0,-50.0,-7.0,30.0,-4.0,29.0,-7.0,-2.0,-5.0,20.0,0.0
-11.0,-46.0,-15.0,15.0,-2.0,31.0,-15.0,5.0,-1.0,13.0,0.0
-14.0,-35.0,-9.0,28.0,5.0,20.0,-11.0,12.0,4.0,8.0,0.0
-23.0,-29.0,-5.0,28.0,-2.0,13.0,-4.0,6.0,-4.0,5.0,0.0
-23.0,-34.0,-9.0,12.0,-8.0,-4.0,-3.0,14.0,-15.0,7.0,0.0
-16.0,-18.0,-11.0,4.0,-1.0,-7.0,-10.0,14.0,-7.0,12.0,0.0
-4.0,-2.0,-12.0,0.0,-5.0,-9.0,-17.0,6.0,-4.0,16.0,0.0
-8.0,-2.0,-13.0,-4.0,-8.0,-11.0,-9.0,9.0,-13.0,17.0,0.0
-16.0,-16.0,-11.0,-25.0,-4.0,-20.0,-8.0,4.0,-3.0,12.0,0.0
-14.0,-40.0,-12.0,-24.0,0.0,-19.0,-9.0,3.0,11.0,17.0,0.0
-14.0,-46.0,-11.0,-25.0,-3.0,-10.0,-12.0,8.0,19.0,16.0,0.0
-23.0,-45.0,0.0,0.0,-10.0,-6.0,-24.0,12.0,13.0,10.0,0.0
-7.0,-34.0,3.0,9.0,-15.0,-10.0,-25.0,5.0,9.0,11.0,0.0
16.0,5.0,11.0,16.0,-20.0,-14.0,-30.0,-4.0,4.0,21.0,0.0
20.0,32.0,25.0,25.0,-16.0,-15.0,-26.0,-11.0,6.0,6.0,0.0
0.0,29.0,36.0,29.0,1.0,0.0,-16.0,-29.0,5.0,-6.0,0.0
-25.0,0.0,43.0,36.0,14.0,16.0,-5.0,-36.0,-3.0,-19.0,0.0
-41.0,-29.0,53.0,49.0,10.0,24.0,-8.0,-35.0,-9.0,-30.0,0.0
-38.0,-46.0,61.0,50.0,6.0,28.0,-11.0,-29.0,-2.0,-44.0,0.0
-31.0,-39.0,61.0,61.0,14.0,27.0,-15.0,-18.0,-7.0,-42.0,0.0
-28.0,-46.0,35.0,54.0,13.0,30.0,-21.0,0.0,5.0,-35.0,0.0
-23.0,-62.0,-3.0,38.0,20.0,21.0,-20.0,7.0,7.0,-36.0,0.0
9.0,-35.0,-22.0,11.0,10.0,-4.0,-2.0,-4.0,7.0,-22.0,0.0
