channel0,channel1,channel2,channel3,channel4,channel5,channel6,channel7,channel8,channel9,true_locs
19.0,39.0,-15.0,-11.0,-14.0,-10.0,3.0,79.0,87.0,78.0,0.0
23.0,62.0,-5.0,-7.0,-12.0,0.0,14.0,66.0,199.0,91.0,0.0
31.0,53.0,2.0,-12.0,2.0,10.0,25.0,20.0,244.0,98.0,0.0
16.0,7.0,-8.0,-19.0,14.0,11.0,9.0,-57.0,24.0,90.0,0.0
-5.0,-17.0,-8.0,-14.0,19.0,16.0,13.0,-102.0,-160.0,75.0,0.0
-22.0,-17.0,1.0,-12.0,28.0,13.0,27.0,-85.0,-123.0,44.0,0.0
-16.0,-10.0,-8.0,-8.0,26.0,4.0,21.0,-68.0,-48.0,16.0,0.0
-11.0,-9.0,4.0,-6.0,31.0,5.0,3.0,-51.0,73.0,-16.0,0.0
-16.0,-8.0,5.0,-7.0,42.0,5.0,5.0,-65.0,173.0,-48.0,0.0
-21.0,1.0,-2.0,-1.0,37.0,-1.0,-13.0,-99.0,-4.0,-88.0,0.0
-14.0,2.0,-16.0,-11.0,22.0,-8.0,-28.0,-117.0,-262.0,-85.0,0.0
-8.0,12.0,-10.0,-5.0,25.0,-7.0,-26.0,-76.0,-207.0,-52.0,0.0
-2.0,11.0,-7.0,9.0,18.0,-6.0,-27.0,-46.0,-78.0,-32.0,0.0
0.0,8.0,-6.0,13.0,12.0,-20.0,-24.0,-42.0,-30.0,-12.0,0.0
7.0,17.0,6.0,6.0,6.0,-18.0,-24.0,-32.0,33.0,8.0,0.0
17.0,22.0,8.0,-10.0,-5.0,-19.0,-23.0,-15.0,59.0,6.0,0.0
17.0,34.0,-4.0,-23.0,-4.0,-10.0,-11.0,-2.0,36.0,-11.0,0.0
16.0,33.0,-10.0,-24.0,4.0,-6.0,10.0,10.0,-3.0,-11.0,0.0
12.0,35.0,2.0,-23.0,-6.0,-9.0,25.0,26.0,-19.0,2.0,0.0
14.0,21.0,4.0,-22.0,-11.0,-11.0,37.0,10.0,-30.0,12.0,0.0
10.0,10.0,-2.0,-13.0,-18.0,-11.0,43.0,7.0,-50.0,-20.0,0.0
-5.0,0.0,-6.0,-13.0,-15.0,-6.0,51.0,19.0,-63.0,-55.0,0.0
-20.0,-2.0,-11.0,-13.0,-15.0,-4.0,58.0,7.0,-70.0,-75.0,0.0
-23.0,7.0,-13.0,-15.0,-17.0,-7.0,54.0,-19.0,-63.0,-78.0,0.0
-13.0,15.0,-12.0,-3.0,-13.0,-13.0,53.0,-23.0,25.0,-47.0,0.0
-7.0,1.0,-15.0,2.0,-28.0,-14.0,24.0,-17.0,126.0,15.0,0.0
-16.0,-14.0,-17.0,-5.0,-39.0,-27.0,-1.0,-21.0,35.0,21.0,0.0
-20.0,-14.0,-10.0,-6.0,-37.0,-16.0,-11.0,-30.0,-90.0,5.0,0.0
-19.0,-7.0,-9.0,11.0,-24.0,-10.0,-18.0,-18.0,-69.0,-4.0,0.0
-21.0,-4.0,-5.0,14.0,-16.0,-14.0,-8.0,-3.0,0.0,-39.0,0.0
-14.0,13.0,-4.0,14.0,-12.0,-15.0,-15.0,1.0,12.0,-89.0,0.0
-12.0,19.0,-3.0,14.0,-11.0,-7.0,-13.0,6.0,-2.0,-115.0,0.0
-13.0,24.0,8.0,4.0,-21.0,-3.0,-16.0,12.0,-24.0,-148.0,0.0
-2.0,12.0,7.0,7.0,-30.0,-7.0,-2.0,13.0,-44.0,-180.0,0.0
-10.0,8.0,5.0,-7.0,-35.0,-9.0,19.0,33.0,-47.0,-183.0,0.0
-14.0,2.0,1.0,-10.0,-31.0,-14.0,33.0,45.0,-34.0,-161.0,0.0
-10.0,-10.0,2.0,-8.0,-30.0,-16.0,30.0,49.0,-6.0,-124.0,0.0
0.0,-7.0,-11.0,-9.0,-36.0,-21.0,24.0,48.0,11.0,-81.0,0.0
12.0,-19.0,-21.0,-8.0,-35.0,-12.0,11.0,40.0,40.0,-39.0,0.0
0.0,-19.0,-23.0,-4.0,-28.0,-11.0,4.0,38.0,101.0,34.0,0.0
-11.0,-13.0,-16.0,-12.0,-34.0,-3.0,5.0,19.0,156.0,69.0,0.0
-2.0,-5.0,-7.0,-14.0,-29.0,9.0,0.0,11.0,149.0,66.0,0.0
17.0,0.0,0.0,-8.0,-19.0,12.0,-9.0,0.0,102.0,37.0,0.0
19.0,12.0,15.0,4.0,-19.0,10.0,-27.0,4.0,23.0,-31.0,0.0
11.0,9.0,28.0,30.0,-15.0,13.0,-42.0,6.0,-61.0,-86.0,0.0
4.0,28.0,30.0,56.0,-11.0,12.0,-41.0,6.0,-64.0,-123.0,0.0
2.0,32.0,28.0,65.0,-8.0,12.0,-34.0,8.0,1.0,-146.0,0.0
-11.0,21.0,22.0,61.0,-3.0,11.0,-28.0,16.0,7.0,-175.0,0.0
-11.0,12.0,25.0,53.0,-1.0,15.0,-25.0,7.0,-48.0,-182.0,0.0
-11.0,1.0,26.0,33.0,-11.0,8.0,-28.0,4.0,-51.0,-158.0,0.0
-20.0,-3.0,12.0,34.0,-14.0,-3.0,-24.0,1.0,-23.0,-133.0,0.0
-26.0,-3.0,14.0,27.0,-4.0,0.0,-5.0,12.0,-13.0,-120.0,0.0
-25.0,-6.0,11.0,12.0,0.0,-1.0,8.0,41.0,-22.0,-97.0,0.0
-17.0,3.0,-1.0,0.0,0.0,-10.0,28.0,67.0,0.0,-70.0,0.0
-3.0,14.0,-11.0,-4.0,-4.0,-9.0,49.0,102.0,82.0,-15.0,0.0
3.0,8.0,-2.0,2.0,-5.0,-2.0,69.0,122.0,183.0,12.0,0.0
7.0,6.0,7.0,5.0,0.0,3.0,63.0,111.0,284.0,9.0,0.0
12.0,22.0,21.0,20.0,4.0,7.0,36.0,43.0,318.0,-1.0,0.0
14.0,16.0,26.0,24.0,-2.0,-3.0,0.0,-18.0,276.0,-34.0,0.0
2.0,2.0,15.0,21.0,2.0,-15.0,-14.0,-67.0,96.0,-85.0,0.0
0.0,5.0,27.0,27.0,19.0,-6.0,-19.0,-96.0,-192.0,-146.0,0.0
-12.0,1.0,24.0,22.0,15.0,-5.0,-23.0,-72.0,-345.0,-185.0,0.0
-10.0,13.0,21.0,16.0,7.0,-4.0,-19.0,-25.0,-331.0,-165.0,0.0
11.0,26.0,21.0,19.0,8.0,-2.0,-32.0,4.0,-196.0,-106.0,0.0
30.0,33.0,29.0,17.0,4.0,-8.0,-34.0,9.0,-62.0,-35.0,0.0
36.0,49.0,40.0,4.0,-13.0,-9.0,-42.0,5.0,82.0,6.0,0.0
9.0,51.0,39.0,-3.0,-14.0,-10.0,-49.0,-8.0,159.0,-23.0,0.0
-7.0,28.0,35.0,-2.0,-15.0,-19.0,-63.0,-76.0,19.0,-71.0,0.0
-4.0,11.0,35.0,2.0,-20.0,-15.0,-59.0,-97.0,-103.0,-80.0,0.0
-3.0,0.0,29.0,-5.0,-6.0,2.0,-15.0,-49.0,-48.0,-59.0,0.0
-3.0,-15.0,3.0,-2.0,0.0,10.0,4.0,-10.0,7.0,-51.0,0.0
-17.0,-35.0,-4.0,1.0,14.0,6.0,21.0,0.0,-1.0,-52.0,0.0
-29.0,-43.0,-14.0,-23.0,22.0,15.0,32.0,-18.0,-41.0,-86.0,0.0
-49.0,-49.0,-25.0,-32.0,9.0,6.0,32.0,-21.0,-48.0,-128.0,0.0
-66.0,-42.0,-22.0,-36.0,0.0,-9.0,27.0,-9.0,-40.0,-141.0,0.0
-66.0,-26.0,-27.0,-21.0,-6.0,-14.0,24.0,-6.0,-42.0,-108.0,0.0
-45.0,-9.0,-15.0,4.0,3.0,-6.0,18.0,0.0,-46.0,-69.0,0.0
-21.0,11.0,-2.0,28.0,18.0,7.0,18.0,17.0,-8.0,-31.0,0.0
12.0,27.0,2.0,37.0,36.0,8.0,15.0,26.0,11.0,-16.0,0.0
19.0,36.0,4.0,34.0,33.0,10.0,-2.0,10.0,-1.0,-41.0,0.0
16.0,33.0,3.0,29.0,25.0,3.0,-12.0,10.0,26.0,-47.0,0.0
18.0,28.0,7.0,24.0,7.0,-14.0,-14.0,27.0,46.0,-66.0,0.0
26.0,19.0,14.0,23.0,3.0,-22.0,-19.0,6.0,1.0,-89.0,0.0
23.0,9.0,5.0,13.0,1.0,-31.0,-10.0,1.0,-35.0,-94.0,0.0
16.0,12.0,8.0,7.0,4.0,-34.0,-26.0,1.0,-24.0,-88.0,0.0
3.0,8.0,8.0,-7.0,-1.0,-25.0,-12.0,16.0,14.0,-46.0,0.0
-9.0,5.0,3.0,-6.0,-3.0,-21.0,1.0,22.0,29.0,-31.0,0.0
-32.0,-12.0,-1.0,-2.0,-4.0,-32.0,6.0,24.0,48.0,-42.0,0.0
-39.0,-15.0,-4.0,-11.0,-11.0,-39.0,7.0,31.0,113.0,-18.0,0.0
-20.0,2.0,2.0,-5.0,-8.0,-42.0,-13.0,34.0,120.0,9.0,0.0
-14.0,13.0,10.0,-11.0,-4.0,-15.0,9.0,59.0,99.0,5.0,0.0
-22.0,10.0,6.0,-26.0,-4.0,3.0,82.0,46.0,62.0,-11.0,0.0
-25.0,-2.0,0.0,-22.0,-2.0,-1.0,80.0,15.0,35.0,-29.0,0.0
-16.0,-17.0,-4.0,-7.0,1.0,-5.0,37.0,11.0,33.0,-26.0,0.0
2.0,11.0,24.0,-7.0,14.0,-3.0,12.0,17.0,49.0,-11.0,0.0
6.0,35.0,28.0,2.0,20.0,-2.0,-5.0,17.0,41.0,-8.0,0.0
13.0,34.0,23.0,15.0,24.0,3.0,-18.0,5.0,18.0,-14.0,0.0
11.0,17.0,8.0,10.0,19.0,9.0,-19.0,-12.0,3.0,-10.0,0.0
0.0,12.0,-1.0,12.0,14.0,5.0,-22.0,-3.0,-2.0,-6.0,0.0
-21.0,2.0,-6.0,3.0,6.0,-12.0,-2.0,-3.0,0.0,-5.0,0.0
-29.0,-16.0,-19.0,-18.0,-1.0,-21.0,-3.0,-3.0,-2.0,0.0,1.0
-28.0,-28.0,-27.0,-45.0,-3.0,-18.0,0.0,4.0,-14.0,2.0,1.0
-40.0,-27.0,-39.0,-54.0,-12.0,-14.0,10.0,4.0,-24.0,2.0,1.0
-40.0,-13.0,-42.0,-42.0,-18.0,-10.0,24.0,-7.0,-25.0,7.0,1.0
-34.0,-10.0,-36.0,-21.0,-16.0,-15.0,21.0,-9.0,-35.0,10.0,1.0
-36.0,-21.0,-36.0,-17.0,0.0,-11.0,33.0,12.0,-42.0,4.0,1.0
-31.0,-22.0,-32.0,-16.0,3.0,-7.0,45.0,31.0,-43.0,0.0,1.0
-13.0,-5.0,-20.0,0.0,9.0,-5.0,30.0,33.0,-23.0,14.0,1.0
-3.0,2.0,-8.0,7.0,6.0,-1.0,11.0,35.0,26.0,42.0,1.0
1.0,5.0,-20.0,11.0,10.0,0.0,5.0,58.0,141.0,43.0,1.0
13.0,8.0,-6.0,9.0,27.0,7.0,0.0,39.0,256.0,26.0,1.0
23.0,8.0,6.0,13.0,41.0,20.0,-30.0,-21.0,223.0,12.0,1.0
22.0,0.0,13.0,6.0,27.0,9.0,-59.0,-62.0,61.0,24.0,1.0
18.0,17.0,6.0,-2.0,19.0,2.0,-71.0,-51.0,-66.0,15.0,1.0
3.0,19.0,4.0,2.0,26.0,6.0,-77.0,-38.0,-138.0,-35.0,1.0
-8.0,10.0,-4.0,-4.0,18.0,7.0,-80.0,-37.0,-196.0,-64.0,1.0
-5.0,9.0,-11.0,-6.0,17.0,0.0,-72.0,-29.0,-170.0,-44.0,1.0
-14.0,-4.0,-22.0,-11.0,9.0,1.0,-29.0,-17.0,-103.0,-33.0,1.0
-29.0,-12.0,-28.0,-12.0,0.0,2.0,-10.0,-17.0,-88.0,-59.0,0.0
-26.0,-7.0,-27.0,-19.0,6.0,13.0,2.0,-25.0,-82.0,-89.0,0.0
-22.0,-1.0,-20.0,-25.0,10.0,25.0,20.0,-17.0,-56.0,-86.0,0.0
-27.0,-9.0,-15.0,-20.0,4.0,19.0,23.0,-16.0,-61.0,-84.0,0.0
-34.0,-15.0,-15.0,-23.0,4.0,-4.0,24.0,-15.0,-53.0,-68.0,0.0
-22.0,-14.0,-11.0,-20.0,10.0,0.0,30.0,-17.0,-35.0,-50.0,0.0
-6.0,0.0,-3.0,-23.0,13.0,10.0,28.0,-19.0,-18.0,-25.0,0.0
-2.0,5.0,0.0,-44.0,25.0,9.0,15.0,-11.0,-8.0,-15.0,0.0
-2.0,2.0,-3.0,-38.0,28.0,21.0,1.0,-5.0,-12.0,-2.0,0.0
16.0,4.0,0.0,-19.0,26.0,21.0,-5.0,-10.0,-11.0,-7.0,0.0
17.0,6.0,16.0,-2.0,24.0,15.0,-4.0,-1.0,-5.0,-8.0,0.0
23.0,17.0,24.0,-6.0,31.0,13.0,-15.0,8.0,6.0,-6.0,0.0
31.0,22.0,14.0,-2.0,34.0,12.0,-27.0,1.0,17.0,0.0,0.0
33.0,13.0,11.0,15.0,24.0,8.0,-32.0,-6.0,17.0,-17.0,0.0
27.0,3.0,7.0,20.0,15.0,8.0,-31.0,-6.0,8.0,-25.0,0.0
20.0,11.0,-6.0,20.0,1.0,9.0,-23.0,-4.0,5.0,-10.0,0.0
22.0,22.0,-22.0,16.0,-13.0,2.0,-11.0,-14.0,-4.0,-2.0,0.0
29.0,23.0,-33.0,15.0,-20.0,-4.0,-12.0,-12.0,-17.0,12.0,0.0
8.0,22.0,-34.0,7.0,-33.0,-9.0,-3.0,-15.0,-22.0,20.0,0.0
2.0,19.0,-37.0,12.0,-32.0,-7.0,-8.0,-21.0,-15.0,20.0,0.0
1.0,8.0,-41.0,14.0,-25.0,0.0,10.0,-23.0,-26.0,0.0,0.0
-10.0,0.0,-46.0,16.0,-12.0,10.0,28.0,-18.0,-24.0,-17.0,0.0
19.0,3.0,-27.0,20.0,-18.0,10.0,32.0,-16.0,9.0,-14.0,0.0
51.0,20.0,-21.0,23.0,-24.0,12.0,31.0,-7.0,62.0,0.0,0.0
48.0,25.0,-8.0,21.0,-24.0,18.0,17.0,11.0,78.0,-21.0,0.0
50.0,34.0,9.0,47.0,-5.0,30.0,19.0,25.0,31.0,-29.0,0.0
55.0,42.0,21.0,53.0,9.0,37.0,21.0,20.0,-5.0,9.0,0.0
55.0,25.0,27.0,49.0,20.0,32.0,17.0,10.0,-14.0,32.0,0.0
21.0,11.0,26.0,50.0,21.0,27.0,8.0,3.0,33.0,-3.0,0.0
12.0,-2.0,21.0,41.0,10.0,16.0,-4.0,7.0,148.0,-27.0,0.0
32.0,-2.0,9.0,34.0,-8.0,4.0,2.0,26.0,252.0,-2.0,0.0
31.0,6.0,0.0,33.0,-14.0,4.0,16.0,24.0,207.0,-4.0,0.0
11.0,-2.0,8.0,29.0,-9.0,6.0,22.0,-9.0,16.0,-54.0,0.0
-4.0,-26.0,1.0,20.0,-10.0,3.0,5.0,-35.0,-181.0,-83.0,0.0
-8.0,-38.0,-12.0,17.0,-8.0,3.0,2.0,-36.0,-139.0,-66.0,0.0
-5.0,-23.0,-4.0,20.0,-2.0,15.0,-5.0,-48.0,-13.0,-46.0,0.0
-5.0,-32.0,-2.0,26.0,5.0,12.0,-5.0,-101.0,-57.0,-73.0,0.0
-13.0,-40.0,-17.0,21.0,5.0,-3.0,0.0,-121.0,-88.0,-85.0,0.0
-19.0,-45.0,-27.0,8.0,1.0,-6.0,14.0,-88.0,21.0,-91.0,0.0
-37.0,-50.0,-39.0,-1.0,-7.0,-16.0,3.0,-55.0,-18.0,-116.0,0.0
-30.0,-49.0,-45.0,1.0,-13.0,-18.0,-7.0,-47.0,-132.0,-118.0,0.0
-6.0,-41.0,-36.0,1.0,-13.0,-23.0,-7.0,-36.0,-109.0,-94.0,0.0
9.0,-7.0,-10.0,6.0,-12.0,-20.0,-20.0,-22.0,-54.0,-71.0,0.0
28.0,46.0,12.0,11.0,-11.0,-5.0,-14.0,-9.0,-23.0,-23.0,0.0
31.0,66.0,23.0,17.0,-4.0,4.0,-15.0,10.0,4.0,25.0,0.0
40.0,46.0,27.0,13.0,7.0,1.0,-16.0,31.0,18.0,44.0,0.0
52.0,4.0,29.0,-4.0,11.0,-1.0,-13.0,52.0,0.0,34.0,0.0
39.0,0.0,26.0,-26.0,-3.0,-5.0,-13.0,61.0,-33.0,0.0,0.0
21.0,-9.0,22.0,-33.0,-8.0,-4.0,2.0,63.0,-53.0,-26.0,0.0
13.0,-22.0,22.0,-24.0,-5.0,-6.0,3.0,57.0,-44.0,-41.0,0.0
0.0,-21.0,11.0,-1.0,-4.0,-12.0,7.0,44.0,-4.0,-58.0,0.0
-15.0,-18.0,17.0,5.0,-6.0,-9.0,16.0,26.0,43.0,-99.0,0.0
-37.0,-14.0,17.0,1.0,-8.0,3.0,27.0,13.0,78.0,-150.0,0.0
-46.0,-28.0,16.0,6.0,-14.0,-4.0,8.0,-10.0,73.0,-153.0,0.0
-58.0,-26.0,15.0,5.0,-13.0,-16.0,3.0,-24.0,56.0,-141.0,0.0
-67.0,-27.0,12.0,0.0,-6.0,-16.0,-3.0,-15.0,-15.0,-140.0,0.0
-56.0,-37.0,4.0,-9.0,-7.0,-14.0,1.0,14.0,-112.0,-121.0,0.0
-35.0,-27.0,17.0,-9.0,-13.0,-13.0,3.0,21.0,-72.0,-75.0,0.0
-16.0,-25.0,24.0,4.0,-15.0,-10.0,-2.0,1.0,-17.0,-46.0,0.0
-8.0,-21.0,10.0,7.0,-11.0,-14.0,-11.0,-13.0,-30.0,-48.0,0.0
-3.0,-16.0,9.0,13.0,2.0,3.0,-23.0,1.0,-39.0,-41.0,0.0
7.0,-14.0,27.0,7.0,6.0,17.0,-14.0,12.0,5.0,-35.0,0.0
10.0,-14.0,28.0,7.0,4.0,12.0,-22.0,22.0,43.0,-43.0,0.0
10.0,-16.0,21.0,2.0,-1.0,4.0,-26.0,47.0,20.0,-60.0,0.0
17.0,-22.0,8.0,-20.0,-4.0,-1.0,-14.0,63.0,8.0,-61.0,0.0
36.0,6.0,11.0,-22.0,-5.0,-8.0,0.0,45.0,11.0,-46.0,0.0
32.0,20.0,12.0,-12.0,-6.0,3.0,8.0,6.0,-19.0,-42.0,0.0
29.0,9.0,7.0,-8.0,-10.0,9.0,-6.0,-26.0,-33.0,-7.0,0.0
38.0,5.0,3.0,-16.0,-21.0,3.0,-8.0,-32.0,6.0,34.0,0.0
23.0,7.0,1.0,-10.0,-21.0,-5.0,5.0,-32.0,31.0,11.0,0.0
-7.0,-10.0,-8.0,-13.0,-27.0,-10.0,21.0,-1.0,78.0,-14.0,0.0
-23.0,-21.0,-24.0,-28.0,-28.0,-14.0,38.0,34.0,176.0,0.0,0.0
-11.0,-15.0,-22.0,-51.0,-16.0,-4.0,38.0,59.0,244.0,27.0,0.0
15.0,11.0,-27.0,-50.0,-1.0,6.0,34.0,55.0,167.0,21.0,0.0
6.0,22.0,-13.0,-42.0,4.0,4.0,34.0,36.0,29.0,-22.0,0.0
-4.0,24.0,1.0,-31.0,-3.0,4.0,15.0,14.0,-76.0,-59.0,0.0
2.0,35.0,-3.0,-21.0,0.0,1.0,1.0,11.0,-108.0,-60.0,0.0
-9.0,30.0,-2.0,-12.0,7.0,4.0,-7.0,2.0,-95.0,-66.0,0.0
6.0,32.0,13.0,3.0,17.0,17.0,-8.0,0.0,-86.0,-71.0,0.0
19.0,43.0,32.0,17.0,27.0,25.0,-11.0,5.0,-73.0,-59.0,0.0
9.0,47.0,37.0,34.0,20.0,15.0,-23.0,-2.0,-48.0,-48.0,0.0
7.0,33.0,22.0,32.0,12.0,9.0,-12.0,-15.0,-61.0,-35.0,0.0
3.0,20.0,15.0,14.0,4.0,0.0,-11.0,-32.0,-93.0,-22.0,0.0
1.0,22.0,7.0,14.0,0.0,-2.0,-15.0,-51.0,-85.0,4.0,0.0
11.0,13.0,-4.0,18.0,4.0,-5.0,-15.0,-37.0,-45.0,19.0,0.0
6.0,-9.0,-20.0,11.0,2.0,-6.0,-8.0,-16.0,40.0,-2.0,0.0
-8.0,-4.0,-26.0,6.0,-5.0,-4.0,-17.0,0.0,149.0,-19.0,0.0
-29.0,-14.0,-26.0,-6.0,-12.0,4.0,-8.0,12.0,208.0,-19.0,0.0
-47.0,-34.0,-42.0,-15.0,-19.0,20.0,55.0,25.0,217.0,16.0,0.0
-47.0,-37.0,-51.0,-16.0,-17.0,29.0,111.0,1.0,111.0,31.0,0.0
-29.0,-35.0,-37.0,-9.0,-7.0,31.0,76.0,-32.0,-37.0,23.0,0.0
-22.0,-34.0,-15.0,-4.0,-2.0,21.0,31.0,-50.0,-162.0,-12.0,0.0
-27.0,-17.0,8.0,19.0,24.0,21.0,13.0,-47.0,-185.0,-38.0,0.0
-23.0,11.0,33.0,29.0,29.0,20.0,2.0,-37.0,-128.0,-59.0,0.0
-13.0,23.0,57.0,26.0,22.0,16.0,-12.0,-27.0,-99.0,-115.0,0.0
0.0,31.0,50.0,17.0,30.0,25.0,-33.0,-5.0,-87.0,-130.0,0.0
5.0,30.0,39.0,8.0,36.0,23.0,-22.0,22.0,-71.0,-115.0,0.0
-1.0,15.0,30.0,0.0,26.0,16.0,-13.0,50.0,-37.0,-63.0,0.0
-19.0,10.0,9.0,0.0,19.0,17.0,0.0,60.0,-11.0,-49.0,0.0
-15.0,-7.0,0.0,5.0,15.0,20.0,-4.0,52.0,28.0,-39.0,0.0
-11.0,-14.0,0.0,-5.0,6.0,15.0,-12.0,40.0,90.0,-38.0,0.0
-24.0,-10.0,5.0,-2.0,9.0,11.0,-11.0,-8.0,77.0,-43.0,0.0
-28.0,-11.0,0.0,0.0,12.0,8.0,-26.0,-63.0,-58.0,-54.0,0.0
-21.0,-10.0,-7.0,0.0,12.0,17.0,-10.0,-64.0,-124.0,-61.0,0.0
-13.0,-17.0,-18.0,-7.0,8.0,11.0,9.0,-27.0,-73.0,-43.0,0.0
-20.0,-23.0,-33.0,-3.0,5.0,1.0,11.0,-5.0,-41.0,-19.0,0.0
-35.0,-22.0,-38.0,0.0,15.0,11.0,0.0,9.0,5.0,-17.0,0.0
-25.0,-24.0,-38.0,0.0,24.0,11.0,-3.0,41.0,74.0,-13.0,0.0
3.0,-18.0,-33.0,7.0,24.0,7.0,-9.0,43.0,82.0,-5.0,0.0
21.0,-2.0,-22.0,24.0,27.0,8.0,-16.0,27.0,50.0,12.0,0.0
20.0,-3.0,-16.0,29.0,26.0,16.0,-27.0,35.0,36.0,21.0,0.0
29.0,-4.0,-11.0,34.0,15.0,20.0,-34.0,49.0,27.0,19.0,0.0
45.0,-4.0,-3.0,22.0,5.0,13.0,-35.0,41.0,20.0,30.0,0.0
45.0,-7.0,-2.0,7.0,-5.0,0.0,-32.0,41.0,6.0,22.0,0.0
40.0,-5.0,-12.0,-3.0,-10.0,-6.0,-28.0,27.0,-2.0,9.0,0.0
24.0,4.0,-17.0,-10.0,-11.0,-14.0,-13.0,15.0,-9.0,0.0,0.0
17.0,11.0,-10.0,-21.0,-18.0,-8.0,-8.0,6.0,-24.0,-30.0,0.0
16.0,19.0,-11.0,-38.0,-17.0,-1.0,-1.0,0.0,-30.0,-47.0,0.0
18.0,39.0,-9.0,-29.0,-22.0,0.0,16.0,14.0,-16.0,-46.0,0.0
17.0,28.0,0.0,-21.0,-12.0,8.0,26.0,22.0,-8.0,-42.0,0.0
4.0,-12.0,1.0,-22.0,-12.0,8.0,32.0,24.0,-2.0,-34.0,0.0
-4.0,-30.0,-12.0,-21.0,-7.0,2.0,28.0,21.0,-6.0,-20.0,0.0
-8.0,-27.0,-8.0,-6.0,6.0,3.0,27.0,23.0,-20.0,-14.0,0.0
-2.0,-22.0,-7.0,3.0,8.0,4.0,28.0,36.0,-32.0,-21.0,0.0
-3.0,-2.0,5.0,10.0,19.0,7.0,27.0,45.0,7.0,-4.0,0.0
-7.0,17.0,18.0,10.0,23.0,16.0,44.0,70.0,88.0,13.0,0.0
4.0,15.0,13.0,3.0,16.0,22.0,29.0,94.0,203.0,35.0,0.0
12.0,9.0,6.0,11.0,0.0,3.0,8.0,105.0,328.0,57.0,0.0
24.0,18.0,19.0,23.0,-3.0,4.0,1.0,97.0,377.0,73.0,0.0
44.0,35.0,35.0,28.0,3.0,6.0,-22.0,40.0,264.0,68.0,0.0
56.0,52.0,56.0,21.0,0.0,-6.0,-37.0,-5.0,120.0,43.0,0.0
58.0,59.0,49.0,19.0,12.0,-3.0,-28.0,-8.0,80.0,34.0,0.0
40.0,42.0,43.0,9.0,6.0,-10.0,-40.0,-44.0,-75.0,-7.0,0.0
33.0,33.0,38.0,-3.0,-4.0,-12.0,-32.0,-62.0,-197.0,-60.0,0.0
24.0,22.0,12.0,-5.0,-2.0,4.0,-1.0,-60.0,-106.0,-57.0,0.0
-3.0,-7.0,-15.0,-27.0,-14.0,5.0,0.0,-64.0,-50.0,-47.0,0.0
-38.0,-36.0,-22.0,-33.0,-35.0,-7.0,-12.0,-91.0,-231.0,-100.0,0.0
-60.0,-41.0,-36.0,-29.0,-28.0,-11.0,-22.0,-113.0,-352.0,-131.0,0.0
-37.0,-28.0,-34.0,-30.0,-30.0,-7.0,-11.0,-100.0,-257.0,-95.0,0.0
-20.0,-11.0,-28.0,-26.0,-31.0,-8.0,-2.0,-72.0,-142.0,-68.0,0.0
-23.0,-5.0,-13.0,-28.0,-29.0,-14.0,-11.0,-44.0,-39.0,-63.0,0.0
-16.0,-3.0,7.0,-11.0,-20.0,-10.0,-8.0,-37.0,21.0,-57.0,0.0
5.0,1.0,11.0,0.0,-13.0,4.0,-30.0,-32.0,22.0,-50.0,0.0
10.0,6.0,20.0,0.0,-3.0,-1.0,-44.0,-27.0,-10.0,-33.0,0.0
5.0,4.0,32.0,-5.0,-4.0,0.0,-44.0,-22.0,-28.0,-28.0,0.0
6.0,4.0,35.0,-5.0,-9.0,10.0,-47.0,-6.0,-21.0,-25.0,0.0
20.0,3.0,30.0,-8.0,-1.0,20.0,-44.0,11.0,-5.0,-25.0,0.0
15.0,3.0,25.0,-6.0,-3.0,22.0,-38.0,13.0,-6.0,-11.0,0.0
6.0,3.0,15.0,-11.0,1.0,20.0,-24.0,-5.0,-2.0,0.0,0.0
3.0,-10.0,0.0,1.0,0.0,14.0,-17.0,-20.0,6.0,-4.0,0.0
-1.0,-29.0,-2.0,13.0,-11.0,10.0,-18.0,-9.0,19.0,-3.0,0.0
-18.0,-33.0,-13.0,8.0,-12.0,-11.0,-16.0,20.0,16.0,-23.0,0.0
-28.0,-24.0,-7.0,7.0,-15.0,-22.0,-3.0,21.0,6.0,-38.0,0.0
-28.0,-18.0,-10.0,17.0,-9.0,-27.0,8.0,22.0,13.0,-25.0,0.0
-43.0,-32.0,-22.0,20.0,-8.0,-29.0,22.0,24.0,21.0,-38.0,0.0
-20.0,-40.0,-18.0,7.0,-11.0,-23.0,17.0,17.0,33.0,-15.0,0.0
12.0,-28.0,11.0,3.0,-14.0,-27.0,9.0,14.0,45.0,52.0,0.0
8.0,-22.0,20.0,-3.0,-10.0,-28.0,9.0,17.0,49.0,88.0,0.0
8.0,-24.0,13.0,-11.0,0.0,-26.0,-3.0,28.0,47.0,71.0,0.0
13.0,-9.0,26.0,-7.0,0.0,-19.0,-5.0,37.0,48.0,34.0,0.0
17.0,-2.0,27.0,2.0,12.0,-19.0,-18.0,54.0,71.0,17.0,0.0
26.0,8.0,34.0,2.0,13.0,-15.0,-17.0,62.0,72.0,5.0,0.0
28.0,21.0,53.0,4.0,0.0,-15.0,-12.0,45.0,53.0,-21.0,0.0
27.0,30.0,65.0,7.0,-8.0,-8.0,-16.0,32.0,46.0,-53.0,0.0
24.0,44.0,68.0,20.0,-6.0,-1.0,-5.0,44.0,82.0,-76.0,0.0
17.0,41.0,57.0,14.0,1.0,-4.0,5.0,51.0,127.0,-85.0,0.0
13.0,34.0,56.0,10.0,6.0,-1.0,6.0,35.0,91.0,-77.0,0.0
-6.0,28.0,41.0,15.0,4.0,-3.0,1.0,14.0,2.0,-74.0,0.0
-23.0,2.0,25.0,10.0,8.0,-21.0,8.0,6.0,-95.0,-81.0,0.0
-37.0,-15.0,9.0,-3.0,10.0,-26.0,19.0,-4.0,-164.0,-85.0,0.0
-52.0,-25.0,-17.0,-11.0,2.0,-23.0,20.0,-13.0,-133.0,-63.0,0.0
-52.0,-35.0,-23.0,-5.0,-5.0,-19.0,25.0,-9.0,-85.0,-33.0,0.0
-42.0,-17.0,-13.0,-11.0,0.0,-9.0,23.0,-10.0,-71.0,-25.0,0.0
-41.0,2.0,-7.0,5.0,27.0,-2.0,37.0,-2.0,-106.0,-30.0,0.0
-28.0,15.0,-4.0,22.0,39.0,-1.0,48.0,1.0,-157.0,-56.0,0.0
-20.0,10.0,6.0,12.0,25.0,-4.0,35.0,20.0,-95.0,-56.0,0.0
-9.0,18.0,10.0,1.0,16.0,-21.0,18.0,52.0,2.0,-39.0,0.0
0.0,22.0,27.0,5.0,24.0,-23.0,6.0,82.0,50.0,-35.0,0.0
13.0,31.0,39.0,4.0,24.0,-20.0,4.0,87.0,105.0,-32.0,0.0
0.0,22.0,27.0,6.0,19.0,-13.0,-5.0,63.0,177.0,-27.0,0.0
-20.0,10.0,15.0,2.0,14.0,-17.0,-39.0,22.0,109.0,-19.0,0.0
-34.0,16.0,3.0,3.0,19.0,-20.0,-29.0,8.0,-26.0,-25.0,0.0
-21.0,23.0,11.0,10.0,11.0,-23.0,-13.0,-15.0,-50.0,-27.0,0.0
-3.0,24.0,20.0,19.0,4.0,-28.0,-13.0,-32.0,-24.0,-34.0,0.0
-1.0,12.0,4.0,9.0,2.0,-21.0,-1.0,-23.0,70.0,-21.0,0.0
-3.0,-6.0,-2.0,1.0,2.0,-12.0,11.0,-27.0,166.0,0.0,0.0
-11.0,-10.0,3.0,4.0,2.0,-1.0,0.0,-55.0,115.0,-1.0,0.0
-27.0,-28.0,-3.0,1.0,-14.0,-11.0,-5.0,-92.0,-84.0,-31.0,0.0
-40.0,-52.0,-11.0,2.0,-24.0,-21.0,1.0,-65.0,-183.0,-51.0,0.0
-47.0,-39.0,-14.0,19.0,-21.0,-25.0,8.0,-26.0,-133.0,-56.0,0.0
-46.0,-26.0,-8.0,29.0,-10.0,-17.0,13.0,-1.0,-65.0,-55.0,0.0
-33.0,-14.0,9.0,29.0,-11.0,-13.0,7.0,-2.0,-48.0,-59.0,0.0
-14.0,0.0,19.0,41.0,-14.0,-23.0,3.0,-11.0,-47.0,-51.0,0.0
-7.0,2.0,16.0,42.0,-9.0,-21.0,-7.0,-6.0,-20.0,-41.0,0.0
-2.0,11.0,7.0,18.0,-8.0,-22.0,-11.0,-4.0,3.0,-40.0,0.0
9.0,26.0,9.0,25.0,-7.0,-19.0,-17.0,-15.0,2.0,-44.0,0.0
10.0,60.0,24.0,26.0,12.0,-25.0,-32.0,-17.0,-3.0,-34.0,0.0
6.0,77.0,33.0,19.0,17.0,-30.0,-24.0,-11.0,-5.0,-29.0,0.0
3.0,61.0,13.0,9.0,7.0,-33.0,-3.0,-12.0,-4.0,-32.0,0.0
-7.0,14.0,-5.0,0.0,-6.0,-42.0,5.0,-16.0,-27.0,-46.0,0.0
-19.0,-8.0,-17.0,-11.0,-12.0,-35.0,13.0,-18.0,-41.0,-70.0,0.0
-16.0,3.0,-20.0,-13.0,-7.0,-33.0,7.0,-33.0,-40.0,-81.0,0.0
0.0,-2.0,-8.0,-15.0,-8.0,-33.0,16.0,-17.0,-45.0,-55.0,0.0
0.0,-22.0,-15.0,-24.0,-7.0,-34.0,14.0,4.0,-41.0,-40.0,0.0
0.0,-9.0,-19.0,-47.0,-6.0,-33.0,13.0,7.0,-18.0,-34.0,0.0
6.0,1.0,-15.0,-46.0,-6.0,-27.0,16.0,17.0,14.0,-13.0,0.0
20.0,16.0,-15.0,-27.0,2.0,-25.0,-2.0,21.0,45.0,10.0,0.0
36.0,20.0,-2.0,-9.0,22.0,-25.0,-9.0,9.0,72.0,8.0,0.0
35.0,17.0,-11.0,-1.0,13.0,-27.0,-21.0,-8.0,110.0,-9.0,0.0
18.0,-4.0,-17.0,6.0,4.0,-16.0,2.0,-14.0,85.0,-22.0,0.0
19.0,-12.0,-16.0,9.0,-8.0,-18.0,36.0,-3.0,46.0,-1.0,0.0
28.0,-8.0,-14.0,17.0,-10.0,-17.0,8.0,15.0,43.0,13.0,0.0
32.0,2.0,3.0,20.0,-5.0,-2.0,-13.0,27.0,28.0,0.0,0.0
36.0,1.0,13.0,28.0,4.0,3.0,-18.0,19.0,-16.0,-42.0,0.0
52.0,-2.0,13.0,29.0,-1.0,9.0,-13.0,8.0,-74.0,-40.0,0.0
57.0,-11.0,13.0,22.0,-9.0,10.0,3.0,8.0,-158.0,0.0,0.0
59.0,-22.0,5.0,6.0,-1.0,12.0,4.0,15.0,-153.0,68.0,0.0
64.0,-22.0,-7.0,-7.0,-3.0,1.0,21.0,27.0,-70.0,140.0,0.0
70.0,-21.0,-14.0,-11.0,-11.0,3.0,37.0,37.0,26.0,159.0,0.0
71.0,-17.0,12.0,-4.0,-1.0,29.0,41.0,12.0,40.0,125.0,0.0
28.0,-20.0,14.0,17.0,3.0,39.0,43.0,-23.0,0.0,25.0,0.0
-14.0,-37.0,4.0,16.0,-2.0,27.0,26.0,-48.0,64.0,-105.0,0.0
-31.0,-49.0,7.0,7.0,-7.0,21.0,-3.0,-60.0,165.0,-179.0,0.0
-39.0,-47.0,-2.0,-4.0,-10.0,26.0,-18.0,-72.0,20.0,-229.0,0.0
-54.0,-35.0,-14.0,-24.0,-15.0,23.0,-36.0,-62.0,-232.0,-235.0,0.0
-49.0,-27.0,-12.0,-27.0,-20.0,9.0,-54.0,-5.0,-150.0,-157.0,0.0
-24.0,-2.0,-6.0,-17.0,-10.0,1.0,-59.0,4.0,-57.0,-96.0,0.0
0.0,20.0,0.0,-27.0,-3.0,8.0,-62.0,-33.0,-60.0,-58.0,0.0
13.0,31.0,14.0,-31.0,0.0,19.0,-60.0,-45.0,-71.0,-30.0,0.0
14.0,40.0,13.0,-29.0,7.0,25.0,-55.0,-38.0,-86.0,-44.0,0.0
12.0,41.0,2.0,-17.0,13.0,24.0,-50.0,-34.0,-92.0,-75.0,0.0
3.0,25.0,-2.0,-18.0,1.0,21.0,-42.0,-36.0,-90.0,-92.0,0.0
-9.0,2.0,-12.0,-35.0,-9.0,11.0,-26.0,-34.0,-64.0,-76.0,0.0
-4.0,0.0,-26.0,-34.0,-21.0,6.0,-4.0,-20.0,-24.0,-47.0,0.0
13.0,-2.0,-31.0,-29.0,-20.0,4.0,15.0,0.0,8.0,-15.0,0.0
22.0,-9.0,-40.0,-34.0,-16.0,8.0,23.0,11.0,31.0,5.0,0.0
10.0,-7.0,-34.0,-38.0,-15.0,9.0,35.0,10.0,47.0,1.0,0.0
-2.0,-7.0,-39.0,-38.0,-13.0,8.0,47.0,7.0,53.0,-16.0,0.0
5.0,-21.0,-57.0,-32.0,-14.0,1.0,38.0,1.0,44.0,-34.0,0.0
16.0,-19.0,-56.0,-26.0,-4.0,5.0,25.0,-7.0,33.0,-47.0,0.0
16.0,4.0,-30.0,-23.0,1.0,1.0,21.0,-18.0,28.0,-38.0,0.0
20.0,7.0,-13.0,-12.0,10.0,6.0,14.0,-12.0,25.0,-20.0,0.0
13.0,5.0,-14.0,4.0,14.0,8.0,10.0,3.0,27.0,-10.0,0.0
16.0,11.0,-9.0,11.0,18.0,11.0,-8.0,13.0,38.0,-11.0,0.0
18.0,7.0,-1.0,9.0,16.0,19.0,-30.0,15.0,37.0,-19.0,0.0
8.0,15.0,10.0,9.0,25.0,21.0,-25.0,15.0,39.0,-17.0,0.0
16.0,35.0,8.0,2.0,26.0,24.0,-11.0,19.0,56.0,-2.0,0.0
18.0,26.0,-11.0,10.0,14.0,10.0,-13.0,16.0,56.0,1.0,0.0
5.0,13.0,-17.0,4.0,10.0,-15.0,-18.0,-3.0,20.0,-17.0,0.0
-8.0,12.0,-10.0,3.0,25.0,-23.0,-6.0,-13.0,1.0,-43.0,0.0
10.0,22.0,-23.0,0.0,29.0,-13.0,-1.0,-6.0,3.0,-42.0,0.0
10.0,8.0,-24.0,-7.0,18.0,-16.0,4.0,-9.0,3.0,-30.0,0.0
19.0,16.0,-20.0,-9.0,-2.0,-13.0,7.0,-5.0,-3.0,-18.0,0.0
21.0,17.0,-29.0,-8.0,-19.0,-11.0,9.0,-3.0,-13.0,-4.0,0.0
19.0,22.0,-25.0,-7.0,-20.0,-22.0,26.0,11.0,-15.0,3.0,0.0
18.0,26.0,-30.0,-7.0,-17.0,-16.0,32.0,22.0,-7.0,18.0,0.0
18.0,25.0,-30.0,11.0,-12.0,-10.0,36.0,37.0,11.0,18.0,0.0
4.0,6.0,-15.0,17.0,-8.0,-4.0,29.0,58.0,77.0,7.0,0.0
6.0,2.0,-9.0,-6.0,1.0,10.0,22.0,50.0,148.0,0.0,0.0
12.0,6.0,3.0,-17.0,15.0,15.0,10.0,29.0,168.0,-5.0,0.0
-1.0,9.0,7.0,-25.0,10.0,4.0,-19.0,-13.0,76.0,-26.0,0.0
-13.0,6.0,-7.0,-38.0,4.0,7.0,-20.0,-51.0,-56.0,-30.0,0.0
-2.0,3.0,-14.0,-32.0,2.0,16.0,-23.0,-38.0,-32.0,-14.0,0.0
17.0,13.0,8.0,-9.0,7.0,14.0,-38.0,-15.0,38.0,-7.0,0.0
21.0,10.0,11.0,11.0,1.0,2.0,-23.0,-14.0,59.0,-9.0,0.0
14.0,12.0,10.0,4.0,9.0,9.0,-7.0,-7.0,18.0,-21.0,0.0
-9.0,2.0,-3.0,-18.0,7.0,13.0,0.0,-11.0,-67.0,-44.0,0.0
-21.0,-16.0,-7.0,-23.0,-15.0,3.0,0.0,-18.0,-150.0,-71.0,0.0
-21.0,-21.0,-14.0,-33.0,-9.0,9.0,5.0,-12.0,-130.0,-47.0,0.0
-29.0,-31.0,-23.0,-54.0,-16.0,7.0,24.0,6.0,-6.0,0.0,0.0
-51.0,-46.0,-34.0,-44.0,-24.0,-1.0,31.0,10.0,52.0,-3.0,0.0
-60.0,-54.0,-30.0,-18.0,-22.0,-6.0,37.0,-5.0,18.0,-27.0,0.0
-40.0,-43.0,-21.0,-12.0,-13.0,-13.0,32.0,-17.0,-19.0,-31.0,0.0
-24.0,-41.0,-12.0,-5.0,0.0,-6.0,27.0,1.0,-9.0,-14.0,0.0
-25.0,-41.0,-2.0,4.0,5.0,-1.0,23.0,17.0,6.0,-8.0,0.0
-6.0,-25.0,10.0,5.0,-2.0,8.0,22.0,16.0,14.0,4.0,0.0
17.0,-14.0,11.0,6.0,2.0,4.0,23.0,7.0,24.0,10.0,0.0
22.0,-4.0,11.0,15.0,4.0,3.0,0.0,4.0,20.0,7.0,0.0
13.0,14.0,10.0,9.0,12.0,6.0,-17.0,7.0,5.0,-2.0,0.0
18.0,16.0,10.0,9.0,18.0,-8.0,-31.0,5.0,-12.0,-20.0,0.0
5.0,20.0,6.0,7.0,8.0,-14.0,-41.0,-6.0,-23.0,-24.0,0.0
-9.0,46.0,7.0,8.0,0.0,-26.0,-19.0,-3.0,-28.0,-14.0,0.0
-21.0,63.0,8.0,20.0,10.0,-24.0,-2.0,-1.0,-10.0,1.0,0.0
-24.0,54.0,5.0,22.0,12.0,-16.0,6.0,8.0,3.0,4.0,0.0
-26.0,5.0,-1.0,8.0,2.0,-21.0,27.0,16.0,1.0,1.0,0.0
-34.0,-13.0,-16.0,-8.0,-13.0,-19.0,21.0,13.0,5.0,1.0,0.0
-43.0,-13.0,-17.0,-6.0,-20.0,-12.0,25.0,22.0,7.0,-4.0,0.0
-43.0,-31.0,-19.0,-8.0,-18.0,-16.0,35.0,17.0,-7.0,-24.0,0.0
-41.0,-27.0,-18.0,-14.0,-13.0,-14.0,33.0,9.0,-10.0,-13.0,0.0
-27.0,-17.0,-8.0,-8.0,-14.0,-8.0,24.0,14.0,2.0,-1.0,0.0
-15.0,-16.0,0.0,-5.0,-16.0,0.0,6.0,25.0,17.0,-1.0,0.0
-13.0,0.0,-10.0,10.0,-21.0,0.0,-4.0,29.0,14.0,3.0,0.0
0.0,14.0,-10.0,20.0,-12.0,-2.0,-7.0,33.0,7.0,7.0,0.0
4.0,28.0,-12.0,17.0,-2.0,1.0,-18.0,29.0,10.0,3.0,0.0
15.0,37.0,4.0,21.0,-1.0,0.0,-33.0,21.0,14.0,10.0,0.0
22.0,26.0,22.0,28.0,6.0,3.0,-36.0,24.0,23.0,14.0,0.0
6.0,11.0,16.0,29.0,16.0,7.0,-35.0,36.0,15.0,23.0,0.0
6.0,16.0,12.0,21.0,22.0,6.0,-18.0,34.0,2.0,26.0,0.0
2.0,12.0,16.0,1.0,34.0,-8.0,2.0,25.0,-12.0,17.0,0.0
-20.0,0.0,13.0,6.0,36.0,-15.0,9.0,19.0,-21.0,0.0,0.0
-36.0,-6.0,8.0,14.0,29.0,-16.0,13.0,9.0,-22.0,0.0,0.0
-48.0,-4.0,17.0,-7.0,18.0,-7.0,33.0,11.0,1.0,10.0,0.0
-52.0,5.0,16.0,-31.0,16.0,-7.0,51.0,8.0,18.0,20.0,0.0
-43.0,-4.0,4.0,-33.0,12.0,-27.0,47.0,17.0,15.0,14.0,0.0
-41.0,-13.0,0.0,-37.0,5.0,-28.0,45.0,31.0,21.0,10.0,0.0
-37.0,-12.0,-4.0,-34.0,5.0,-19.0,41.0,16.0,26.0,17.0,0.0
-23.0,-11.0,2.0,-31.0,4.0,-1.0,27.0,9.0,34.0,27.0,0.0
-2.0,-5.0,2.0,-25.0,-1.0,1.0,7.0,10.0,72.0,38.0,0.0
7.0,5.0,11.0,-19.0,3.0,-9.0,0.0,11.0,127.0,51.0,0.0
9.0,4.0,16.0,-19.0,12.0,-8.0,-13.0,14.0,131.0,56.0,0.0
14.0,2.0,24.0,-24.0,16.0,-20.0,-27.0,10.0,83.0,61.0,0.0
24.0,7.0,38.0,-19.0,13.0,-20.0,-34.0,5.0,33.0,64.0,0.0
31.0,28.0,37.0,-6.0,9.0,-9.0,-38.0,-10.0,-6.0,59.0,0.0
27.0,27.0,30.0,4.0,21.0,1.0,-35.0,-12.0,-28.0,56.0,0.0
19.0,13.0,33.0,2.0,24.0,3.0,-26.0,-13.0,-48.0,25.0,0.0
20.0,12.0,35.0,-6.0,17.0,7.0,1.0,-6.0,-58.0,3.0,0.0
27.0,19.0,28.0,6.0,12.0,26.0,29.0,0.0,-55.0,19.0,0.0
40.0,24.0,13.0,27.0,2.0,23.0,48.0,0.0,-80.0,43.0,0.0
37.0,16.0,0.0,36.0,-3.0,17.0,53.0,-6.0,-95.0,54.0,0.0
38.0,1.0,-10.0,36.0,-7.0,20.0,65.0,-10.0,-90.0,69.0,0.0
35.0,-9.0,-9.0,29.0,-6.0,24.0,67.0,-5.0,-82.0,102.0,0.0
9.0,-20.0,-5.0,19.0,-3.0,27.0,66.0,35.0,-52.0,113.0,0.0
-12.0,-14.0,1.0,16.0,-4.0,25.0,62.0,70.0,58.0,99.0,0.0
-27.0,-16.0,6.0,14.0,-7.0,8.0,35.0,120.0,261.0,93.0,0.0
-40.0,-21.0,7.0,11.0,-20.0,-5.0,3.0,136.0,381.0,75.0,0.0
-29.0,8.0,26.0,19.0,-7.0,2.0,-35.0,46.0,274.0,25.0,0.0
-37.0,23.0,24.0,22.0,9.0,24.0,-43.0,-69.0,66.0,-23.0,0.0
-39.0,2.0,14.0,10.0,5.0,23.0,17.0,-101.0,-57.0,-61.0,0.0
-19.0,8.0,24.0,3.0,8.0,22.0,24.0,-99.0,-86.0,-35.0,0.0
-3.0,18.0,33.0,-1.0,9.0,10.0,-13.0,-73.0,-97.0,-2.0,0.0
-22.0,3.0,24.0,-1.0,15.0,14.0,-18.0,-27.0,-172.0,-23.0,0.0
-19.0,-12.0,0.0,-8.0,12.0,23.0,15.0,48.0,-238.0,-31.0,0.0
28.0,-7.0,0.0,-21.0,-10.0,17.0,28.0,92.0,-137.0,40.0,0.0
20.0,-1.0,-3.0,-23.0,-21.0,22.0,26.0,105.0,2.0,65.0,0.0
-7.0,-12.0,-6.0,-28.0,-31.0,22.0,24.0,104.0,128.0,47.0,0.0
-13.0,-14.0,-24.0,-28.0,-29.0,19.0,18.0,56.0,259.0,35.0,0.0
-21.0,-10.0,-30.0,-23.0,-25.0,8.0,-2.0,-60.0,246.0,7.0,0.0
-27.0,-12.0,-29.0,-19.0,-30.0,-8.0,-59.0,-206.0,-55.0,-17.0,0.0
-25.0,-4.0,-33.0,-16.0,-34.0,-22.0,-86.0,-248.0,-321.0,1.0,0.0
-18.0,10.0,-15.0,-7.0,-31.0,-5.0,-61.0,-167.0,-248.0,34.0,0.0
-10.0,25.0,0.0,8.0,-19.0,21.0,-50.0,-90.0,-107.0,59.0,0.0
-15.0,30.0,11.0,6.0,-11.0,29.0,-38.0,-53.0,-51.0,61.0,0.0
-11.0,20.0,23.0,4.0,5.0,32.0,-30.0,-41.0,-40.0,46.0,0.0
0.0,28.0,21.0,15.0,11.0,37.0,-26.0,-36.0,-47.0,41.0,0.0
24.0,21.0,19.0,25.0,12.0,49.0,-35.0,-38.0,-47.0,42.0,0.0
20.0,2.0,15.0,26.0,17.0,49.0,-30.0,-32.0,-30.0,35.0,0.0
7.0,-8.0,5.0,29.0,12.0,39.0,-41.0,-20.0,-17.0,30.0,0.0
1.0,-11.0,11.0,26.0,21.0,28.0,-45.0,-23.0,-12.0,27.0,0.0
-2.0,-9.0,16.0,25.0,29.0,12.0,-29.0,-17.0,-1.0,22.0,0.0
4.0,-18.0,13.0,26.0,27.0,3.0,-3.0,2.0,20.0,46.0,0.0
0.0,-32.0,6.0,7.0,19.0,1.0,19.0,40.0,52.0,94.0,0.0
0.0,-46.0,-9.0,-2.0,-2.0,0.0,27.0,62.0,43.0,114.0,0.0
5.0,-34.0,-20.0,-8.0,-15.0,0.0,39.0,59.0,44.0,122.0,0.0
6.0,-13.0,-20.0,0.0,-13.0,6.0,34.0,27.0,63.0,120.0,0.0
10.0,12.0,-11.0,14.0,-9.0,3.0,35.0,-23.0,45.0,85.0,0.0
6.0,58.0,-9.0,21.0,-7.0,1.0,31.0,-33.0,94.0,62.0,0.0
-20.0,77.0,-7.0,4.0,-8.0,-8.0,12.0,-22.0,196.0,36.0,0.0
-36.0,65.0,-15.0,-8.0,-23.0,-9.0,0.0,-4.0,112.0,2.0,0.0
-38.0,30.0,-17.0,-27.0,-27.0,-24.0,-15.0,7.0,-32.0,-15.0,0.0
-16.0,17.0,7.0,-24.0,-8.0,-24.0,-20.0,9.0,-53.0,-7.0,0.0
2.0,44.0,9.0,-14.0,-7.0,-30.0,-27.0,4.0,-24.0,23.0,0.0
24.0,47.0,12.0,-1.0,-1.0,-31.0,-32.0,-3.0,2.0,44.0,0.0
29.0,46.0,17.0,13.0,11.0,-24.0,-31.0,1.0,7.0,32.0,0.0
20.0,42.0,3.0,11.0,9.0,-23.0,-25.0,5.0,14.0,27.0,0.0
20.0,36.0,6.0,9.0,8.0,-20.0,-17.0,-6.0,6.0,34.0,0.0
18.0,31.0,-3.0,11.0,7.0,-22.0,2.0,-4.0,-16.0,41.0,0.0
15.0,24.0,-11.0,5.0,5.0,-13.0,-1.0,0.0,-35.0,36.0,0.0
-2.0,5.0,-12.0,2.0,7.0,-6.0,14.0,-7.0,-48.0,22.0,0.0
-21.0,-1.0,-20.0,-13.0,4.0,0.0,22.0,-16.0,-64.0,10.0,0.0
-21.0,3.0,-42.0,-8.0,9.0,0.0,23.0,-14.0,-65.0,20.0,0.0
-21.0,-13.0,-46.0,-6.0,8.0,8.0,40.0,-10.0,-65.0,52.0,0.0
-20.0,-27.0,-51.0,-13.0,0.0,18.0,63.0,36.0,-34.0,104.0,0.0
-24.0,-23.0,-53.0,-21.0,-4.0,14.0,67.0,73.0,58.0,114.0,0.0
-27.0,-29.0,-39.0,-25.0,-5.0,12.0,71.0,91.0,160.0,101.0,0.0
-18.0,-30.0,-18.0,-2.0,-5.0,9.0,65.0,71.0,228.0,97.0,0.0
4.0,-8.0,0.0,7.0,13.0,11.0,37.0,54.0,275.0,82.0,0.0
31.0,13.0,23.0,19.0,27.0,10.0,13.0,5.0,233.0,68.0,0.0
33.0,16.0,36.0,32.0,28.0,8.0,-24.0,-89.0,46.0,0.0,0.0
6.0,-5.0,17.0,12.0,19.0,-9.0,-65.0,-127.0,-92.0,-49.0,0.0
-19.0,-28.0,-7.0,-16.0,2.0,-23.0,-80.0,-106.0,-191.0,-72.0,0.0
-29.0,-33.0,-20.0,-11.0,-4.0,-33.0,-78.0,-64.0,-266.0,-74.0,0.0
-3.0,-31.0,-20.0,-14.0,-10.0,-19.0,-55.0,-50.0,-199.0,-33.0,0.0
19.0,-24.0,-2.0,-12.0,-10.0,-8.0,-34.0,-41.0,-105.0,-1.0,0.0
30.0,-34.0,-3.0,-22.0,-9.0,-19.0,-24.0,-21.0,-56.0,7.0,0.0
24.0,-28.0,-15.0,-27.0,-10.0,-26.0,-7.0,-13.0,-31.0,1.0,0.0
15.0,-28.0,-12.0,-36.0,-13.0,-11.0,16.0,2.0,-17.0,3.0,0.0
8.0,-42.0,-27.0,-37.0,-20.0,-12.0,32.0,12.0,-8.0,21.0,0.0
3.0,-57.0,-23.0,-38.0,-23.0,-16.0,34.0,29.0,15.0,45.0,0.0
-7.0,-77.0,-20.0,-43.0,-10.0,0.0,41.0,39.0,69.0,76.0,0.0
-7.0,-61.0,-22.0,-31.0,-3.0,22.0,38.0,42.0,144.0,93.0,0.0
-1.0,-34.0,-17.0,-15.0,-9.0,24.0,29.0,38.0,187.0,94.0,0.0
6.0,-21.0,-11.0,7.0,-13.0,22.0,16.0,50.0,171.0,75.0,0.0
12.0,-12.0,2.0,17.0,0.0,24.0,12.0,50.0,79.0,38.0,0.0
-2.0,-5.0,13.0,4.0,13.0,27.0,10.0,56.0,-19.0,17.0,0.0
-6.0,-4.0,11.0,-2.0,17.0,27.0,-6.0,54.0,-97.0,7.0,0.0
-1.0,0.0,12.0,-6.0,15.0,29.0,-15.0,42.0,-79.0,-4.0,0.0
7.0,2.0,17.0,1.0,1.0,20.0,-24.0,34.0,13.0,13.0,0.0
13.0,3.0,19.0,0.0,3.0,9.0,-18.0,11.0,65.0,54.0,0.0
25.0,-7.0,9.0,-6.0,-3.0,-11.0,-17.0,-20.0,43.0,90.0,0.0
17.0,-5.0,1.0,-16.0,-9.0,-38.0,-30.0,-21.0,16.0,69.0,0.0
11.0,-8.0,4.0,-15.0,-15.0,-32.0,-14.0,22.0,68.0,33.0,0.0
18.0,-5.0,-9.0,-14.0,-16.0,-17.0,11.0,39.0,99.0,16.0,0.0
12.0,-11.0,-9.0,0.0,4.0,-3.0,29.0,17.0,83.0,-16.0,0.0
16.0,-12.0,6.0,11.0,9.0,-12.0,16.0,-43.0,-34.0,-37.0,0.0
27.0,-19.0,2.0,0.0,-4.0,-19.0,5.0,-95.0,-201.0,-29.0,0.0
34.0,-31.0,-3.0,-1.0,-11.0,-18.0,16.0,-77.0,-219.0,0.0,0.0
33.0,-21.0,1.0,8.0,-7.0,-12.0,21.0,-61.0,-166.0,12.0,0.0
46.0,-15.0,13.0,15.0,-3.0,-7.0,10.0,-53.0,-132.0,29.0,0.0
46.0,0.0,29.0,25.0,-3.0,1.0,8.0,-60.0,-106.0,37.0,0.0
41.0,24.0,38.0,36.0,9.0,10.0,4.0,-55.0,-16.0,21.0,0.0
28.0,21.0,28.0,17.0,13.0,0.0,-15.0,-15.0,182.0,-6.0,0.0
-1.0,0.0,13.0,0.0,-7.0,-20.0,-41.0,10.0,153.0,-85.0,0.0
-25.0,-16.0,20.0,5.0,-13.0,-24.0,-59.0,-11.0,-95.0,-131.0,0.0
-21.0,-33.0,10.0,-7.0,-8.0,-16.0,-46.0,-10.0,-108.0,-101.0,0.0
-18.0,-31.0,8.0,-15.0,-7.0,-11.0,-38.0,-9.0,-45.0,-71.0,0.0
-20.0,-32.0,6.0,-4.0,-6.0,-12.0,-27.0,-20.0,-38.0,-61.0,0.0
-24.0,-29.0,9.0,-9.0,-13.0,-11.0,-22.0,-36.0,-46.0,-58.0,0.0
-22.0,-14.0,7.0,-19.0,-15.0,-16.0,-12.0,-26.0,-30.0,-43.0,0.0
-4.0,11.0,3.0,-4.0,-16.0,-15.0,-4.0,-13.0,-2.0,-29.0,0.0
7.0,1.0,-10.0,15.0,-28.0,-19.0,0.0,-8.0,2.0,-29.0,0.0
4.0,-11.0,-24.0,5.0,-31.0,-23.0,9.0,0.0,1.0,-19.0,0.0
-3.0,0.0,-32.0,-2.0,-28.0,-21.0,16.0,3.0,12.0,1.0,0.0
3.0,5.0,-24.0,2.0,-23.0,-16.0,7.0,2.0,34.0,12.0,0.0
4.0,1.0,-17.0,12.0,-13.0,-16.0,0.0,8.0,33.0,13.0,0.0
-16.0,-4.0,-17.0,0.0,-6.0,-4.0,-4.0,-3.0,16.0,13.0,0.0
-4.0,0.0,-8.0,-13.0,-6.0,11.0,-8.0,3.0,-12.0,15.0,0.0
5.0,0.0,-1.0,-7.0,-1.0,10.0,-18.0,30.0,-36.0,34.0,0.0
11.0,2.0,4.0,-2.0,7.0,16.0,-23.0,53.0,-38.0,47.0,0.0
21.0,5.0,1.0,3.0,10.0,23.0,-31.0,58.0,26.0,67.0,0.0
43.0,11.0,0.0,8.0,10.0,21.0,-30.0,53.0,111.0,77.0,0.0
44.0,16.0,10.0,10.0,6.0,4.0,-33.0,31.0,180.0,67.0,0.0
50.0,16.0,21.0,7.0,-5.0,-8.0,-50.0,-12.0,165.0,38.0,0.0
27.0,-2.0,5.0,-6.0,-18.0,-6.0,-50.0,-62.0,1.0,-17.0,0.0
-15.0,-19.0,-30.0,-25.0,-29.0,-7.0,2.0,-81.0,-217.0,-73.0,0.0
-12.0,7.0,-32.0,-15.0,-22.0,-25.0,31.0,-56.0,-181.0,-76.0,0.0
2.0,33.0,-13.0,14.0,-4.0,-17.0,32.0,-14.0,-27.0,-39.0,0.0
2.0,13.0,-4.0,17.0,5.0,-6.0,38.0,3.0,25.0,-7.0,0.0
-2.0,-19.0,-10.0,11.0,4.0,-3.0,35.0,12.0,26.0,12.0,0.0
0.0,-4.0,-14.0,0.0,-5.0,-13.0,34.0,22.0,28.0,32.0,0.0
11.0,11.0,2.0,-7.0,-4.0,-11.0,37.0,34.0,24.0,40.0,0.0
6.0,3.0,5.0,-10.0,6.0,-3.0,16.0,36.0,10.0,34.0,0.0
3.0,17.0,5.0,-8.0,14.0,1.0,3.0,18.0,7.0,26.0,0.0
21.0,30.0,11.0,4.0,9.0,9.0,9.0,5.0,3.0,27.0,0.0
39.0,33.0,25.0,16.0,16.0,18.0,2.0,11.0,4.0,24.0,0.0
40.0,42.0,24.0,24.0,24.0,20.0,-3.0,21.0,1.0,20.0,0.0
38.0,38.0,30.0,38.0,38.0,15.0,-8.0,17.0,24.0,36.0,0.0
17.0,36.0,33.0,50.0,40.0,15.0,-4.0,20.0,46.0,49.0,0.0
9.0,31.0,21.0,33.0,28.0,9.0,4.0,18.0,38.0,42.0,0.0
2.0,35.0,15.0,19.0,8.0,4.0,10.0,22.0,35.0,52.0,0.0
5.0,27.0,-5.0,11.0,-13.0,-4.0,15.0,21.0,31.0,61.0,0.0
6.0,25.0,-8.0,15.0,-29.0,-8.0,6.0,11.0,26.0,47.0,0.0
-3.0,10.0,-28.0,20.0,-30.0,-8.0,17.0,13.0,12.0,48.0,0.0
0.0,4.0,-40.0,14.0,-28.0,-10.0,28.0,21.0,20.0,44.0,0.0
1.0,6.0,-33.0,5.0,-22.0,-19.0,41.0,28.0,28.0,55.0,0.0
0.0,-1.0,-23.0,3.0,-18.0,-25.0,44.0,32.0,46.0,68.0,0.0
-2.0,-4.0,-16.0,12.0,-14.0,-18.0,42.0,30.0,56.0,75.0,0.0
-3.0,7.0,-20.0,17.0,-4.0,0.0,34.0,24.0,55.0,93.0,0.0
4.0,22.0,-15.0,31.0,8.0,2.0,13.0,22.0,51.0,111.0,0.0
27.0,30.0,20.0,37.0,11.0,-9.0,11.0,1.0,51.0,94.0,0.0
35.0,40.0,36.0,25.0,7.0,-15.0,22.0,-18.0,4.0,56.0,0.0
19.0,33.0,29.0,4.0,11.0,-8.0,26.0,-40.0,-64.0,26.0,0.0
16.0,31.0,12.0,11.0,14.0,2.0,10.0,-37.0,-89.0,26.0,0.0
17.0,38.0,10.0,39.0,15.0,10.0,-4.0,-19.0,-80.0,56.0,0.0
14.0,30.0,9.0,44.0,20.0,14.0,-3.0,-6.0,-41.0,78.0,0.0
12.0,27.0,6.0,38.0,21.0,13.0,-7.0,-12.0,-27.0,66.0,0.0
-3.0,22.0,6.0,42.0,9.0,20.0,-11.0,-22.0,-20.0,38.0,0.0
-33.0,10.0,4.0,31.0,-2.0,4.0,-18.0,-3.0,20.0,14.0,0.0
-39.0,-7.0,-18.0,20.0,-40.0,9.0,-8.0,13.0,55.0,20.0,0.0
-52.0,-6.0,-38.0,9.0,-46.0,6.0,6.0,5.0,25.0,14.0,0.0
-67.0,-29.0,-19.0,0.0,-31.0,-2.0,22.0,-1.0,-47.0,-15.0,0.0
-36.0,-27.0,-9.0,0.0,-28.0,-8.0,26.0,-8.0,-56.0,-6.0,0.0
-13.0,-14.0,-18.0,-2.0,-29.0,-15.0,32.0,-17.0,-33.0,18.0,0.0
-3.0,-1.0,-30.0,1.0,-35.0,-7.0,34.0,-12.0,-7.0,48.0,0.0
0.0,8.0,-31.0,2.0,-26.0,1.0,26.0,0.0,6.0,60.0,0.0
-5.0,14.0,-15.0,3.0,-20.0,5.0,18.0,3.0,14.0,60.0,0.0
5.0,24.0,-6.0,-2.0,-17.0,-3.0,-4.0,3.0,27.0,68.0,0.0
21.0,32.0,-2.0,-1.0,-8.0,-10.0,-23.0,1.0,20.0,51.0,0.0
14.0,37.0,13.0,14.0,1.0,2.0,-31.0,-10.0,2.0,52.0,0.0
29.0,43.0,11.0,24.0,11.0,17.0,-28.0,-6.0,-10.0,40.0,0.0
39.0,43.0,7.0,20.0,18.0,33.0,-20.0,-1.0,-20.0,36.0,0.0
31.0,34.0,17.0,15.0,18.0,30.0,-25.0,2.0,-8.0,37.0,0.0
21.0,34.0,13.0,1.0,6.0,17.0,-14.0,3.0,6.0,45.0,0.0
10.0,36.0,10.0,-5.0,5.0,0.0,-17.0,3.0,4.0,43.0,0.0
-4.0,17.0,6.0,0.0,18.0,4.0,-6.0,16.0,8.0,43.0,0.0
-15.0,-5.0,14.0,3.0,7.0,10.0,4.0,21.0,19.0,35.0,0.0
-18.0,-12.0,28.0,-9.0,0.0,2.0,10.0,18.0,19.0,30.0,0.0
-18.0,-25.0,25.0,-9.0,0.0,-10.0,15.0,18.0,17.0,24.0,0.0
-37.0,-39.0,8.0,-10.0,0.0,-11.0,21.0,5.0,3.0,26.0,0.0
-43.0,-35.0,9.0,-20.0,1.0,-20.0,27.0,-3.0,4.0,23.0,0.0
-46.0,-28.0,18.0,-34.0,19.0,-9.0,19.0,19.0,14.0,35.0,0.0
-45.0,-19.0,23.0,-17.0,37.0,-1.0,21.0,65.0,51.0,62.0,0.0
-51.0,-4.0,23.0,-5.0,43.0,9.0,23.0,126.0,157.0,79.0,0.0
-43.0,0.0,20.0,-6.0,48.0,21.0,25.0,152.0,170.0,79.0,0.0
-25.0,9.0,23.0,-16.0,46.0,20.0,21.0,150.0,97.0,56.0,0.0
-17.0,19.0,12.0,-14.0,31.0,19.0,13.0,136.0,69.0,48.0,0.0
-2.0,27.0,24.0,-3.0,21.0,15.0,1.0,88.0,79.0,69.0,0.0
26.0,47.0,46.0,1.0,24.0,13.0,-39.0,-20.0,4.0,85.0,0.0
39.0,63.0,47.0,8.0,27.0,-9.0,-67.0,-112.0,-225.0,86.0,0.0
39.0,63.0,45.0,23.0,31.0,6.0,-42.0,-91.0,-210.0,81.0,0.0
27.0,37.0,29.0,30.0,33.0,22.0,-30.0,-48.0,-55.0,40.0,0.0
-7.0,-1.0,10.0,23.0,13.0,6.0,-54.0,-60.0,38.0,-18.0,0.0
-61.0,-45.0,0.0,-11.0,-17.0,-23.0,-76.0,-98.0,-64.0,-101.0,0.0
-89.0,-66.0,-17.0,-43.0,-26.0,-38.0,-55.0,-81.0,-163.0,-125.0,0.0
-81.0,-56.0,-8.0,-45.0,-27.0,-29.0,-21.0,-52.0,12.0,-81.0,0.0
-66.0,-35.0,-5.0,-41.0,-29.0,-19.0,-12.0,-49.0,121.0,-47.0,0.0
-56.0,-28.0,-28.0,-37.0,-33.0,-23.0,-8.0,-43.0,13.0,-46.0,0.0
-50.0,-40.0,-28.0,-40.0,-24.0,-28.0,-12.0,-47.0,-210.0,-66.0,0.0
-22.0,-27.0,-13.0,-55.0,-12.0,-19.0,-6.0,-48.0,-250.0,-73.0,0.0
19.0,10.0,-12.0,-28.0,-11.0,-12.0,2.0,-33.0,-181.0,-47.0,0.0
48.0,32.0,1.0,-22.0,-5.0,-5.0,5.0,-11.0,-102.0,-11.0,0.0
54.0,32.0,19.0,-31.0,-3.0,-6.0,-2.0,0.0,-53.0,1.0,0.0
45.0,19.0,22.0,-24.0,7.0,-8.0,-15.0,-1.0,-51.0,1.0,0.0
29.0,18.0,24.0,2.0,11.0,1.0,-36.0,-16.0,-70.0,0.0,0.0
23.0,7.0,22.0,13.0,8.0,-2.0,-32.0,-27.0,-62.0,11.0,0.0
5.0,-22.0,2.0,11.0,4.0,-7.0,-24.0,-17.0,-53.0,13.0,0.0
-27.0,-47.0,-18.0,-11.0,0.0,7.0,-15.0,4.0,-55.0,-6.0,0.0
-46.0,-59.0,-26.0,-32.0,-8.0,6.0,4.0,14.0,-35.0,-37.0,0.0
-47.0,-64.0,-29.0,-36.0,-11.0,5.0,26.0,21.0,-6.0,-56.0,0.0
-34.0,-65.0,-23.0,-36.0,-3.0,12.0,49.0,25.0,8.0,-48.0,0.0
-19.0,-59.0,-24.0,-48.0,-6.0,0.0,35.0,21.0,22.0,-9.0,0.0
-12.0,-41.0,-10.0,-53.0,0.0,3.0,30.0,0.0,14.0,53.0,0.0
-7.0,-25.0,-8.0,-27.0,-5.0,0.0,30.0,-17.0,-4.0,67.0,0.0
0.0,-17.0,-11.0,1.0,-14.0,4.0,8.0,-11.0,11.0,55.0,0.0
8.0,-15.0,-6.0,0.0,-3.0,9.0,-2.0,0.0,20.0,49.0,0.0
6.0,-17.0,5.0,4.0,10.0,30.0,-1.0,12.0,18.0,59.0,0.0
11.0,-13.0,16.0,15.0,8.0,35.0,-8.0,26.0,29.0,74.0,0.0
9.0,1.0,21.0,30.0,3.0,23.0,-18.0,29.0,33.0,65.0,0.0
24.0,16.0,29.0,37.0,-2.0,25.0,-39.0,19.0,41.0,62.0,0.0
33.0,17.0,35.0,29.0,-8.0,31.0,-51.0,12.0,30.0,48.0,0.0
32.0,16.0,34.0,23.0,-11.0,4.0,-51.0,11.0,17.0,9.0,0.0
24.0,22.0,26.0,19.0,-6.0,-10.0,-46.0,7.0,14.0,-22.0,0.0
13.0,27.0,22.0,7.0,-1.0,-5.0,-45.0,8.0,4.0,-27.0,0.0
5.0,14.0,20.0,-5.0,-6.0,0.0,-36.0,4.0,-7.0,0.0,0.0
0.0,18.0,4.0,-17.0,-21.0,-6.0,-8.0,-17.0,-25.0,-5.0,0.0
-5.0,25.0,-18.0,-11.0,-29.0,-5.0,-1.0,-29.0,-24.0,-30.0,0.0
-1.0,29.0,-18.0,-5.0,-29.0,3.0,7.0,-17.0,-2.0,-7.0,0.0
-3.0,30.0,-17.0,-9.0,-34.0,8.0,27.0,-11.0,17.0,20.0,0.0
-2.0,21.0,-23.0,-14.0,-35.0,16.0,38.0,-7.0,60.0,32.0,0.0
-8.0,-12.0,-26.0,-15.0,-26.0,1.0,38.0,6.0,160.0,50.0,0.0
-3.0,-14.0,-20.0,-27.0,-13.0,-2.0,22.0,23.0,216.0,46.0,0.0
25.0,4.0,-1.0,-9.0,-5.0,15.0,11.0,13.0,110.0,22.0,0.0
47.0,21.0,4.0,12.0,3.0,24.0,4.0,20.0,-4.0,8.0,0.0
50.0,22.0,6.0,2.0,10.0,27.0,-5.0,22.0,-101.0,-10.0,0.0
55.0,34.0,3.0,5.0,14.0,19.0,-15.0,15.0,-140.0,0.0,0.0
62.0,50.0,0.0,15.0,9.0,15.0,-34.0,21.0,-75.0,40.0,0.0
56.0,52.0,2.0,12.0,14.0,11.0,-30.0,42.0,-4.0,69.0,0.0
45.0,28.0,7.0,11.0,12.0,8.0,-25.0,42.0,35.0,49.0,0.0
24.0,10.0,16.0,13.0,7.0,9.0,-41.0,24.0,23.0,0.0,0.0
4.0,10.0,14.0,14.0,10.0,12.0,-54.0,19.0,2.0,-30.0,0.0
-3.0,-1.0,8.0,16.0,0.0,1.0,-55.0,9.0,4.0,-25.0,0.0
2.0,-1.0,16.0,9.0,-10.0,-9.0,-59.0,-17.0,2.0,-44.0,0.0
-15.0,-12.0,14.0,-6.0,-4.0,12.0,-23.0,-10.0,-12.0,-54.0,0.0
-31.0,-25.0,-10.0,-21.0,-2.0,14.0,45.0,4.0,-20.0,-42.0,0.0
-8.0,-27.0,-14.0,-20.0,-3.0,2.0,60.0,-1.0,-5.0,11.0,0.0
-1.0,-32.0,-20.0,-21.0,-2.0,0.0,26.0,0.0,20.0,38.0,0.0
-12.0,-29.0,-23.0,-34.0,-7.0,-2.0,16.0,6.0,36.0,26.0,0.0
-3.0,-21.0,-7.0,-37.0,-5.0,-18.0,19.0,14.0,47.0,21.0,0.0
4.0,-20.0,1.0,-29.0,2.0,-14.0,12.0,21.0,36.0,12.0,0.0
5.0,-12.0,-5.0,-18.0,7.0,-7.0,8.0,27.0,25.0,36.0,0.0
7.0,0.0,-2.0,-13.0,10.0,-1.0,3.0,21.0,25.0,45.0,0.0
0.0,10.0,17.0,-21.0,17.0,8.0,1.0,13.0,8.0,40.0,0.0
2.0,9.0,25.0,-15.0,22.0,8.0,3.0,3.0,-14.0,25.0,0.0
8.0,5.0,21.0,-9.0,34.0,9.0,-15.0,-27.0,-53.0,16.0,0.0
6.0,4.0,16.0,-12.0,32.0,-1.0,-28.0,-39.0,-60.0,7.0,0.0
-2.0,-9.0,12.0,-1.0,17.0,-19.0,-13.0,4.0,-15.0,15.0,0.0
0.0,-10.0,10.0,-1.0,12.0,-5.0,20.0,84.0,3.0,44.0,0.0
6.0,-14.0,3.0,-1.0,12.0,4.0,52.0,124.0,-3.0,54.0,0.0
8.0,-19.0,-9.0,-1.0,7.0,8.0,60.0,112.0,30.0,46.0,0.0
0.0,-30.0,-16.0,4.0,1.0,8.0,65.0,109.0,158.0,50.0,0.0
-2.0,-38.0,-20.0,-7.0,-12.0,-1.0,51.0,91.0,361.0,40.0,0.0
3.0,-36.0,-23.0,-12.0,-24.0,-1.0,33.0,27.0,455.0,8.0,0.0
23.0,-17.0,-3.0,-2.0,-32.0,-4.0,-2.0,-130.0,196.0,-45.0,0.0
21.0,-14.0,0.0,-13.0,-48.0,-33.0,-57.0,-240.0,-227.0,-88.0,0.0
7.0,-26.0,-12.0,-25.0,-40.0,-29.0,-64.0,-210.0,-382.0,-105.0,0.0
-3.0,-19.0,3.0,-15.0,-17.0,-18.0,-48.0,-128.0,-237.0,-121.0,0.0
-12.0,-16.0,20.0,-1.0,-3.0,1.0,-36.0,-90.0,-104.0,-135.0,0.0
-19.0,-6.0,18.0,9.0,8.0,15.0,-32.0,-85.0,-77.0,-141.0,0.0
-2.0,-5.0,23.0,-1.0,12.0,17.0,-36.0,-83.0,-81.0,-116.0,0.0
18.0,-12.0,25.0,0.0,9.0,14.0,-50.0,-66.0,-73.0,-101.0,0.0
20.0,-2.0,21.0,0.0,13.0,11.0,-42.0,-31.0,-54.0,-83.0,0.0
13.0,4.0,7.0,-9.0,16.0,16.0,-10.0,-19.0,-51.0,-63.0,0.0
0.0,-13.0,-13.0,-15.0,12.0,18.0,10.0,-15.0,-65.0,-65.0,0.0
-2.0,-7.0,-15.0,-19.0,17.0,14.0,17.0,-15.0,-82.0,-45.0,0.0
-8.0,-1.0,0.0,-16.0,13.0,7.0,18.0,-15.0,-90.0,-29.0,0.0
-4.0,-2.0,2.0,-14.0,3.0,-4.0,18.0,-19.0,-86.0,-22.0,0.0
-8.0,-13.0,0.0,-12.0,-1.0,-4.0,37.0,-10.0,-19.0,-7.0,0.0
-23.0,-18.0,-4.0,-11.0,8.0,7.0,57.0,-9.0,14.0,-19.0,0.0
-31.0,-26.0,-4.0,3.0,11.0,14.0,59.0,-14.0,60.0,-56.0,0.0
-36.0,-27.0,-12.0,-12.0,6.0,8.0,48.0,-5.0,157.0,-79.0,0.0
-37.0,-21.0,-8.0,-24.0,-2.0,3.0,34.0,2.0,124.0,-83.0,0.0
-41.0,-11.0,-13.0,-33.0,-17.0,5.0,15.0,15.0,0.0,-72.0,0.0
-14.0,-16.0,-3.0,-25.0,-14.0,4.0,13.0,18.0,8.0,-47.0,0.0
12.0,0.0,13.0,0.0,8.0,14.0,-2.0,5.0,35.0,-38.0,0.0
24.0,10.0,6.0,11.0,15.0,13.0,0.0,16.0,47.0,-50.0,0.0
24.0,9.0,7.0,15.0,22.0,7.0,-1.0,18.0,11.0,-52.0,0.0
33.0,27.0,26.0,20.0,16.0,7.0,-16.0,4.0,-21.0,-47.0,0.0
47.0,47.0,33.0,18.0,5.0,6.0,-30.0,0.0,-43.0,-59.0,0.0
38.0,33.0,26.0,7.0,-4.0,10.0,-38.0,0.0,-45.0,-73.0,0.0
9.0,22.0,8.0,-1.0,-15.0,11.0,-21.0,12.0,-23.0,-80.0,0.0
-6.0,17.0,4.0,-10.0,-8.0,6.0,5.0,11.0,0.0,-89.0,0.0
-11.0,14.0,-3.0,-7.0,-3.0,4.0,22.0,8.0,-10.0,-93.0,0.0
-24.0,2.0,-12.0,16.0,1.0,3.0,28.0,0.0,-12.0,-101.0,0.0
-16.0,-5.0,-20.0,24.0,6.0,10.0,21.0,7.0,-9.0,-81.0,0.0
-4.0,-17.0,-16.0,12.0,-2.0,13.0,21.0,9.0,-15.0,-45.0,0.0
-3.0,-10.0,-20.0,14.0,-3.0,9.0,23.0,5.0,-32.0,-33.0,0.0
-4.0,3.0,-21.0,19.0,-4.0,0.0,27.0,8.0,-31.0,-28.0,0.0
-5.0,16.0,-16.0,24.0,11.0,0.0,17.0,21.0,-14.0,-13.0,0.0
0.0,11.0,9.0,25.0,12.0,8.0,29.0,35.0,-6.0,0.0,0.0
12.0,14.0,16.0,32.0,12.0,17.0,39.0,73.0,1.0,4.0,0.0
9.0,28.0,20.0,53.0,29.0,18.0,36.0,113.0,110.0,18.0,0.0
15.0,42.0,7.0,46.0,36.0,15.0,36.0,123.0,333.0,48.0,0.0
7.0,32.0,0.0,24.0,17.0,-1.0,16.0,120.0,440.0,21.0,0.0
-15.0,0.0,-7.0,0.0,-4.0,-21.0,-7.0,106.0,388.0,-32.0,0.0
-12.0,6.0,0.0,7.0,5.0,-24.0,-31.0,28.0,281.0,-78.0,0.0
-13.0,10.0,-4.0,1.0,-4.0,-31.0,-69.0,-88.0,9.0,-101.0,0.0
-23.0,-3.0,-21.0,-18.0,-28.0,-31.0,-73.0,-137.0,-265.0,-105.0,0.0
-27.0,-17.0,-27.0,-33.0,-27.0,-20.0,-42.0,-117.0,-357.0,-120.0,0.0
-23.0,-19.0,-16.0,-18.0,-20.0,-27.0,-35.0,-107.0,-360.0,-151.0,0.0
-25.0,-4.0,-9.0,-1.0,-18.0,-26.0,-33.0,-83.0,-271.0,-146.0,0.0
-34.0,-5.0,-14.0,-13.0,-8.0,-13.0,-12.0,-57.0,-177.0,-122.0,0.0
-49.0,-14.0,-18.0,-6.0,-8.0,-20.0,-1.0,-45.0,-126.0,-113.0,0.0
-45.0,-11.0,-26.0,-2.0,-20.0,-21.0,-14.0,-27.0,-90.0,-96.0,0.0
-30.0,-14.0,-31.0,-3.0,-23.0,-16.0,-7.0,-9.0,-58.0,-76.0,0.0
-14.0,-16.0,-19.0,-10.0,-19.0,-6.0,-7.0,0.0,-30.0,-58.0,0.0
5.0,12.0,0.0,6.0,-8.0,-4.0,-16.0,-3.0,-25.0,-45.0,0.0
11.0,46.0,17.0,16.0,16.0,-3.0,-11.0,-10.0,-13.0,-35.0,0.0
25.0,84.0,30.0,10.0,24.0,4.0,-9.0,-7.0,4.0,-11.0,0.0
49.0,100.0,33.0,7.0,31.0,13.0,-9.0,14.0,21.0,10.0,0.0
51.0,68.0,31.0,13.0,31.0,18.0,-13.0,29.0,35.0,8.0,0.0
41.0,31.0,34.0,24.0,40.0,23.0,-10.0,41.0,37.0,13.0,0.0
33.0,22.0,46.0,24.0,31.0,26.0,-22.0,30.0,29.0,4.0,0.0
26.0,10.0,43.0,19.0,25.0,16.0,-36.0,19.0,18.0,-6.0,0.0
7.0,-12.0,26.0,18.0,19.0,16.0,-23.0,20.0,13.0,-15.0,0.0
2.0,-28.0,18.0,13.0,17.0,9.0,-15.0,16.0,16.0,-7.0,0.0
0.0,-25.0,1.0,7.0,-2.0,1.0,-20.0,17.0,24.0,14.0,0.0
0.0,-31.0,-2.0,-6.0,-11.0,0.0,-15.0,10.0,29.0,29.0,0.0
-4.0,-40.0,-9.0,-16.0,-8.0,4.0,5.0,1.0,30.0,42.0,0.0
-9.0,-37.0,-30.0,-16.0,-7.0,14.0,18.0,-4.0,36.0,43.0,0.0
-9.0,-21.0,-27.0,-7.0,1.0,20.0,20.0,-8.0,27.0,20.0,0.0
-8.0,-10.0,-21.0,8.0,10.0,30.0,21.0,-4.0,0.0,-4.0,0.0
-8.0,-5.0,-13.0,9.0,15.0,34.0,17.0,-20.0,-13.0,0.0,0.0
-13.0,-15.0,0.0,4.0,15.0,35.0,3.0,-21.0,13.0,1.0,0.0
-9.0,-18.0,10.0,-8.0,12.0,21.0,-27.0,-1.0,46.0,0.0,0.0
-2.0,-23.0,12.0,-30.0,13.0,24.0,-25.0,21.0,66.0,11.0,0.0
14.0,-17.0,10.0,-40.0,12.0,28.0,-12.0,41.0,100.0,38.0,0.0
25.0,4.0,14.0,-37.0,18.0,23.0,-12.0,47.0,101.0,56.0,0.0
35.0,9.0,19.0,-28.0,10.0,24.0,-17.0,60.0,96.0,73.0,0.0
50.0,5.0,0.0,-35.0,-1.0,19.0,-5.0,83.0,113.0,94.0,0.0
49.0,8.0,-5.0,-43.0,-10.0,7.0,2.0,70.0,145.0,84.0,0.0
42.0,11.0,-20.0,-37.0,-16.0,11.0,0.0,50.0,150.0,64.0,0.0
26.0,5.0,-8.0,-30.0,-23.0,0.0,-2.0,22.0,177.0,62.0,0.0
22.0,0.0,4.0,-10.0,-20.0,-13.0,-1.0,-24.0,171.0,46.0,0.0
21.0,-8.0,-7.0,4.0,-8.0,-8.0,-13.0,-73.0,39.0,16.0,0.0
3.0,-16.0,-23.0,5.0,-3.0,-10.0,-25.0,-107.0,-161.0,-23.0,0.0
-11.0,-19.0,-28.0,0.0,-14.0,-13.0,-14.0,-97.0,-266.0,-37.0,0.0
-19.0,-33.0,-25.0,-8.0,-18.0,-20.0,-1.0,-27.0,-144.0,-33.0,0.0
-14.0,-50.0,-23.0,-4.0,-7.0,-14.0,-12.0,20.0,22.0,-33.0,0.0
-8.0,-37.0,-11.0,13.0,13.0,-9.0,-35.0,3.0,33.0,-36.0,0.0
-2.0,-10.0,-3.0,13.0,17.0,-2.0,-42.0,1.0,10.0,-23.0,0.0
11.0,1.0,7.0,13.0,30.0,15.0,-38.0,23.0,9.0,-5.0,0.0
25.0,6.0,36.0,33.0,45.0,17.0,-50.0,41.0,2.0,13.0,0.0
37.0,12.0,31.0,45.0,51.0,22.0,-61.0,34.0,15.0,60.0,0.0
26.0,3.0,0.0,33.0,41.0,37.0,-13.0,45.0,57.0,98.0,0.0
21.0,-3.0,-14.0,23.0,29.0,20.0,42.0,49.0,48.0,73.0,0.0
45.0,1.0,-1.0,20.0,22.0,2.0,42.0,26.0,-1.0,28.0,0.0
53.0,14.0,14.0,32.0,30.0,3.0,14.0,1.0,-26.0,-6.0,0.0
35.0,15.0,24.0,26.0,32.0,15.0,4.0,-2.0,16.0,-27.0,0.0
0.0,-9.0,13.0,13.0,17.0,18.0,14.0,-18.0,79.0,-40.0,0.0
-23.0,-24.0,-11.0,-8.0,-10.0,-3.0,-3.0,-27.0,-27.0,-61.0,0.0
-18.0,-25.0,-25.0,-17.0,-29.0,-12.0,0.0,-17.0,-143.0,-54.0,0.0
5.0,-8.0,-16.0,-14.0,-26.0,4.0,29.0,2.0,-109.0,-8.0,0.0
28.0,3.0,-15.0,-27.0,-29.0,5.0,37.0,14.0,-39.0,34.0,0.0
45.0,11.0,-10.0,-33.0,-31.0,5.0,35.0,18.0,-10.0,63.0,0.0
43.0,33.0,-2.0,-30.0,-23.0,4.0,25.0,22.0,32.0,67.0,0.0
50.0,42.0,3.0,-33.0,-18.0,3.0,10.0,36.0,103.0,78.0,0.0
53.0,45.0,4.0,-34.0,3.0,3.0,1.0,23.0,158.0,72.0,0.0
49.0,47.0,5.0,-30.0,6.0,8.0,-4.0,-20.0,63.0,5.0,0.0
43.0,30.0,8.0,-28.0,-14.0,7.0,-29.0,-55.0,-103.0,-48.0,0.0
40.0,25.0,28.0,-19.0,-7.0,5.0,-41.0,-35.0,-96.0,-37.0,0.0
46.0,28.0,35.0,-18.0,2.0,11.0,-40.0,-12.0,-42.0,4.0,0.0
44.0,24.0,8.0,-19.0,0.0,-2.0,-24.0,-2.0,-15.0,25.0,0.0
41.0,25.0,0.0,-13.0,3.0,-4.0,-12.0,-11.0,-27.0,-2.0,0.0
22.0,29.0,-2.0,2.0,1.0,-7.0,-12.0,-29.0,-62.0,-30.0,0.0
3.0,30.0,-10.0,27.0,2.0,-14.0,-9.0,-36.0,-77.0,-43.0,0.0
-17.0,12.0,-19.0,26.0,-11.0,-25.0,11.0,-48.0,-83.0,-62.0,0.0
-36.0,-6.0,-31.0,16.0,-15.0,-21.0,16.0,-54.0,-72.0,-70.0,0.0
-41.0,0.0,-31.0,11.0,-14.0,-12.0,11.0,-43.0,-47.0,-63.0,0.0
-42.0,1.0,-24.0,15.0,-11.0,-15.0,17.0,-22.0,-19.0,-52.0,0.0
-30.0,15.0,-20.0,-1.0,-3.0,-18.0,23.0,-14.0,0.0,-39.0,0.0
-10.0,12.0,-12.0,-26.0,3.0,-10.0,27.0,-7.0,15.0,-30.0,0.0
3.0,9.0,7.0,-3.0,4.0,-7.0,32.0,-9.0,20.0,-24.0,0.0
16.0,15.0,20.0,12.0,2.0,-5.0,12.0,-17.0,29.0,-4.0,0.0
35.0,28.0,19.0,18.0,-3.0,-4.0,1.0,-6.0,19.0,0.0,0.0
45.0,34.0,28.0,19.0,7.0,-10.0,8.0,0.0,13.0,-3.0,0.0
31.0,26.0,25.0,32.0,12.0,-5.0,-5.0,-5.0,15.0,-8.0,0.0
14.0,10.0,12.0,39.0,7.0,2.0,-6.0,3.0,4.0,-10.0,0.0
9.0,5.0,11.0,26.0,6.0,-5.0,10.0,7.0,-11.0,-16.0,0.0
17.0,-3.0,14.0,37.0,-4.0,-14.0,19.0,20.0,17.0,3.0,0.0
7.0,6.0,2.0,35.0,-9.0,-11.0,24.0,-1.0,72.0,1.0,0.0
-17.0,-12.0,-16.0,14.0,-19.0,-26.0,-1.0,-15.0,176.0,-25.0,0.0
-33.0,-41.0,-22.0,0.0,-27.0,-41.0,-35.0,-4.0,134.0,-58.0,0.0
-16.0,-13.0,-23.0,14.0,-24.0,-22.0,12.0,23.0,20.0,-39.0,0.0
-21.0,-14.0,-36.0,12.0,-31.0,-18.0,26.0,38.0,-132.0,-42.0,0.0
-24.0,-22.0,-26.0,9.0,-40.0,-28.0,24.0,52.0,-203.0,-48.0,0.0
-16.0,-29.0,-14.0,11.0,-37.0,-38.0,21.0,69.0,-104.0,-20.0,0.0
-4.0,-20.0,-8.0,7.0,-31.0,-22.0,24.0,93.0,89.0,19.0,0.0
9.0,7.0,2.0,13.0,-20.0,-6.0,25.0,76.0,162.0,30.0,0.0
0.0,19.0,33.0,16.0,3.0,-2.0,-12.0,-6.0,57.0,-18.0,0.0
-30.0,-2.0,44.0,11.0,-1.0,-14.0,-37.0,-31.0,109.0,-48.0,0.0
-38.0,-12.0,36.0,-10.0,-19.0,-30.0,-44.0,-5.0,297.0,-35.0,0.0
-11.0,9.0,39.0,-9.0,-25.0,-42.0,-61.0,-19.0,138.0,-46.0,0.0
12.0,26.0,48.0,7.0,-18.0,-23.0,-51.0,-43.0,-115.0,-51.0,0.0
0.0,18.0,57.0,19.0,-8.0,0.0,-42.0,-60.0,-211.0,-66.0,0.0
-20.0,-13.0,43.0,16.0,-6.0,0.0,-27.0,-50.0,-221.0,-88.0,0.0
-32.0,-24.0,16.0,2.0,-13.0,-12.0,-24.0,-50.0,-206.0,-96.0,0.0
-32.0,-24.0,20.0,0.0,-6.0,-23.0,-22.0,-45.0,-167.0,-117.0,0.0
-37.0,-28.0,9.0,-8.0,-5.0,-22.0,-17.0,-38.0,-100.0,-116.0,0.0
-27.0,-20.0,-7.0,-12.0,-14.0,-23.0,-2.0,-18.0,-55.0,-108.0,0.0
-17.0,-22.0,-13.0,-11.0,-29.0,-15.0,28.0,20.0,-45.0,-99.0,0.0
-32.0,-37.0,-22.0,-19.0,-38.0,-25.0,41.0,33.0,-35.0,-103.0,0.0
-39.0,-35.0,-21.0,-27.0,-27.0,-33.0,31.0,31.0,-10.0,-88.0,0.0
-22.0,-26.0,-9.0,-30.0,-12.0,-29.0,14.0,29.0,17.0,-74.0,0.0
13.0,-3.0,-8.0,-28.0,-19.0,-21.0,27.0,27.0,94.0,-44.0,0.0
30.0,38.0,2.0,-12.0,-16.0,-16.0,29.0,10.0,158.0,-24.0,0.0
31.0,51.0,24.0,21.0,4.0,-20.0,7.0,-35.0,90.0,-59.0,0.0
14.0,34.0,35.0,43.0,15.0,-16.0,-5.0,-84.0,-26.0,-81.0,0.0
5.0,10.0,27.0,45.0,28.0,-11.0,-12.0,-82.0,-27.0,-71.0,0.0
20.0,11.0,17.0,44.0,40.0,-10.0,-14.0,-56.0,9.0,-67.0,0.0
24.0,8.0,14.0,42.0,28.0,-7.0,-9.0,-50.0,-20.0,-71.0,0.0
8.0,-16.0,2.0,15.0,17.0,4.0,-15.0,-33.0,-55.0,-81.0,0.0
-31.0,-43.0,-10.0,-4.0,8.0,-2.0,-30.0,-16.0,-118.0,-104.0,0.0
-56.0,-48.0,-13.0,-3.0,2.0,-5.0,-26.0,-14.0,-140.0,-104.0,0.0
-46.0,-55.0,-16.0,14.0,4.0,3.0,-2.0,1.0,-103.0,-96.0,0.0
-32.0,-60.0,-7.0,18.0,3.0,-8.0,26.0,2.0,-53.0,-98.0,0.0
-19.0,-69.0,0.0,22.0,-1.0,-1.0,22.0,-1.0,-26.0,-89.0,0.0
-20.0,-66.0,-13.0,18.0,-5.0,5.0,27.0,-4.0,-15.0,-99.0,0.0
-23.0,-68.0,-12.0,4.0,-4.0,6.0,28.0,-3.0,0.0,-105.0,0.0
-17.0,-57.0,-23.0,5.0,-2.0,0.0,24.0,-1.0,9.0,-95.0,0.0
-9.0,-40.0,-25.0,11.0,-9.0,-3.0,23.0,-1.0,17.0,-71.0,0.0
11.0,-10.0,-11.0,9.0,-11.0,3.0,0.0,14.0,10.0,-45.0,0.0
31.0,5.0,-11.0,23.0,2.0,10.0,-11.0,42.0,7.0,-45.0,0.0
33.0,13.0,-9.0,20.0,14.0,14.0,-9.0,62.0,2.0,-37.0,0.0
37.0,33.0,-5.0,-6.0,16.0,15.0,-1.0,71.0,9.0,-45.0,0.0
32.0,30.0,-1.0,-16.0,28.0,14.0,6.0,80.0,50.0,-50.0,0.0
45.0,16.0,6.0,-14.0,25.0,-2.0,2.0,62.0,121.0,-45.0,0.0
58.0,23.0,11.0,-10.0,24.0,-6.0,-11.0,13.0,138.0,-42.0,0.0
46.0,31.0,11.0,-1.0,6.0,-8.0,-35.0,-57.0,16.0,-71.0,0.0
31.0,30.0,-1.0,-8.0,-4.0,-15.0,-47.0,-74.0,-59.0,-79.0,0.0
36.0,24.0,-1.0,-9.0,-3.0,-14.0,-24.0,-46.0,-29.0,-67.0,0.0
29.0,17.0,0.0,-11.0,4.0,-6.0,1.0,-37.0,-1.0,-69.0,0.0
31.0,10.0,0.0,-10.0,1.0,-6.0,13.0,-23.0,18.0,-60.0,0.0
23.0,11.0,-2.0,-8.0,1.0,-8.0,18.0,-14.0,12.0,-45.0,0.0
10.0,13.0,1.0,-9.0,-1.0,-7.0,33.0,-3.0,6.0,-70.0,0.0
4.0,1.0,4.0,-7.0,-5.0,-2.0,24.0,-4.0,20.0,-98.0,0.0
8.0,4.0,15.0,7.0,-4.0,-2.0,16.0,0.0,30.0,-89.0,0.0
21.0,-5.0,24.0,15.0,0.0,6.0,16.0,6.0,22.0,-75.0,0.0
21.0,-8.0,26.0,18.0,-5.0,2.0,7.0,5.0,19.0,-75.0,0.0
15.0,9.0,24.0,15.0,8.0,3.0,0.0,0.0,18.0,-60.0,0.0
28.0,38.0,19.0,14.0,10.0,13.0,-7.0,5.0,11.0,-51.0,0.0
39.0,43.0,11.0,11.0,20.0,19.0,-15.0,19.0,13.0,-43.0,0.0
41.0,36.0,24.0,9.0,21.0,24.0,0.0,20.0,26.0,-36.0,0.0
43.0,31.0,13.0,20.0,13.0,13.0,-1.0,8.0,15.0,-34.0,0.0
20.0,16.0,-2.0,17.0,5.0,4.0,-11.0,13.0,-1.0,-23.0,0.0
9.0,6.0,-3.0,7.0,1.0,2.0,-6.0,16.0,10.0,-29.0,0.0
5.0,-2.0,-4.0,2.0,-10.0,-5.0,4.0,14.0,46.0,-43.0,0.0
1.0,0.0,-14.0,-6.0,-24.0,0.0,10.0,9.0,65.0,-62.0,0.0
-4.0,-8.0,-25.0,-17.0,-36.0,1.0,11.0,3.0,32.0,-75.0,0.0
-12.0,-10.0,-29.0,-15.0,-42.0,-7.0,21.0,13.0,17.0,-75.0,0.0
-10.0,-12.0,-32.0,-13.0,-38.0,-13.0,23.0,37.0,38.0,-72.0,0.0
-10.0,-12.0,-16.0,-3.0,-26.0,-8.0,33.0,42.0,58.0,-53.0,0.0
-10.0,-11.0,-5.0,11.0,-28.0,0.0,20.0,29.0,56.0,-32.0,0.0
-7.0,-11.0,-12.0,19.0,-17.0,11.0,18.0,23.0,64.0,-31.0,0.0
-20.0,-14.0,-20.0,22.0,-7.0,26.0,8.0,24.0,68.0,-25.0,0.0
-31.0,-15.0,-17.0,22.0,-1.0,24.0,9.0,11.0,35.0,-49.0,0.0
-43.0,-22.0,0.0,27.0,7.0,26.0,6.0,-26.0,-30.0,-81.0,0.0
-39.0,-28.0,2.0,21.0,19.0,19.0,-15.0,-58.0,-64.0,-100.0,0.0
-28.0,-13.0,7.0,16.0,26.0,9.0,-34.0,-46.0,-56.0,-103.0,0.0
-14.0,5.0,16.0,16.0,34.0,11.0,-50.0,-26.0,-39.0,-73.0,0.0
-5.0,-2.0,14.0,21.0,16.0,1.0,-67.0,-20.0,-23.0,-54.0,0.0
-2.0,1.0,6.0,20.0,8.0,-10.0,-67.0,-13.0,-14.0,-52.0,0.0
3.0,-11.0,2.0,11.0,0.0,-8.0,-29.0,-4.0,-21.0,-63.0,0.0
-5.0,-25.0,-2.0,3.0,-6.0,-5.0,61.0,5.0,-31.0,-78.0,0.0
-24.0,-26.0,-7.0,-8.0,-17.0,-10.0,83.0,1.0,-43.0,-73.0,0.0
-31.0,-16.0,-17.0,-16.0,-16.0,-13.0,56.0,0.0,-46.0,-65.0,0.0
-31.0,-12.0,-9.0,-14.0,-15.0,-18.0,49.0,-8.0,-47.0,-55.0,0.0
-12.0,-12.0,-2.0,-11.0,-11.0,-24.0,43.0,-12.0,-46.0,-45.0,0.0
0.0,3.0,1.0,-13.0,-19.0,-25.0,51.0,-13.0,-39.0,-45.0,0.0
8.0,10.0,11.0,-11.0,-18.0,-18.0,34.0,6.0,-30.0,-44.0,0.0
-8.0,8.0,6.0,-11.0,-5.0,-6.0,27.0,33.0,24.0,-35.0,0.0
-33.0,9.0,6.0,-10.0,2.0,-9.0,17.0,32.0,49.0,-33.0,0.0
-24.0,16.0,17.0,-1.0,17.0,-4.0,10.0,31.0,5.0,-26.0,0.0
3.0,20.0,18.0,3.0,27.0,0.0,-2.0,32.0,-6.0,-25.0,0.0
27.0,34.0,15.0,5.0,20.0,-4.0,-12.0,29.0,0.0,-21.0,0.0
42.0,44.0,18.0,10.0,8.0,-16.0,-20.0,33.0,-4.0,-32.0,0.0
40.0,47.0,15.0,13.0,1.0,-2.0,-31.0,40.0,2.0,-35.0,0.0
30.0,38.0,19.0,7.0,6.0,-2.0,-48.0,48.0,31.0,-39.0,0.0
10.0,29.0,7.0,5.0,0.0,-17.0,-35.0,32.0,27.0,-36.0,0.0
-12.0,19.0,0.0,15.0,5.0,-7.0,-16.0,15.0,4.0,-49.0,0.0
-20.0,-5.0,-3.0,9.0,11.0,3.0,-13.0,9.0,-4.0,-57.0,0.0
-31.0,-33.0,-12.0,9.0,12.0,13.0,2.0,10.0,-10.0,-61.0,0.0
-50.0,-46.0,-24.0,9.0,10.0,10.0,20.0,17.0,-23.0,-60.0,0.0
-70.0,-44.0,-29.0,1.0,6.0,-3.0,29.0,21.0,-28.0,-65.0,0.0
-75.0,-41.0,-33.0,-6.0,-4.0,-20.0,42.0,26.0,-29.0,-81.0,0.0
-67.0,-46.0,-23.0,-11.0,-13.0,-23.0,30.0,16.0,5.0,-90.0,0.0
-30.0,-37.0,-12.0,-18.0,-23.0,-12.0,20.0,8.0,68.0,-67.0,0.0
-7.0,-14.0,-6.0,5.0,-17.0,7.0,8.0,-12.0,74.0,-46.0,0.0
2.0,8.0,2.0,18.0,-11.0,12.0,-18.0,-54.0,-28.0,-45.0,0.0
7.0,6.0,22.0,28.0,3.0,22.0,-21.0,-53.0,-31.0,-41.0,0.0
12.0,7.0,36.0,31.0,5.0,22.0,-20.0,-12.0,97.0,5.0,0.0
25.0,18.0,29.0,41.0,3.0,14.0,-15.0,9.0,155.0,38.0,0.0
36.0,25.0,44.0,36.0,8.0,17.0,1.0,31.0,82.0,37.0,0.0
42.0,30.0,36.0,32.0,2.0,21.0,8.0,74.0,-6.0,24.0,0.0
32.0,20.0,14.0,22.0,-4.0,23.0,9.0,94.0,-51.0,11.0,0.0
16.0,-4.0,14.0,6.0,-6.0,25.0,16.0,97.0,-11.0,-11.0,0.0
-1.0,-18.0,18.0,9.0,-6.0,17.0,10.0,91.0,126.0,-22.0,0.0
-22.0,-35.0,3.0,6.0,-7.0,20.0,12.0,43.0,189.0,-37.0,0.0
-36.0,-46.0,6.0,7.0,1.0,16.0,-4.0,-57.0,60.0,-96.0,0.0
-47.0,-55.0,-2.0,2.0,-13.0,0.0,-24.0,-127.0,-183.0,-133.0,0.0
-61.0,-56.0,-22.0,-7.0,-26.0,-7.0,-16.0,-117.0,-255.0,-132.0,0.0
-71.0,-54.0,-27.0,-10.0,-22.0,-15.0,-5.0,-100.0,-194.0,-121.0,0.0
-59.0,-52.0,-28.0,-24.0,-28.0,-19.0,2.0,-87.0,-166.0,-87.0,0.0
-40.0,-51.0,-39.0,-22.0,-37.0,0.0,10.0,-42.0,-129.0,-77.0,0.0
-24.0,-43.0,-33.0,1.0,-34.0,1.0,3.0,-13.0,-101.0,-70.0,0.0
-13.0,-19.0,-5.0,14.0,-21.0,-8.0,8.0,-14.0,-79.0,-72.0,0.0
-3.0,8.0,1.0,16.0,-10.0,2.0,-5.0,-14.0,-78.0,-81.0,0.0
15.0,44.0,14.0,29.0,-4.0,19.0,-25.0,-2.0,-73.0,-82.0,0.0
24.0,72.0,28.0,30.0,-2.0,17.0,-15.0,1.0,-53.0,-77.0,0.0
34.0,76.0,34.0,17.0,0.0,9.0,-16.0,3.0,-9.0,-54.0,0.0
33.0,51.0,36.0,0.0,4.0,4.0,-30.0,12.0,-1.0,-47.0,0.0
25.0,30.0,30.0,-1.0,5.0,3.0,-9.0,24.0,12.0,-39.0,0.0
11.0,35.0,27.0,0.0,-2.0,-8.0,-1.0,26.0,34.0,-23.0,0.0
6.0,25.0,23.0,-5.0,-11.0,-13.0,-1.0,32.0,46.0,0.0,0.0
0.0,-1.0,16.0,-12.0,-20.0,-13.0,3.0,26.0,55.0,2.0,0.0
-11.0,-13.0,9.0,-18.0,-28.0,-7.0,15.0,17.0,52.0,11.0,0.0
-23.0,-4.0,-8.0,-24.0,-25.0,-4.0,21.0,0.0,27.0,-28.0,0.0
-27.0,-3.0,-7.0,-35.0,-29.0,-14.0,20.0,3.0,21.0,-48.0,0.0
-33.0,5.0,-1.0,-34.0,-30.0,-23.0,30.0,0.0,77.0,-39.0,0.0
-33.0,-14.0,2.0,-36.0,-22.0,-53.0,-24.0,-23.0,149.0,-40.0,0.0
-15.0,-39.0,7.0,-28.0,-13.0,-43.0,-42.0,-7.0,48.0,-44.0,0.0
15.0,10.0,13.0,-7.0,-3.0,-1.0,6.0,37.0,83.0,6.0,0.0
21.0,22.0,13.0,-10.0,2.0,-3.0,-12.0,57.0,57.0,15.0,0.0
39.0,24.0,27.0,0.0,3.0,9.0,3.0,67.0,35.0,38.0,0.0
67.0,48.0,34.0,19.0,-2.0,18.0,0.0,72.0,36.0,80.0,0.0
74.0,51.0,35.0,24.0,-4.0,10.0,-3.0,66.0,32.0,103.0,0.0
70.0,41.0,37.0,28.0,-13.0,12.0,8.0,41.0,-2.0,85.0,0.0
57.0,33.0,34.0,33.0,-5.0,14.0,19.0,3.0,-44.0,65.0,0.0
38.0,28.0,32.0,22.0,5.0,19.0,33.0,-7.0,2.0,43.0,0.0
1.0,9.0,17.0,16.0,1.0,10.0,17.0,16.0,96.0,0.0,0.0
-30.0,-23.0,-2.0,7.0,0.0,3.0,12.0,35.0,216.0,-72.0,0.0
-59.0,-38.0,-5.0,8.0,6.0,-3.0,22.0,17.0,225.0,-114.0,0.0
-70.0,-45.0,-23.0,1.0,5.0,-3.0,19.0,-14.0,62.0,-138.0,0.0
-70.0,-56.0,-28.0,-18.0,-3.0,-6.0,13.0,-20.0,-129.0,-151.0,0.0
-61.0,-53.0,-21.0,-35.0,1.0,-15.0,18.0,-24.0,-144.0,-134.0,0.0
-34.0,-40.0,-18.0,-21.0,5.0,-24.0,19.0,-27.0,-80.0,-109.0,0.0
-24.0,-16.0,-20.0,-7.0,0.0,-17.0,-7.0,-40.0,-56.0,-74.0,0.0
-34.0,-15.0,-32.0,-9.0,-14.0,-5.0,-2.0,-35.0,-48.0,-24.0,0.0
-37.0,-26.0,-28.0,-1.0,-7.0,0.0,-4.0,-23.0,-31.0,15.0,0.0
-19.0,-1.0,-13.0,8.0,-2.0,0.0,-25.0,-25.0,-13.0,6.0,0.0
7.0,25.0,-3.0,13.0,6.0,5.0,-27.0,-13.0,-3.0,5.0,0.0
23.0,34.0,3.0,6.0,20.0,10.0,-24.0,-3.0,5.0,19.0,0.0
17.0,26.0,-4.0,2.0,17.0,6.0,-17.0,-1.0,-8.0,4.0,0.0
31.0,17.0,-5.0,4.0,11.0,-3.0,-8.0,12.0,-18.0,36.0,0.0
41.0,13.0,5.0,-8.0,4.0,-23.0,-15.0,16.0,-7.0,46.0,0.0
35.0,5.0,11.0,-13.0,-1.0,-19.0,-19.0,-7.0,-20.0,-18.0,0.0
10.0,2.0,9.0,-25.0,4.0,-12.0,-9.0,-28.0,-23.0,-91.0,0.0
-6.0,-14.0,-5.0,-33.0,-2.0,-24.0,-13.0,-42.0,-24.0,-114.0,0.0
-3.0,-15.0,-10.0,-28.0,-18.0,-22.0,-17.0,-68.0,-9.0,-87.0,0.0
-3.0,-14.0,-19.0,-40.0,-25.0,-12.0,-19.0,-89.0,-58.0,-42.0,0.0
1.0,-29.0,-26.0,-47.0,-13.0,-6.0,0.0,-85.0,-132.0,-7.0,0.0
1.0,-39.0,-31.0,-41.0,-14.0,1.0,35.0,-58.0,-73.0,1.0,0.0
21.0,-33.0,-37.0,-38.0,-15.0,-1.0,46.0,-25.0,-15.0,8.0,0.0
41.0,-5.0,-15.0,7.0,3.0,10.0,24.0,-6.0,-9.0,2.0,0.0
55.0,3.0,-5.0,29.0,16.0,15.0,6.0,2.0,22.0,21.0,0.0
72.0,31.0,11.0,35.0,29.0,-2.0,10.0,-1.0,133.0,36.0,0.0
62.0,31.0,18.0,21.0,24.0,-35.0,-37.0,-25.0,108.0,8.0,0.0
55.0,27.0,30.0,32.0,13.0,-24.0,-65.0,-28.0,11.0,-16.0,0.0
51.0,38.0,32.0,44.0,14.0,0.0,-57.0,-30.0,-25.0,-28.0,0.0
48.0,34.0,22.0,38.0,14.0,-10.0,-66.0,-36.0,-51.0,-26.0,0.0
49.0,33.0,8.0,30.0,17.0,-17.0,-50.0,-20.0,-32.0,-21.0,0.0
58.0,20.0,-16.0,8.0,8.0,-4.0,-13.0,2.0,-16.0,-18.0,0.0
47.0,1.0,-41.0,-18.0,3.0,-6.0,52.0,-3.0,-17.0,-19.0,0.0
31.0,-19.0,-48.0,-22.0,0.0,-9.0,71.0,-15.0,-25.0,-27.0,0.0
16.0,-21.0,-36.0,-24.0,3.0,5.0,73.0,8.0,-23.0,-11.0,0.0
1.0,-23.0,-44.0,-25.0,9.0,12.0,66.0,32.0,-20.0,-5.0,0.0
8.0,-23.0,-57.0,-28.0,0.0,22.0,68.0,42.0,-15.0,2.0,0.0
15.0,-14.0,-55.0,-19.0,-10.0,13.0,71.0,44.0,-10.0,6.0,0.0
20.0,-11.0,-48.0,-10.0,-9.0,8.0,69.0,60.0,17.0,8.0,0.0
27.0,-14.0,-37.0,5.0,4.0,9.0,56.0,60.0,91.0,23.0,0.0
32.0,-14.0,-26.0,10.0,9.0,12.0,27.0,30.0,138.0,25.0,0.0
27.0,2.0,-15.0,18.0,20.0,22.0,10.0,-4.0,52.0,17.0,0.0
12.0,13.0,3.0,19.0,16.0,30.0,3.0,-15.0,-86.0,18.0,0.0
21.0,18.0,18.0,16.0,15.0,23.0,15.0,28.0,-58.0,55.0,0.0
39.0,23.0,30.0,12.0,21.0,30.0,14.0,87.0,35.0,77.0,0.0
42.0,24.0,22.0,17.0,18.0,33.0,11.0,104.0,133.0,95.0,0.0
33.0,5.0,3.0,12.0,16.0,28.0,5.0,94.0,229.0,101.0,0.0
23.0,0.0,0.0,14.0,8.0,19.0,10.0,60.0,252.0,90.0,0.0
26.0,16.0,1.0,28.0,18.0,20.0,4.0,-18.0,119.0,49.0,0.0
0.0,13.0,6.0,37.0,22.0,28.0,3.0,-78.0,-33.0,-32.0,0.0
-44.0,-15.0,-23.0,10.0,10.0,16.0,0.0,-93.0,-119.0,-113.0,0.0
-52.0,-24.0,-62.0,4.0,-11.0,0.0,-4.0,-103.0,-194.0,-132.0,0.0
-48.0,-35.0,-79.0,-20.0,-17.0,-13.0,6.0,-93.0,-237.0,-126.0,0.0
-46.0,-46.0,-74.0,-27.0,-19.0,-12.0,22.0,-53.0,-222.0,-87.0,0.0
-42.0,-34.0,-57.0,-19.0,-20.0,-16.0,32.0,-33.0,-141.0,-29.0,0.0
-30.0,-23.0,-32.0,-14.0,3.0,-14.0,35.0,-29.0,-88.0,-14.0,0.0
-26.0,-27.0,-26.0,-20.0,7.0,-11.0,33.0,8.0,-51.0,2.0,0.0
-27.0,-18.0,-28.0,-16.0,12.0,-6.0,23.0,28.0,-47.0,6.0,0.0
-26.0,-18.0,-16.0,-8.0,27.0,-1.0,11.0,27.0,-56.0,-6.0,0.0
-33.0,-31.0,-6.0,-16.0,27.0,16.0,10.0,27.0,-52.0,-4.0,0.0
-25.0,-27.0,8.0,-9.0,21.0,14.0,13.0,26.0,-40.0,-6.0,0.0
-24.0,-19.0,16.0,1.0,20.0,7.0,-4.0,6.0,-60.0,-4.0,0.0
-19.0,-26.0,19.0,-4.0,15.0,14.0,-4.0,2.0,-38.0,-4.0,0.0
-13.0,-42.0,19.0,-9.0,16.0,12.0,5.0,0.0,-24.0,-7.0,0.0
-20.0,-40.0,0.0,-16.0,12.0,1.0,5.0,-3.0,-21.0,-11.0,0.0
-25.0,-40.0,-15.0,-32.0,3.0,-10.0,-3.0,10.0,12.0,-20.0,0.0
-20.0,-41.0,-22.0,-36.0,5.0,-9.0,3.0,18.0,19.0,-9.0,0.0
-20.0,-24.0,-28.0,-26.0,-10.0,-6.0,-3.0,25.0,10.0,1.0,0.0
0.0,8.0,-25.0,-6.0,-25.0,-6.0,-17.0,11.0,28.0,19.0,0.0
12.0,44.0,0.0,1.0,-15.0,12.0,-3.0,-15.0,28.0,23.0,0.0
12.0,61.0,19.0,-10.0,-13.0,15.0,-1.0,-32.0,62.0,3.0,0.0
3.0,33.0,20.0,-25.0,-7.0,2.0,-32.0,-34.0,65.0,-21.0,0.0
12.0,15.0,-2.0,-20.0,-1.0,23.0,-26.0,-2.0,-13.0,-10.0,0.0
17.0,27.0,0.0,-9.0,-1.0,35.0,-26.0,13.0,-10.0,10.0,0.0
22.0,30.0,11.0,12.0,6.0,22.0,-31.0,21.0,15.0,5.0,0.0
18.0,6.0,22.0,10.0,12.0,23.0,-35.0,26.0,66.0,-9.0,0.0
19.0,4.0,23.0,-17.0,1.0,18.0,-53.0,25.0,106.0,-13.0,0.0
21.0,14.0,23.0,-18.0,-4.0,7.0,-61.0,21.0,76.0,2.0,0.0
14.0,17.0,17.0,-14.0,0.0,7.0,-46.0,12.0,45.0,11.0,0.0
15.0,17.0,4.0,-12.0,1.0,7.0,-35.0,14.0,44.0,22.0,0.0
27.0,7.0,1.0,-29.0,3.0,0.0,-25.0,7.0,45.0,33.0,0.0
20.0,-3.0,-9.0,-28.0,4.0,6.0,-20.0,9.0,35.0,28.0,0.0
3.0,-6.0,-5.0,-17.0,6.0,4.0,-8.0,11.0,30.0,14.0,0.0
-7.0,-8.0,-6.0,-1.0,-4.0,2.0,-17.0,16.0,28.0,9.0,0.0
-2.0,-10.0,-18.0,10.0,-12.0,-12.0,-15.0,23.0,35.0,7.0,0.0
-1.0,-12.0,-31.0,15.0,-15.0,-22.0,7.0,11.0,31.0,10.0,0.0
-9.0,-21.0,-21.0,14.0,-4.0,-15.0,37.0,4.0,7.0,5.0,0.0
-8.0,-18.0,-10.0,19.0,1.0,-7.0,47.0,10.0,-12.0,-3.0,0.0
0.0,0.0,-4.0,26.0,6.0,4.0,34.0,33.0,-22.0,17.0,0.0
17.0,15.0,-2.0,44.0,10.0,14.0,31.0,90.0,-9.0,49.0,0.0
15.0,13.0,-13.0,60.0,23.0,30.0,43.0,120.0,8.0,72.0,0.0
11.0,3.0,-4.0,55.0,48.0,26.0,46.0,120.0,86.0,73.0,0.0
13.0,8.0,4.0,49.0,47.0,19.0,41.0,107.0,277.0,86.0,0.0
9.0,12.0,23.0,46.0,32.0,16.0,38.0,66.0,420.0,86.0,0.0
3.0,11.0,21.0,37.0,21.0,2.0,4.0,-11.0,341.0,45.0,0.0
-5.0,0.0,19.0,24.0,21.0,-15.0,-21.0,-79.0,81.0,13.0,0.0
-15.0,-17.0,9.0,0.0,14.0,-26.0,-17.0,-70.0,-82.0,-3.0,0.0
-22.0,-8.0,13.0,-3.0,27.0,-32.0,-14.0,-59.0,-140.0,-27.0,0.0
-8.0,-2.0,18.0,-2.0,30.0,-35.0,10.0,-53.0,-58.0,-26.0,0.0
-8.0,-9.0,4.0,0.0,19.0,-31.0,27.0,-29.0,56.0,-48.0,0.0
-20.0,-17.0,-13.0,-18.0,9.0,-35.0,30.0,-31.0,-8.0,-90.0,0.0
-34.0,-43.0,-35.0,-29.0,-11.0,-36.0,36.0,-54.0,-226.0,-129.0,0.0
-47.0,-52.0,-32.0,-20.0,-13.0,-21.0,50.0,-67.0,-291.0,-134.0,0.0
-32.0,-36.0,-23.0,-17.0,0.0,-15.0,52.0,-60.0,-232.0,-107.0,0.0
-17.0,-23.0,-16.0,-17.0,-3.0,-6.0,46.0,-56.0,-196.0,-76.0,0.0
-17.0,-17.0,-4.0,-22.0,-3.0,2.0,22.0,-44.0,-146.0,-38.0,0.0
-9.0,-10.0,-1.0,-9.0,-5.0,2.0,15.0,-17.0,-96.0,-32.0,0.0
-7.0,4.0,4.0,4.0,4.0,11.0,13.0,12.0,-64.0,-21.0,0.0
4.0,7.0,16.0,14.0,5.0,18.0,13.0,31.0,-35.0,-6.0,0.0
30.0,19.0,22.0,-7.0,-1.0,11.0,0.0,40.0,-14.0,-10.0,0.0
30.0,29.0,20.0,-18.0,0.0,5.0,-13.0,38.0,-17.0,-7.0,0.0
15.0,15.0,10.0,-16.0,-7.0,-1.0,-14.0,25.0,-19.0,-1.0,0.0
4.0,-2.0,4.0,-12.0,-16.0,-6.0,-4.0,15.0,-16.0,-6.0,0.0
2.0,-15.0,13.0,-6.0,-22.0,-9.0,-9.0,17.0,24.0,1.0,0.0
-3.0,-21.0,12.0,-12.0,-23.0,-11.0,5.0,26.0,25.0,7.0,0.0
9.0,0.0,3.0,-24.0,-27.0,-9.0,12.0,53.0,91.0,32.0,0.0
4.0,-5.0,8.0,-35.0,-41.0,-20.0,19.0,64.0,136.0,54.0,0.0
5.0,-18.0,-3.0,-34.0,-48.0,-16.0,33.0,68.0,99.0,59.0,0.0
13.0,-7.0,-7.0,-20.0,-29.0,12.0,59.0,76.0,162.0,72.0,0.0
12.0,0.0,0.0,4.0,-17.0,13.0,61.0,60.0,177.0,50.0,0.0
19.0,4.0,16.0,16.0,-15.0,13.0,36.0,6.0,100.0,28.0,0.0
13.0,-4.0,14.0,16.0,0.0,21.0,14.0,-45.0,-6.0,-7.0,0.0
1.0,-16.0,11.0,15.0,-1.0,16.0,-15.0,-84.0,-159.0,-50.0,0.0
-5.0,-19.0,14.0,15.0,-3.0,18.0,-25.0,-64.0,-165.0,-38.0,0.0
10.0,-10.0,5.0,29.0,0.0,18.0,-11.0,-14.0,-39.0,-13.0,0.0
19.0,-4.0,17.0,37.0,3.0,25.0,-15.0,-16.0,-9.0,-4.0,0.0
17.0,2.0,18.0,49.0,6.0,31.0,-12.0,-18.0,-8.0,-5.0,0.0
-4.0,-12.0,9.0,38.0,2.0,28.0,5.0,0.0,7.0,-28.0,0.0
-15.0,-28.0,5.0,17.0,-6.0,24.0,3.0,16.0,-2.0,-32.0,0.0
-16.0,-24.0,0.0,4.0,-18.0,1.0,-10.0,3.0,-51.0,-25.0,0.0
-2.0,-19.0,-6.0,2.0,-23.0,-7.0,-9.0,-16.0,-74.0,-36.0,0.0
14.0,-14.0,0.0,2.0,-21.0,-13.0,-1.0,-14.0,-43.0,-16.0,0.0
17.0,-11.0,-16.0,-6.0,-27.0,-3.0,15.0,-17.0,-30.0,3.0,0.0
11.0,-9.0,-23.0,0.0,-24.0,0.0,13.0,-27.0,-15.0,20.0,0.0
10.0,0.0,-21.0,15.0,-14.0,-6.0,5.0,-49.0,-5.0,25.0,0.0
-5.0,2.0,-11.0,22.0,-14.0,-10.0,5.0,-51.0,-32.0,-14.0,0.0
-38.0,-4.0,-10.0,23.0,-14.0,-2.0,13.0,-41.0,-64.0,-54.0,0.0
-27.0,2.0,-7.0,28.0,-8.0,0.0,6.0,-26.0,-56.0,-55.0,0.0
0.0,15.0,7.0,33.0,-6.0,-2.0,5.0,-9.0,-22.0,-23.0,0.0
13.0,13.0,14.0,21.0,0.0,-8.0,8.0,12.0,0.0,-10.0,0.0
16.0,17.0,18.0,13.0,-4.0,-5.0,-15.0,14.0,10.0,31.0,0.0
16.0,22.0,23.0,14.0,-12.0,1.0,-19.0,13.0,29.0,86.0,0.0
-4.0,17.0,24.0,9.0,-1.0,-3.0,-20.0,0.0,4.0,30.0,0.0
-17.0,24.0,36.0,0.0,-9.0,-7.0,-21.0,0.0,0.0,10.0,0.0
-30.0,24.0,46.0,-11.0,-7.0,-17.0,-25.0,8.0,73.0,11.0,0.0
-37.0,-3.0,15.0,-32.0,-14.0,-22.0,-19.0,21.0,-1.0,-1.0,0.0
-31.0,-7.0,-6.0,-27.0,-11.0,-10.0,28.0,34.0,-76.0,0.0,0.0
-30.0,-12.0,-4.0,-24.0,0.0,-15.0,23.0,45.0,-55.0,8.0,0.0
-27.0,-6.0,-19.0,-44.0,1.0,-13.0,24.0,50.0,16.0,26.0,0.0
-28.0,0.0,-16.0,-43.0,0.0,-7.0,22.0,9.0,44.0,16.0,0.0
-30.0,-4.0,-1.0,-27.0,7.0,-6.0,1.0,-59.0,-40.0,2.0,0.0
-37.0,-8.0,3.0,-34.0,11.0,-20.0,-13.0,-86.0,-126.0,-4.0,0.0
-34.0,-4.0,1.0,-35.0,6.0,-16.0,-33.0,-53.0,-62.0,-5.0,0.0
-21.0,1.0,-5.0,-24.0,10.0,-2.0,-52.0,-28.0,26.0,-4.0,0.0
-2.0,0.0,1.0,-10.0,15.0,12.0,-77.0,-12.0,71.0,-3.0,0.0
-5.0,-9.0,0.0,-10.0,18.0,24.0,-63.0,3.0,67.0,1.0,0.0
-6.0,-20.0,-10.0,-17.0,19.0,30.0,11.0,17.0,45.0,-4.0,0.0
0.0,-3.0,3.0,0.0,32.0,13.0,-10.0,32.0,49.0,43.0,0.0
0.0,-8.0,9.0,9.0,25.0,12.0,-7.0,46.0,94.0,65.0,0.0
-8.0,-14.0,8.0,3.0,19.0,2.0,10.0,35.0,231.0,61.0,0.0
-14.0,-23.0,-15.0,-5.0,14.0,-25.0,-10.0,15.0,268.0,48.0,0.0
-11.0,-16.0,-17.0,-11.0,4.0,-21.0,9.0,16.0,131.0,36.0,0.0
-21.0,10.0,-14.0,-4.0,3.0,-21.0,22.0,0.0,28.0,5.0,0.0
-36.0,-4.0,-16.0,-5.0,5.0,-32.0,3.0,-14.0,-102.0,-71.0,0.0
-47.0,-14.0,-20.0,-6.0,-4.0,-33.0,11.0,-17.0,-169.0,-107.0,0.0
-45.0,-11.0,-29.0,-7.0,-9.0,-25.0,29.0,-15.0,-121.0,-78.0,0.0
-24.0,8.0,-19.0,0.0,-6.0,-20.0,37.0,-8.0,-69.0,-38.0,0.0
-3.0,12.0,-11.0,9.0,7.0,-16.0,34.0,-10.0,-41.0,-18.0,0.0
4.0,7.0,0.0,9.0,10.0,-5.0,13.0,-4.0,-28.0,-14.0,0.0
-2.0,18.0,13.0,13.0,9.0,2.0,8.0,4.0,-20.0,-13.0,0.0
-3.0,21.0,8.0,16.0,19.0,14.0,-4.0,10.0,-12.0,4.0,0.0
14.0,11.0,24.0,23.0,39.0,-2.0,-26.0,-1.0,3.0,15.0,0.0
9.0,16.0,20.0,30.0,31.0,-11.0,-32.0,3.0,24.0,20.0,0.0
1.0,17.0,20.0,10.0,16.0,-24.0,-46.0,-17.0,106.0,21.0,0.0
5.0,0.0,4.0,-4.0,7.0,-32.0,-38.0,-21.0,31.0,13.0,0.0
12.0,0.0,-1.0,7.0,1.0,-14.0,5.0,-13.0,-3.0,23.0,0.0
5.0,-16.0,-8.0,0.0,-3.0,-6.0,12.0,0.0,-8.0,25.0,0.0
9.0,-26.0,-12.0,-9.0,-4.0,-14.0,17.0,9.0,-14.0,20.0,0.0
14.0,-24.0,-9.0,-12.0,-6.0,-28.0,25.0,9.0,-16.0,26.0,0.0
2.0,-38.0,-5.0,-17.0,-15.0,-25.0,22.0,0.0,-14.0,30.0,0.0
-3.0,-43.0,-13.0,-20.0,-22.0,-18.0,18.0,-8.0,-11.0,23.0,0.0
1.0,-27.0,-6.0,-15.0,-24.0,-16.0,19.0,-17.0,5.0,17.0,0.0
5.0,-32.0,-1.0,-8.0,-12.0,-5.0,13.0,-12.0,37.0,15.0,0.0
11.0,-24.0,-1.0,-7.0,-9.0,13.0,3.0,-6.0,62.0,13.0,0.0
11.0,-2.0,6.0,-5.0,-7.0,25.0,-17.0,-4.0,30.0,-10.0,0.0
14.0,33.0,14.0,-6.0,-10.0,19.0,-25.0,-9.0,-23.0,-28.0,0.0
27.0,63.0,29.0,-5.0,-3.0,18.0,-31.0,5.0,-25.0,-19.0,0.0
51.0,59.0,26.0,-7.0,12.0,16.0,-26.0,19.0,-9.0,6.0,0.0
60.0,19.0,19.0,-22.0,31.0,20.0,-17.0,11.0,-22.0,19.0,0.0
27.0,1.0,-4.0,-52.0,21.0,12.0,-16.0,-7.0,-61.0,-2.0,0.0
25.0,7.0,-4.0,-54.0,17.0,17.0,8.0,16.0,-7.0,23.0,0.0
25.0,6.0,4.0,-47.0,15.0,10.0,14.0,16.0,70.0,44.0,0.0
2.0,-17.0,3.0,-33.0,0.0,-4.0,1.0,15.0,8.0,10.0,0.0
-5.0,-23.0,0.0,-17.0,-8.0,19.0,34.0,53.0,-16.0,3.0,0.0
-1.0,-36.0,-9.0,-23.0,-11.0,39.0,46.0,85.0,11.0,21.0,0.0
-15.0,-30.0,-20.0,-33.0,-3.0,24.0,48.0,77.0,19.0,21.0,0.0
-20.0,-14.0,-15.0,-39.0,-5.0,11.0,52.0,61.0,21.0,8.0,0.0
-1.0,2.0,-9.0,-31.0,-13.0,5.0,42.0,51.0,81.0,35.0,0.0
8.0,17.0,8.0,-34.0,-19.0,3.0,13.0,22.0,171.0,50.0,0.0
5.0,25.0,18.0,-35.0,-11.0,0.0,1.0,-16.0,172.0,32.0,0.0
19.0,25.0,24.0,-20.0,0.0,-3.0,-23.0,-22.0,96.0,43.0,0.0
36.0,35.0,27.0,-11.0,5.0,-6.0,-23.0,-8.0,-4.0,70.0,0.0
52.0,65.0,53.0,0.0,13.0,2.0,4.0,17.0,-34.0,109.0,0.0
59.0,70.0,61.0,16.0,11.0,6.0,0.0,53.0,-8.0,133.0,0.0
47.0,54.0,13.0,8.0,9.0,9.0,2.0,85.0,236.0,170.0,0.0
33.0,48.0,9.0,2.0,13.0,9.0,-7.0,35.0,328.0,124.0,0.0
28.0,64.0,32.0,5.0,26.0,12.0,-22.0,-41.0,374.0,54.0,0.0
10.0,64.0,44.0,3.0,22.0,-10.0,-62.0,-130.0,187.0,-11.0,0.0
-12.0,39.0,33.0,-3.0,0.0,-14.0,-80.0,-170.0,-242.0,-74.0,0.0
-47.0,1.0,10.0,-27.0,-16.0,-13.0,-64.0,-144.0,-510.0,-122.0,0.0
-61.0,-25.0,-10.0,-32.0,-22.0,-16.0,-39.0,-125.0,-486.0,-124.0,0.0
-47.0,-36.0,-21.0,-30.0,-23.0,-8.0,-16.0,-99.0,-312.0,-73.0,0.0
-26.0,-32.0,-16.0,-18.0,-23.0,0.0,-6.0,-81.0,-216.0,-53.0,0.0
-17.0,-26.0,-15.0,-5.0,0.0,20.0,-7.0,-78.0,-162.0,-60.0,0.0
-20.0,-28.0,-14.0,0.0,9.0,27.0,3.0,-58.0,-103.0,-52.0,0.0
-15.0,-24.0,-7.0,1.0,4.0,27.0,-1.0,-26.0,-72.0,-56.0,0.0
-2.0,0.0,18.0,7.0,0.0,18.0,-18.0,-10.0,-102.0,-66.0,0.0
26.0,12.0,29.0,6.0,-2.0,13.0,-28.0,-15.0,-106.0,-40.0,0.0
48.0,8.0,31.0,16.0,-3.0,1.0,-28.0,-24.0,-87.0,-19.0,0.0
45.0,2.0,22.0,33.0,1.0,2.0,-29.0,-24.0,-75.0,-21.0,0.0
40.0,-1.0,9.0,30.0,0.0,19.0,-14.0,3.0,-49.0,-18.0,0.0
33.0,-7.0,-5.0,10.0,-7.0,22.0,-5.0,25.0,-27.0,-5.0,0.0
36.0,0.0,-12.0,2.0,-18.0,12.0,-5.0,30.0,17.0,24.0,0.0
32.0,-5.0,-9.0,6.0,-13.0,14.0,17.0,38.0,57.0,39.0,0.0
12.0,-19.0,-8.0,9.0,5.0,11.0,34.0,42.0,83.0,49.0,0.0
-4.0,-23.0,-22.0,10.0,8.0,14.0,51.0,40.0,89.0,46.0,0.0
-18.0,-7.0,-5.0,6.0,9.0,23.0,51.0,3.0,28.0,8.0,0.0
-40.0,-22.0,-13.0,4.0,6.0,22.0,69.0,-27.0,-49.0,-27.0,0.0
-46.0,-43.0,-32.0,1.0,-1.0,21.0,83.0,-38.0,-87.0,-36.0,0.0
-29.0,-27.0,-26.0,2.0,-1.0,30.0,52.0,-42.0,-82.0,0.0,0.0
-18.0,-16.0,-27.0,11.0,-9.0,31.0,33.0,-17.0,-15.0,49.0,0.0
5.0,-13.0,-14.0,8.0,-12.0,34.0,25.0,41.0,116.0,103.0,0.0
20.0,1.0,8.0,-10.0,-4.0,29.0,16.0,53.0,158.0,112.0,0.0
21.0,0.0,15.0,-10.0,-4.0,27.0,7.0,20.0,71.0,76.0,0.0
28.0,0.0,34.0,-4.0,-2.0,31.0,1.0,0.0,-66.0,28.0,0.0
23.0,6.0,48.0,18.0,1.0,20.0,-10.0,-20.0,-183.0,-25.0,0.0
11.0,3.0,48.0,35.0,3.0,12.0,-39.0,-56.0,-213.0,-81.0,0.0
-5.0,-7.0,32.0,22.0,-13.0,-3.0,-44.0,-53.0,-25.0,-120.0,0.0
-23.0,-29.0,0.0,-6.0,-30.0,-17.0,-37.0,-27.0,132.0,-116.0,0.0
-46.0,-33.0,-29.0,-27.0,-33.0,-17.0,-25.0,-15.0,3.0,-96.0,0.0
-33.0,-29.0,-31.0,-38.0,-25.0,-16.0,-2.0,7.0,-131.0,-41.0,0.0
-14.0,-23.0,-36.0,-47.0,-21.0,-18.0,24.0,55.0,-77.0,41.0,0.0
-21.0,-27.0,-34.0,-38.0,-19.0,-16.0,44.0,94.0,13.0,59.0,0.0
-23.0,-23.0,-26.0,-12.0,-12.0,-16.0,59.0,95.0,88.0,28.0,0.0
-15.0,-25.0,-27.0,0.0,-7.0,-14.0,69.0,72.0,164.0,0.0,0.0
0.0,-18.0,-27.0,-3.0,-3.0,-20.0,53.0,26.0,168.0,-9.0,0.0
0.0,-14.0,-17.0,0.0,0.0,-12.0,33.0,-26.0,68.0,-9.0,0.0
6.0,-12.0,-10.0,4.0,-6.0,-13.0,14.0,-70.0,-78.0,-3.0,0.0
21.0,0.0,5.0,8.0,4.0,-11.0,1.0,-64.0,-148.0,8.0,0.0
32.0,15.0,10.0,-2.0,11.0,-7.0,1.0,-27.0,-64.0,22.0,0.0
45.0,14.0,3.0,-16.0,4.0,-5.0,-10.0,4.0,53.0,33.0,0.0
53.0,20.0,0.0,-18.0,2.0,-17.0,-38.0,0.0,94.0,35.0,0.0
47.0,25.0,17.0,-13.0,15.0,-23.0,-68.0,-35.0,39.0,19.0,0.0
25.0,19.0,17.0,-8.0,24.0,-14.0,-79.0,-74.0,-87.0,-3.0,0.0
6.0,16.0,22.0,-15.0,25.0,-19.0,-64.0,-77.0,-153.0,-13.0,0.0
0.0,3.0,18.0,-10.0,16.0,-20.0,-42.0,-50.0,-96.0,-5.0,0.0
1.0,1.0,13.0,-10.0,4.0,-17.0,-18.0,-12.0,-45.0,10.0,0.0
5.0,17.0,15.0,-9.0,-4.0,-6.0,-2.0,-3.0,-3.0,17.0,0.0
10.0,22.0,11.0,7.0,-11.0,6.0,18.0,3.0,16.0,54.0,0.0
8.0,26.0,14.0,24.0,-23.0,11.0,31.0,7.0,27.0,84.0,0.0
4.0,22.0,9.0,20.0,-34.0,4.0,32.0,6.0,55.0,93.0,0.0
-1.0,17.0,2.0,16.0,-35.0,-2.0,39.0,12.0,107.0,83.0,0.0
16.0,30.0,1.0,26.0,-31.0,11.0,47.0,9.0,161.0,91.0,0.0
29.0,44.0,6.0,38.0,-16.0,32.0,47.0,2.0,152.0,81.0,0.0
19.0,30.0,10.0,29.0,-11.0,21.0,40.0,12.0,153.0,46.0,0.0
-13.0,5.0,-1.0,33.0,-24.0,10.0,11.0,21.0,111.0,7.0,0.0
-32.0,7.0,-10.0,36.0,-28.0,7.0,-14.0,15.0,-45.0,-25.0,0.0
-20.0,20.0,18.0,42.0,-15.0,14.0,-14.0,11.0,-87.0,-32.0,0.0
-14.0,38.0,20.0,39.0,1.0,14.0,-21.0,22.0,-51.0,-26.0,0.0
-15.0,15.0,9.0,41.0,19.0,-8.0,-51.0,18.0,-28.0,-51.0,0.0
-12.0,1.0,0.0,25.0,8.0,0.0,-32.0,19.0,-27.0,-42.0,0.0
-10.0,0.0,-3.0,17.0,3.0,-9.0,-16.0,-1.0,37.0,-30.0,0.0
-22.0,-8.0,-6.0,8.0,2.0,-50.0,-41.0,-41.0,79.0,-32.0,0.0
-35.0,-40.0,-15.0,-5.0,-10.0,-65.0,-77.0,-45.0,-56.0,-53.0,0.0
-19.0,-10.0,-12.0,0.0,-11.0,-40.0,-29.0,-18.0,-52.0,-12.0,0.0
-9.0,-3.0,-17.0,-8.0,-12.0,-29.0,-15.0,-25.0,-49.0,3.0,0.0
-14.0,4.0,-27.0,-5.0,-13.0,-24.0,-8.0,-23.0,-17.0,24.0,0.0
-10.0,15.0,-22.0,-13.0,-6.0,-16.0,-13.0,-22.0,-17.0,28.0,0.0
5.0,28.0,-2.0,-30.0,-6.0,-14.0,-41.0,-25.0,-36.0,28.0,0.0
11.0,30.0,9.0,-30.0,-8.0,-15.0,-32.0,-10.0,-26.0,26.0,0.0
5.0,8.0,1.0,-31.0,0.0,3.0,28.0,19.0,8.0,-2.0,0.0
17.0,5.0,23.0,-21.0,17.0,0.0,38.0,24.0,26.0,-17.0,0.0
39.0,18.0,36.0,-7.0,23.0,6.0,13.0,22.0,29.0,3.0,0.0
35.0,17.0,24.0,-9.0,24.0,10.0,9.0,30.0,35.0,12.0,0.0
22.0,17.0,22.0,-6.0,27.0,9.0,5.0,34.0,26.0,14.0,0.0
8.0,14.0,14.0,0.0,19.0,16.0,-8.0,43.0,20.0,13.0,0.0
-17.0,-16.0,-5.0,-6.0,3.0,-1.0,12.0,81.0,55.0,19.0,0.0
-7.0,-12.0,3.0,-2.0,8.0,-6.0,10.0,71.0,46.0,16.0,0.0
-21.0,-22.0,-1.0,-12.0,11.0,-7.0,17.0,44.0,70.0,1.0,0.0
-25.0,-46.0,-14.0,-15.0,15.0,-20.0,-3.0,18.0,51.0,-6.0,0.0
-17.0,-47.0,-25.0,-17.0,12.0,-9.0,8.0,13.0,3.0,6.0,0.0
-26.0,-42.0,-53.0,-16.0,5.0,0.0,25.0,13.0,12.0,19.0,0.0
-44.0,-46.0,-64.0,-2.0,5.0,-2.0,32.0,-9.0,1.0,-9.0,0.0
-54.0,-44.0,-55.0,19.0,6.0,-3.0,20.0,-19.0,-16.0,-25.0,0.0
-40.0,-20.0,-41.0,36.0,20.0,5.0,4.0,-12.0,-11.0,-12.0,0.0
-17.0,16.0,-14.0,45.0,28.0,6.0,-2.0,11.0,18.0,19.0,0.0
7.0,41.0,4.0,45.0,28.0,-5.0,0.0,31.0,60.0,50.0,0.0
29.0,58.0,8.0,51.0,32.0,-4.0,0.0,54.0,79.0,68.0,0.0
28.0,47.0,15.0,50.0,30.0,4.0,-5.0,68.0,70.0,78.0,0.0
31.0,15.0,17.0,41.0,35.0,13.0,-6.0,61.0,60.0,89.0,0.0
35.0,15.0,20.0,30.0,36.0,26.0,12.0,38.0,22.0,52.0,0.0
5.0,-13.0,17.0,14.0,28.0,2.0,-27.0,-48.0,-147.0,-45.0,0.0
-14.0,-20.0,-3.0,-6.0,18.0,-8.0,-19.0,-64.0,-163.0,-73.0,0.0
-12.0,-27.0,-3.0,-18.0,3.0,1.0,6.0,-51.0,-131.0,-66.0,0.0
-10.0,-45.0,-12.0,-39.0,-9.0,-26.0,-13.0,-45.0,-114.0,-71.0,0.0
-8.0,-56.0,-10.0,-44.0,-11.0,-33.0,-16.0,-35.0,-101.0,-64.0,0.0
-7.0,-26.0,-7.0,-19.0,-15.0,-16.0,35.0,5.0,-46.0,-14.0,0.0
-6.0,-20.0,-4.0,0.0,-25.0,-22.0,47.0,18.0,-10.0,11.0,0.0
4.0,-20.0,-8.0,5.0,-20.0,-9.0,53.0,21.0,21.0,28.0,0.0
21.0,0.0,5.0,4.0,-7.0,6.0,55.0,30.0,66.0,31.0,0.0
22.0,10.0,-7.0,30.0,4.0,7.0,37.0,41.0,55.0,18.0,0.0
11.0,0.0,-5.0,49.0,0.0,4.0,21.0,40.0,-16.0,2.0,0.0
2.0,0.0,1.0,42.0,0.0,1.0,9.0,36.0,-51.0,-23.0,0.0
0.0,-6.0,-7.0,38.0,14.0,-7.0,1.0,16.0,-57.0,-41.0,0.0
-6.0,0.0,-1.0,54.0,25.0,1.0,-6.0,-19.0,-70.0,-55.0,0.0
-5.0,11.0,12.0,48.0,24.0,-1.0,-23.0,-48.0,-119.0,-58.0,0.0
14.0,25.0,13.0,49.0,20.0,-2.0,-29.0,-28.0,-71.0,-36.0,0.0
24.0,34.0,12.0,29.0,16.0,7.0,-7.0,19.0,29.0,-11.0,0.0
19.0,31.0,6.0,7.0,15.0,7.0,20.0,57.0,114.0,1.0,0.0
-3.0,7.0,0.0,1.0,8.0,-6.0,18.0,53.0,117.0,-6.0,0.0
-11.0,-9.0,0.0,-2.0,3.0,-16.0,5.0,43.0,67.0,-15.0,0.0
-24.0,-11.0,-6.0,-3.0,-3.0,0.0,8.0,17.0,27.0,-23.0,0.0
-21.0,-2.0,-20.0,5.0,-2.0,9.0,3.0,-18.0,11.0,-15.0,0.0
-11.0,5.0,-22.0,11.0,0.0,-11.0,-6.0,-49.0,-37.0,-5.0,0.0
-4.0,4.0,-20.0,18.0,10.0,-18.0,6.0,-54.0,-47.0,0.0,0.0
17.0,6.0,-24.0,12.0,12.0,-3.0,25.0,-33.0,60.0,18.0,0.0
19.0,7.0,-25.0,1.0,19.0,-6.0,20.0,-4.0,160.0,25.0,0.0
23.0,16.0,-16.0,-15.0,19.0,3.0,26.0,14.0,145.0,48.0,0.0
30.0,26.0,-20.0,-17.0,18.0,18.0,32.0,29.0,66.0,54.0,0.0
26.0,9.0,-21.0,-14.0,27.0,14.0,17.0,45.0,-22.0,9.0,0.0
26.0,-7.0,-4.0,-15.0,21.0,5.0,0.0,40.0,-79.0,-26.0,0.0
21.0,-12.0,13.0,-7.0,32.0,5.0,-2.0,33.0,-9.0,-48.0,0.0
12.0,1.0,31.0,6.0,37.0,13.0,-15.0,14.0,39.0,-46.0,0.0
4.0,18.0,27.0,18.0,55.0,11.0,-23.0,-7.0,56.0,-32.0,0.0
-2.0,14.0,14.0,25.0,59.0,18.0,-12.0,-25.0,22.0,-10.0,0.0
-15.0,-8.0,1.0,14.0,39.0,18.0,-16.0,-50.0,-87.0,7.0,0.0
-3.0,-10.0,13.0,15.0,36.0,15.0,-11.0,-41.0,-67.0,11.0,0.0
-6.0,-17.0,16.0,26.0,28.0,9.0,-4.0,-25.0,-23.0,-2.0,0.0
-12.0,-22.0,13.0,14.0,15.0,-11.0,7.0,-7.0,-14.0,-40.0,0.0
-15.0,-22.0,11.0,2.0,7.0,-24.0,7.0,4.0,-26.0,-49.0,0.0
-17.0,-21.0,3.0,-9.0,-17.0,-17.0,17.0,18.0,-33.0,-16.0,0.0
-8.0,-20.0,3.0,-11.0,-24.0,-10.0,31.0,21.0,-45.0,3.0,0.0
-8.0,-20.0,2.0,-15.0,-14.0,-20.0,41.0,36.0,-23.0,-6.0,0.0
-13.0,-16.0,6.0,-6.0,-2.0,-20.0,39.0,50.0,3.0,-13.0,0.0
-21.0,-11.0,5.0,5.0,11.0,-9.0,18.0,40.0,48.0,-16.0,0.0
-14.0,10.0,5.0,3.0,16.0,-3.0,7.0,22.0,97.0,-1.0,0.0
-8.0,18.0,19.0,5.0,21.0,2.0,-8.0,-5.0,76.0,2.0,0.0
-7.0,21.0,30.0,4.0,27.0,9.0,-30.0,-43.0,-30.0,1.0,0.0
-5.0,17.0,24.0,12.0,28.0,5.0,-35.0,-40.0,-87.0,1.0,0.0
8.0,15.0,47.0,22.0,27.0,11.0,-21.0,-3.0,-44.0,16.0,0.0
16.0,20.0,49.0,21.0,23.0,14.0,-3.0,25.0,-35.0,17.0,0.0
14.0,16.0,42.0,20.0,23.0,8.0,0.0,38.0,-27.0,30.0,0.0
25.0,24.0,22.0,13.0,13.0,8.0,0.0,56.0,-21.0,72.0,0.0
30.0,19.0,20.0,8.0,8.0,17.0,13.0,77.0,-31.0,96.0,0.0
27.0,19.0,18.0,3.0,-10.0,18.0,22.0,88.0,-17.0,105.0,0.0
39.0,28.0,13.0,5.0,-13.0,12.0,24.0,80.0,27.0,108.0,0.0
39.0,29.0,14.0,7.0,-8.0,0.0,3.0,38.0,77.0,83.0,0.0
17.0,17.0,19.0,17.0,6.0,4.0,3.0,-32.0,118.0,22.0,0.0
-25.0,2.0,18.0,20.0,1.0,1.0,-4.0,-105.0,128.0,-39.0,0.0
-56.0,-14.0,-6.0,6.0,-26.0,-11.0,-27.0,-154.0,-44.0,-90.0,0.0
-55.0,-26.0,-29.0,-10.0,-33.0,-28.0,-37.0,-122.0,-212.0,-94.0,0.0
-37.0,-10.0,-27.0,-13.0,-21.0,-30.0,-25.0,-63.0,-100.0,-57.0,0.0
-28.0,-5.0,-16.0,2.0,1.0,-15.0,-16.0,-22.0,-14.0,-10.0,0.0
-8.0,-11.0,-4.0,19.0,5.0,4.0,-12.0,-16.0,-32.0,-4.0,0.0
-2.0,-8.0,-7.0,20.0,12.0,22.0,-23.0,3.0,-38.0,-12.0,0.0
-11.0,6.0,-5.0,27.0,14.0,23.0,-21.0,18.0,-55.0,3.0,0.0
-5.0,9.0,-14.0,30.0,11.0,22.0,-18.0,19.0,-102.0,12.0,0.0
-15.0,-5.0,-16.0,28.0,10.0,6.0,-35.0,20.0,-104.0,0.0,0.0
3.0,10.0,-15.0,20.0,13.0,0.0,-27.0,7.0,-96.0,-3.0,0.0
17.0,7.0,-24.0,27.0,15.0,2.0,-13.0,17.0,-75.0,6.0,0.0
30.0,0.0,-27.0,33.0,12.0,3.0,-1.0,17.0,-48.0,4.0,0.0
17.0,-5.0,-14.0,19.0,19.0,-5.0,3.0,-10.0,-19.0,-12.0,0.0
-3.0,-13.0,-12.0,13.0,22.0,-17.0,-4.0,-11.0,113.0,-21.0,0.0
-16.0,-9.0,-12.0,7.0,6.0,-32.0,-21.0,0.0,241.0,-16.0,0.0
-23.0,-15.0,-13.0,-5.0,0.0,-39.0,-19.0,-6.0,142.0,-19.0,0.0
-40.0,-36.0,-12.0,-15.0,-1.0,-39.0,-18.0,-28.0,-35.0,-50.0,0.0
-34.0,-29.0,-14.0,-10.0,-5.0,-37.0,-31.0,-43.0,-61.0,-35.0,0.0
-6.0,8.0,-14.0,-15.0,-1.0,-38.0,-46.0,-52.0,-52.0,-25.0,0.0
11.0,4.0,-4.0,-17.0,-2.0,-19.0,18.0,-36.0,-50.0,-36.0,0.0
13.0,11.0,16.0,-19.0,-8.0,-18.0,61.0,-19.0,-32.0,-44.0,0.0
15.0,24.0,31.0,-17.0,-4.0,-24.0,20.0,-12.0,-30.0,-54.0,0.0
28.0,24.0,16.0,-14.0,3.0,-24.0,-6.0,3.0,-30.0,-53.0,0.0
27.0,27.0,-3.0,-7.0,1.0,-21.0,-20.0,10.0,-17.0,-52.0,0.0
36.0,28.0,0.0,-14.0,-11.0,-23.0,-30.0,19.0,3.0,-19.0,0.0
40.0,3.0,10.0,-22.0,-13.0,-16.0,-43.0,13.0,7.0,53.0,0.0
28.0,-15.0,7.0,-23.0,-21.0,-16.0,-22.0,3.0,2.0,75.0,0.0
14.0,-9.0,3.0,-24.0,-17.0,-19.0,-7.0,-3.0,-8.0,52.0,0.0
6.0,3.0,-2.0,-19.0,-13.0,-14.0,8.0,-5.0,-27.0,26.0,0.0
0.0,3.0,5.0,-23.0,-9.0,-16.0,-6.0,-9.0,-36.0,-8.0,0.0
7.0,5.0,-7.0,-29.0,-3.0,-7.0,2.0,-10.0,-28.0,-9.0,0.0
2.0,-4.0,-7.0,-35.0,-11.0,-4.0,13.0,-8.0,-1.0,0.0,0.0
0.0,-18.0,-17.0,-48.0,-20.0,-15.0,24.0,1.0,41.0,18.0,0.0
-10.0,-23.0,-28.0,-52.0,-25.0,-13.0,26.0,16.0,88.0,39.0,0.0
2.0,-11.0,-13.0,-42.0,-12.0,-4.0,27.0,16.0,86.0,30.0,0.0
27.0,-10.0,-5.0,-30.0,-2.0,-4.0,30.0,16.0,94.0,23.0,0.0
44.0,-4.0,-3.0,-27.0,11.0,1.0,38.0,34.0,138.0,56.0,0.0
49.0,1.0,-8.0,-5.0,22.0,0.0,38.0,61.0,124.0,86.0,0.0
26.0,8.0,0.0,25.0,21.0,0.0,24.0,55.0,52.0,61.0,0.0
12.0,-5.0,0.0,37.0,13.0,-3.0,4.0,46.0,38.0,38.0,0.0
1.0,-20.0,3.0,46.0,13.0,8.0,-35.0,18.0,45.0,-3.0,0.0
4.0,-25.0,1.0,50.0,12.0,2.0,-54.0,-21.0,36.0,-31.0,0.0
18.0,-31.0,-5.0,34.0,8.0,-1.0,-53.0,-45.0,-28.0,-43.0,0.0
17.0,-30.0,-21.0,29.0,4.0,-2.0,-34.0,-36.0,-118.0,-56.0,0.0
3.0,-24.0,-21.0,15.0,-1.0,-5.0,-19.0,-31.0,-202.0,-78.0,0.0
-9.0,-29.0,-6.0,-1.0,-8.0,-11.0,-21.0,-9.0,-147.0,-74.0,0.0
-18.0,-40.0,-22.0,-8.0,-19.0,-14.0,3.0,22.0,-33.0,-23.0,0.0
-14.0,-27.0,-29.0,0.0,-24.0,-19.0,10.0,42.0,-6.0,-14.0,0.0
-9.0,-29.0,-49.0,-3.0,-14.0,-21.0,13.0,47.0,-5.0,-15.0,0.0
-3.0,-11.0,-47.0,-13.0,-12.0,-23.0,14.0,40.0,25.0,11.0,0.0
0.0,31.0,-34.0,-6.0,-6.0,-28.0,15.0,36.0,33.0,28.0,0.0
-6.0,53.0,-23.0,-9.0,0.0,-14.0,28.0,33.0,12.0,23.0,0.0
-1.0,74.0,-2.0,-5.0,15.0,2.0,41.0,28.0,29.0,39.0,0.0
16.0,67.0,15.0,12.0,24.0,0.0,23.0,12.0,72.0,35.0,0.0
31.0,52.0,30.0,16.0,30.0,1.0,2.0,-21.0,46.0,8.0,0.0
48.0,54.0,33.0,-12.0,18.0,-7.0,-11.0,-46.0,20.0,-25.0,0.0
45.0,63.0,35.0,-14.0,10.0,-13.0,-22.0,-38.0,60.0,-39.0,0.0
46.0,46.0,35.0,3.0,7.0,-5.0,-55.0,-47.0,10.0,-21.0,0.0
48.0,35.0,22.0,10.0,7.0,-14.0,-70.0,-57.0,-64.0,11.0,0.0
20.0,26.0,16.0,18.0,-1.0,-15.0,-57.0,-40.0,-50.0,-6.0,0.0
18.0,14.0,5.0,28.0,-11.0,-3.0,-47.0,-26.0,-19.0,-36.0,0.0
7.0,14.0,-6.0,24.0,-17.0,4.0,-33.0,-13.0,-8.0,-42.0,0.0
-7.0,1.0,-13.0,18.0,-15.0,7.0,-17.0,0.0,8.0,-25.0,0.0
-6.0,-6.0,-4.0,7.0,-5.0,0.0,-6.0,0.0,25.0,-22.0,0.0
-29.0,-12.0,-13.0,-15.0,-17.0,2.0,10.0,11.0,28.0,-15.0,0.0
-41.0,-25.0,-17.0,-30.0,-21.0,11.0,20.0,15.0,18.0,-25.0,0.0
-45.0,-33.0,-23.0,-33.0,-11.0,16.0,25.0,9.0,1.0,-37.0,0.0
-26.0,-17.0,-15.0,-23.0,-5.0,12.0,28.0,7.0,-7.0,-31.0,0.0
1.0,-5.0,-11.0,-11.0,-16.0,2.0,22.0,23.0,-8.0,-13.0,0.0
11.0,-6.0,-6.0,13.0,2.0,6.0,26.0,31.0,-14.0,-7.0,0.0
18.0,-1.0,-8.0,23.0,10.0,13.0,28.0,41.0,-5.0,8.0,0.0
12.0,7.0,-11.0,22.0,4.0,13.0,21.0,45.0,46.0,5.0,0.0
8.0,2.0,6.0,8.0,10.0,32.0,19.0,45.0,119.0,12.0,0.0
20.0,-2.0,11.0,8.0,8.0,34.0,11.0,11.0,91.0,30.0,0.0
31.0,16.0,18.0,6.0,-1.0,12.0,-14.0,-27.0,-23.0,44.0,0.0
26.0,26.0,27.0,3.0,-13.0,14.0,-14.0,-36.0,-38.0,56.0,0.0
20.0,28.0,20.0,0.0,-25.0,4.0,-10.0,-41.0,15.0,67.0,0.0
21.0,17.0,17.0,-3.0,-5.0,-8.0,-26.0,-45.0,42.0,73.0,0.0
18.0,15.0,25.0,0.0,-3.0,-2.0,1.0,-33.0,31.0,56.0,0.0
5.0,9.0,23.0,1.0,-5.0,6.0,26.0,-27.0,57.0,22.0,0.0
0.0,0.0,9.0,-5.0,-11.0,2.0,30.0,-19.0,132.0,8.0,0.0
-10.0,-16.0,-10.0,-12.0,-29.0,-3.0,24.0,-26.0,75.0,-36.0,0.0
-29.0,-29.0,-31.0,-13.0,-31.0,-8.0,24.0,-37.0,-124.0,-92.0,0.0
-24.0,-21.0,-31.0,-7.0,-27.0,-9.0,34.0,-30.0,-165.0,-81.0,0.0
-6.0,-8.0,-21.0,-2.0,-22.0,-1.0,32.0,-14.0,-101.0,-34.0,0.0
1.0,-3.0,-16.0,-3.0,-15.0,4.0,32.0,-1.0,-46.0,-12.0,0.0
-9.0,0.0,-13.0,-8.0,-14.0,-1.0,24.0,16.0,3.0,-4.0,0.0
6.0,20.0,5.0,-6.0,-12.0,6.0,8.0,10.0,24.0,-3.0,0.0
24.0,47.0,33.0,8.0,-13.0,1.0,-7.0,14.0,26.0,9.0,0.0
43.0,58.0,51.0,23.0,-8.0,-6.0,-23.0,14.0,45.0,24.0,0.0
57.0,60.0,54.0,29.0,4.0,-11.0,-19.0,14.0,77.0,34.0,0.0
49.0,46.0,52.0,19.0,-3.0,-11.0,-26.0,8.0,68.0,43.0,0.0
31.0,41.0,54.0,17.0,-11.0,-11.0,-39.0,3.0,9.0,49.0,0.0
26.0,32.0,53.0,14.0,-12.0,-5.0,-29.0,0.0,8.0,51.0,0.0
10.0,21.0,43.0,12.0,-13.0,0.0,-13.0,-17.0,28.0,29.0,0.0
-26.0,-7.0,26.0,8.0,-9.0,3.0,-6.0,-14.0,45.0,-8.0,0.0
-62.0,-50.0,17.0,7.0,-10.0,-8.0,1.0,-19.0,23.0,-45.0,0.0
-80.0,-65.0,3.0,6.0,-6.0,-11.0,18.0,-41.0,-39.0,-99.0,0.0
-110.0,-75.0,-27.0,5.0,-13.0,-8.0,35.0,-31.0,-58.0,-120.0,0.0
-122.0,-82.0,-39.0,-18.0,-23.0,-18.0,30.0,-27.0,-93.0,-136.0,0.0
-105.0,-61.0,-36.0,-20.0,-20.0,-13.0,31.0,-37.0,-107.0,-131.0,0.0
-79.0,-26.0,-10.0,-1.0,-12.0,-14.0,23.0,-43.0,-77.0,-89.0,0.0
-56.0,-5.0,1.0,29.0,-16.0,-3.0,13.0,-32.0,-45.0,-66.0,0.0
-25.0,7.0,5.0,32.0,-10.0,-1.0,-8.0,-13.0,-24.0,-54.0,0.0
-6.0,25.0,30.0,29.0,-8.0,7.0,-18.0,5.0,2.0,-33.0,0.0
4.0,31.0,38.0,31.0,-1.0,8.0,-13.0,35.0,9.0,-12.0,0.0
17.0,22.0,21.0,25.0,2.0,-5.0,-8.0,53.0,15.0,0.0,0.0
5.0,8.0,5.0,25.0,5.0,2.0,-16.0,59.0,16.0,2.0,0.0
-4.0,6.0,-5.0,29.0,1.0,5.0,-9.0,49.0,13.0,11.0,0.0
8.0,27.0,6.0,34.0,-7.0,-3.0,-9.0,33.0,23.0,25.0,0.0
19.0,46.0,21.0,35.0,0.0,2.0,3.0,33.0,41.0,53.0,0.0
23.0,43.0,22.0,33.0,2.0,-1.0,4.0,20.0,49.0,59.0,0.0
17.0,45.0,32.0,41.0,5.0,-1.0,-5.0,-6.0,34.0,39.0,0.0
4.0,18.0,29.0,30.0,16.0,-12.0,-4.0,-31.0,-4.0,7.0,0.0
-14.0,-17.0,5.0,2.0,5.0,-20.0,14.0,-40.0,-39.0,-28.0,0.0
-20.0,-24.0,-5.0,-9.0,-7.0,-17.0,15.0,-44.0,-40.0,-35.0,0.0
-20.0,-22.0,0.0,-27.0,-16.0,-11.0,27.0,-20.0,-28.0,-14.0,0.0
-16.0,-24.0,2.0,-23.0,-17.0,-8.0,55.0,23.0,-26.0,0.0,0.0
0.0,-22.0,5.0,-20.0,-6.0,-6.0,54.0,60.0,45.0,20.0,0.0
20.0,-14.0,11.0,-35.0,0.0,8.0,42.0,101.0,146.0,42.0,0.0
27.0,-6.0,22.0,-46.0,6.0,13.0,35.0,117.0,251.0,82.0,0.0
43.0,5.0,23.0,-37.0,14.0,12.0,2.0,90.0,270.0,116.0,0.0
51.0,22.0,37.0,-24.0,21.0,20.0,-28.0,1.0,140.0,77.0,0.0
42.0,26.0,45.0,-9.0,25.0,11.0,-69.0,-101.0,-101.0,11.0,0.0
31.0,27.0,45.0,0.0,21.0,7.0,-100.0,-165.0,-250.0,-32.0,0.0
22.0,26.0,49.0,-1.0,10.0,4.0,-115.0,-180.0,-285.0,-39.0,0.0
7.0,7.0,42.0,-10.0,-3.0,4.0,-76.0,-147.0,-271.0,-57.0,0.0
0.0,-12.0,17.0,-20.0,-11.0,5.0,8.0,-76.0,-95.0,-74.0,0.0
-23.0,-21.0,-9.0,-31.0,-32.0,-12.0,36.0,-40.0,15.0,-86.0,0.0
-48.0,-47.0,-42.0,-49.0,-45.0,-23.0,0.0,-40.0,-80.0,-128.0,0.0
-43.0,-48.0,-50.0,-49.0,-46.0,-23.0,-10.0,-28.0,-128.0,-123.0,0.0
-21.0,-42.0,-29.0,-28.0,-32.0,-20.0,0.0,-16.0,-60.0,-90.0,0.0
-10.0,-42.0,-29.0,-14.0,-20.0,-10.0,4.0,-3.0,-33.0,-65.0,0.0
-12.0,-45.0,-29.0,-3.0,-22.0,5.0,2.0,-7.0,-16.0,-48.0,0.0
-17.0,-36.0,-22.0,5.0,-21.0,20.0,6.0,-18.0,-5.0,-27.0,0.0
-14.0,-21.0,-12.0,5.0,-7.0,21.0,11.0,-11.0,4.0,-16.0,0.0
9.0,-12.0,-14.0,9.0,5.0,32.0,9.0,10.0,15.0,-16.0,0.0
17.0,-7.0,-8.0,12.0,12.0,36.0,0.0,23.0,0.0,-34.0,0.0
11.0,-8.0,-6.0,12.0,5.0,34.0,-5.0,27.0,10.0,-35.0,0.0
13.0,0.0,-7.0,5.0,0.0,26.0,-14.0,22.0,42.0,-9.0,0.0
32.0,16.0,-2.0,5.0,1.0,17.0,-26.0,19.0,36.0,-12.0,0.0
25.0,20.0,9.0,-5.0,2.0,6.0,-22.0,23.0,25.0,-40.0,0.0
12.0,14.0,7.0,-5.0,-2.0,3.0,-30.0,17.0,25.0,-46.0,0.0
-1.0,15.0,6.0,5.0,-2.0,-1.0,-23.0,14.0,53.0,-31.0,0.0
-17.0,15.0,-4.0,0.0,7.0,-9.0,-11.0,35.0,61.0,-30.0,0.0
-23.0,47.0,-10.0,-15.0,7.0,-6.0,5.0,54.0,41.0,-39.0,0.0
-30.0,62.0,-14.0,-14.0,4.0,-2.0,7.0,67.0,38.0,-32.0,0.0
-37.0,40.0,-23.0,-12.0,0.0,8.0,25.0,68.0,50.0,-27.0,0.0
-45.0,2.0,-33.0,-16.0,4.0,14.0,43.0,61.0,76.0,-19.0,0.0
-46.0,-7.0,-39.0,-39.0,-4.0,19.0,44.0,49.0,119.0,6.0,0.0
-48.0,7.0,-30.0,-42.0,-2.0,5.0,33.0,24.0,119.0,8.0,0.0
-36.0,17.0,-26.0,-44.0,2.0,8.0,30.0,-13.0,39.0,3.0,0.0
-23.0,16.0,-22.0,-43.0,0.0,13.0,20.0,-46.0,-100.0,3.0,0.0
-14.0,34.0,-2.0,-35.0,5.0,12.0,21.0,-29.0,-117.0,14.0,0.0
8.0,48.0,6.0,-33.0,5.0,7.0,8.0,3.0,-67.0,30.0,0.0
18.0,46.0,9.0,-33.0,8.0,7.0,-7.0,28.0,-20.0,20.0,0.0
13.0,31.0,17.0,-18.0,18.0,9.0,-6.0,22.0,47.0,-8.0,0.0
-5.0,24.0,15.0,5.0,29.0,12.0,-10.0,9.0,69.0,-67.0,0.0
-19.0,20.0,2.0,3.0,28.0,16.0,-24.0,22.0,53.0,-84.0,0.0
-20.0,8.0,-12.0,-10.0,12.0,3.0,-32.0,43.0,-8.0,-42.0,0.0
-6.0,20.0,-24.0,-20.0,1.0,-23.0,-15.0,50.0,-3.0,21.0,0.0
14.0,40.0,-20.0,-14.0,11.0,-29.0,-1.0,42.0,37.0,44.0,0.0
15.0,36.0,-7.0,-19.0,8.0,-25.0,0.0,24.0,139.0,2.0,0.0
0.0,15.0,-8.0,-24.0,9.0,-16.0,8.0,-2.0,247.0,-46.0,0.0
-37.0,-14.0,-25.0,-27.0,0.0,-30.0,-7.0,-55.0,99.0,-90.0,0.0
-58.0,-27.0,-52.0,-32.0,-19.0,-38.0,-27.0,-98.0,-186.0,-116.0,0.0
-53.0,-10.0,-66.0,-17.0,-20.0,-24.0,-6.0,-74.0,-220.0,-91.0,0.0
-32.0,5.0,-46.0,-5.0,-4.0,-6.0,5.0,-36.0,-103.0,-46.0,0.0
-10.0,26.0,-27.0,6.0,-11.0,0.0,1.0,-11.0,25.0,-31.0,0.0
-2.0,36.0,-16.0,17.0,-7.0,-5.0,-9.0,-10.0,47.0,-26.0,0.0
15.0,45.0,-1.0,20.0,11.0,4.0,-13.0,-27.0,5.0,-11.0,0.0
19.0,36.0,-2.0,9.0,12.0,-3.0,-19.0,-33.0,-14.0,-9.0,0.0
13.0,23.0,1.0,7.0,15.0,-8.0,-33.0,-22.0,-24.0,-19.0,0.0
13.0,28.0,8.0,8.0,19.0,-10.0,-42.0,11.0,-16.0,-25.0,0.0
13.0,34.0,11.0,0.0,21.0,-10.0,-20.0,28.0,6.0,4.0,0.0
12.0,34.0,14.0,-4.0,29.0,5.0,8.0,14.0,-5.0,4.0,0.0
5.0,30.0,3.0,2.0,21.0,13.0,8.0,-5.0,-27.0,-4.0,0.0
14.0,29.0,1.0,-4.0,9.0,13.0,0.0,-5.0,-22.0,2.0,0.0
16.0,17.0,12.0,0.0,4.0,6.0,13.0,3.0,-5.0,0.0,0.0
18.0,-7.0,0.0,-15.0,-6.0,1.0,22.0,6.0,8.0,-6.0,0.0
14.0,-16.0,-14.0,-24.0,-8.0,0.0,31.0,5.0,11.0,-19.0,0.0
7.0,-27.0,-34.0,-22.0,-10.0,1.0,41.0,21.0,11.0,-12.0,0.0
-4.0,-27.0,-17.0,-23.0,-7.0,12.0,53.0,30.0,25.0,-2.0,0.0
-12.0,-25.0,-2.0,-12.0,-2.0,14.0,54.0,39.0,71.0,11.0,0.0
3.0,-15.0,-1.0,-13.0,-8.0,17.0,40.0,48.0,156.0,35.0,0.0
17.0,-13.0,-4.0,-12.0,-3.0,21.0,35.0,35.0,203.0,32.0,0.0
16.0,-18.0,-5.0,2.0,0.0,15.0,29.0,17.0,161.0,33.0,0.0
27.0,-10.0,12.0,16.0,0.0,16.0,-1.0,-14.0,32.0,19.0,0.0
30.0,2.0,20.0,11.0,0.0,16.0,-37.0,-64.0,-120.0,-21.0,0.0
28.0,0.0,18.0,9.0,9.0,15.0,-46.0,-67.0,-216.0,-44.0,0.0
25.0,14.0,12.0,16.0,7.0,16.0,-38.0,-37.0,-161.0,-24.0,0.0
28.0,24.0,12.0,21.0,3.0,21.0,-18.0,-10.0,-75.0,16.0,0.0
13.0,9.0,21.0,27.0,3.0,28.0,-14.0,-13.0,-75.0,9.0,0.0
-14.0,1.0,17.0,18.0,0.0,29.0,-16.0,-40.0,-103.0,-22.0,0.0
-9.0,8.0,22.0,12.0,-3.0,20.0,-27.0,-50.0,-90.0,-28.0,0.0
-3.0,-2.0,14.0,-11.0,-7.0,0.0,-16.0,-12.0,-25.0,3.0,0.0
-10.0,-9.0,18.0,-30.0,-19.0,0.0,-10.0,4.0,21.0,37.0,0.0
-4.0,-12.0,28.0,-35.0,-25.0,2.0,6.0,0.0,23.0,48.0,0.0
-9.0,-22.0,20.0,-39.0,-20.0,-4.0,20.0,-3.0,18.0,34.0,0.0
-26.0,-27.0,1.0,-49.0,-30.0,-8.0,29.0,-18.0,-14.0,18.0,0.0
-16.0,-17.0,0.0,-45.0,-31.0,-4.0,28.0,-35.0,-15.0,17.0,0.0
-5.0,0.0,4.0,-35.0,-19.0,1.0,11.0,-19.0,6.0,26.0,0.0
0.0,-5.0,5.0,-17.0,-8.0,-2.0,-2.0,1.0,22.0,32.0,0.0
25.0,-4.0,12.0,13.0,-2.0,0.0,-10.0,11.0,23.0,38.0,0.0
34.0,26.0,31.0,22.0,6.0,21.0,-11.0,2.0,33.0,48.0,0.0
29.0,37.0,36.0,14.0,7.0,36.0,-5.0,2.0,42.0,46.0,0.0
34.0,27.0,34.0,9.0,6.0,35.0,-12.0,13.0,44.0,41.0,0.0
39.0,18.0,29.0,7.0,1.0,25.0,-43.0,9.0,43.0,49.0,0.0
39.0,11.0,23.0,6.0,6.0,20.0,-47.0,5.0,23.0,42.0,0.0
26.0,7.0,11.0,0.0,3.0,24.0,-45.0,8.0,2.0,23.0,0.0
19.0,0.0,1.0,-6.0,2.0,20.0,-38.0,10.0,3.0,19.0,0.0
12.0,-5.0,0.0,-7.0,6.0,12.0,-27.0,-4.0,15.0,5.0,0.0
5.0,-8.0,0.0,-9.0,0.0,-1.0,-22.0,-8.0,12.0,0.0,0.0
-9.0,-18.0,-1.0,-14.0,-9.0,-8.0,-4.0,-6.0,-18.0,4.0,0.0
-34.0,-21.0,-18.0,-24.0,-18.0,0.0,3.0,6.0,-8.0,22.0,0.0
-35.0,-21.0,-24.0,-31.0,-31.0,-2.0,16.0,30.0,7.0,40.0,0.0
-40.0,-31.0,-16.0,-37.0,-28.0,-7.0,13.0,26.0,20.0,67.0,0.0
-12.0,-30.0,-7.0,-32.0,-23.0,-6.0,13.0,30.0,24.0,97.0,0.0
-14.0,-32.0,-6.0,-18.0,-22.0,0.0,10.0,37.0,17.0,82.0,0.0
-34.0,-37.0,-2.0,2.0,-7.0,8.0,13.0,35.0,35.0,52.0,0.0
-28.0,-17.0,0.0,18.0,3.0,8.0,-5.0,36.0,71.0,23.0,0.0
-28.0,0.0,5.0,17.0,6.0,-2.0,-20.0,28.0,45.0,-22.0,0.0
-40.0,-7.0,17.0,18.0,17.0,-8.0,-35.0,7.0,-33.0,-87.0,0.0
-38.0,-14.0,31.0,25.0,28.0,3.0,-27.0,5.0,-53.0,-117.0,0.0
-25.0,-8.0,37.0,26.0,34.0,18.0,-22.0,8.0,-26.0,-81.0,0.0
-9.0,-3.0,32.0,40.0,29.0,17.0,-14.0,9.0,-13.0,-43.0,0.0
-5.0,-14.0,22.0,35.0,15.0,7.0,-15.0,12.0,-8.0,-30.0,0.0
-3.0,-28.0,14.0,25.0,7.0,-2.0,1.0,18.0,-1.0,-19.0,0.0
-11.0,-28.0,2.0,33.0,-2.0,-1.0,18.0,22.0,2.0,-4.0,0.0
-2.0,-24.0,4.0,42.0,-9.0,-3.0,30.0,29.0,12.0,18.0,0.0
-9.0,-32.0,-6.0,25.0,-18.0,0.0,36.0,41.0,25.0,9.0,0.0
-19.0,-37.0,-19.0,15.0,-27.0,-2.0,59.0,29.0,32.0,-18.0,0.0
-22.0,-27.0,-8.0,0.0,-28.0,-11.0,46.0,-11.0,-5.0,-23.0,0.0
-12.0,-29.0,-4.0,-14.0,-21.0,-7.0,26.0,-32.0,-33.0,-8.0,0.0
-4.0,-37.0,-5.0,-19.0,-11.0,-4.0,34.0,-10.0,-26.0,23.0,0.0
0.0,-34.0,-11.0,-1.0,6.0,-8.0,36.0,25.0,-21.0,63.0,0.0
10.0,-32.0,-14.0,-1.0,12.0,-1.0,26.0,35.0,-6.0,79.0,0.0
7.0,-23.0,-3.0,-3.0,4.0,9.0,27.0,44.0,8.0,87.0,0.0
22.0,-13.0,15.0,-2.0,6.0,9.0,25.0,58.0,29.0,80.0,0.0
33.0,-7.0,29.0,9.0,10.0,8.0,10.0,69.0,41.0,72.0,0.0
29.0,-5.0,32.0,12.0,13.0,8.0,-9.0,34.0,29.0,60.0,0.0
23.0,-2.0,24.0,14.0,11.0,-7.0,-45.0,1.0,-10.0,70.0,0.0
17.0,-14.0,13.0,-4.0,0.0,-8.0,-5.0,12.0,36.0,71.0,0.0
8.0,-27.0,-4.0,-28.0,-18.0,-5.0,59.0,46.0,245.0,47.0,0.0
3.0,-9.0,1.0,-23.0,-28.0,-11.0,39.0,12.0,326.0,26.0,0.0
-5.0,7.0,16.0,-15.0,-18.0,-13.0,0.0,-89.0,82.0,-33.0,0.0
-28.0,-9.0,-3.0,-38.0,-35.0,-31.0,-45.0,-161.0,-267.0,-98.0,0.0
-43.0,-42.0,-13.0,-57.0,-45.0,-41.0,-41.0,-119.0,-305.0,-111.0,0.0
-35.0,-39.0,-19.0,-53.0,-39.0,-31.0,-16.0,-44.0,-157.0,-78.0,0.0
-35.0,-30.0,-34.0,-50.0,-39.0,-9.0,-7.0,-18.0,-71.0,-43.0,0.0
-37.0,-18.0,-26.0,-56.0,-22.0,-2.0,-14.0,-15.0,-37.0,-25.0,0.0
-21.0,-12.0,-9.0,-39.0,-1.0,-8.0,-18.0,-22.0,-41.0,-10.0,0.0
-10.0,-2.0,3.0,-24.0,7.0,-10.0,-20.0,-25.0,-29.0,1.0,0.0
-4.0,0.0,-2.0,-19.0,12.0,2.0,-8.0,-10.0,18.0,42.0,0.0
4.0,-1.0,4.0,-12.0,25.0,1.0,4.0,8.0,51.0,67.0,0.0
4.0,-5.0,0.0,-7.0,40.0,-3.0,-2.0,10.0,50.0,61.0,0.0
-1.0,1.0,0.0,17.0,48.0,5.0,-8.0,12.0,43.0,63.0,0.0
-5.0,-2.0,8.0,38.0,43.0,11.0,-18.0,15.0,37.0,56.0,0.0
-11.0,1.0,0.0,39.0,34.0,6.0,-20.0,11.0,20.0,35.0,0.0
-19.0,-2.0,-6.0,26.0,28.0,-7.0,-6.0,9.0,11.0,22.0,0.0
-18.0,-8.0,2.0,9.0,4.0,-13.0,-6.0,9.0,13.0,21.0,0.0
-14.0,-21.0,7.0,10.0,-6.0,-26.0,0.0,-7.0,2.0,48.0,0.0
-29.0,-18.0,-7.0,-8.0,-14.0,-36.0,-2.0,-15.0,-5.0,41.0,0.0
-33.0,-10.0,-19.0,-24.0,-23.0,-27.0,0.0,-20.0,-8.0,27.0,0.0
-34.0,0.0,-9.0,-22.0,-9.0,-22.0,18.0,-23.0,-15.0,12.0,0.0
-40.0,31.0,-20.0,-10.0,6.0,-24.0,34.0,-23.0,-11.0,-8.0,0.0
-26.0,61.0,-31.0,3.0,2.0,-13.0,36.0,-19.0,-12.0,-37.0,0.0
-14.0,62.0,-17.0,6.0,4.0,-5.0,33.0,-18.0,-13.0,-30.0,0.0
-2.0,37.0,5.0,10.0,14.0,1.0,25.0,-13.0,-23.0,8.0,0.0
3.0,14.0,11.0,19.0,19.0,2.0,11.0,-10.0,-20.0,51.0,0.0
4.0,26.0,13.0,22.0,20.0,-3.0,-7.0,-11.0,-13.0,112.0,0.0
1.0,47.0,12.0,18.0,21.0,-2.0,-13.0,-11.0,-1.0,111.0,0.0
-2.0,58.0,12.0,16.0,16.0,4.0,-8.0,7.0,59.0,70.0,0.0
-1.0,59.0,16.0,19.0,15.0,5.0,-15.0,0.0,113.0,38.0,0.0
-3.0,54.0,21.0,37.0,18.0,1.0,-29.0,-19.0,69.0,9.0,0.0
-22.0,36.0,16.0,29.0,20.0,-1.0,-32.0,-19.0,-5.0,0.0,0.0
-26.0,20.0,9.0,15.0,15.0,-3.0,-17.0,-19.0,-31.0,-9.0,0.0
-15.0,5.0,17.0,5.0,11.0,-11.0,-10.0,-10.0,-39.0,-4.0,0.0
-6.0,0.0,9.0,3.0,0.0,-13.0,-14.0,-7.0,-27.0,1.0,0.0
-21.0,-1.0,-20.0,4.0,-7.0,-13.0,-7.0,-8.0,-22.0,12.0,0.0
-38.0,-8.0,-22.0,0.0,-11.0,-16.0,23.0,-4.0,-11.0,19.0,0.0
-51.0,-20.0,-23.0,-3.0,-13.0,-16.0,33.0,12.0,4.0,9.0,0.0
-55.0,-19.0,-14.0,-11.0,-11.0,-12.0,24.0,15.0,23.0,2.0,0.0
-56.0,-21.0,-14.0,-1.0,-22.0,-7.0,12.0,13.0,68.0,2.0,0.0
-55.0,-10.0,-21.0,1.0,-14.0,-3.0,18.0,9.0,62.0,16.0,0.0
-27.0,11.0,-7.0,-3.0,6.0,-8.0,26.0,0.0,31.0,58.0,0.0
1.0,18.0,24.0,11.0,20.0,-2.0,17.0,14.0,0.0,86.0,0.0
9.0,26.0,32.0,12.0,15.0,8.0,10.0,32.0,-27.0,102.0,0.0
21.0,38.0,24.0,2.0,22.0,9.0,3.0,42.0,21.0,125.0,0.0
30.0,40.0,28.0,1.0,35.0,16.0,6.0,50.0,116.0,118.0,0.0
48.0,57.0,36.0,12.0,36.0,21.0,-2.0,40.0,180.0,94.0,0.0
49.0,53.0,32.0,21.0,37.0,21.0,-12.0,5.0,237.0,47.0,0.0
14.0,20.0,18.0,0.0,26.0,14.0,-25.0,-28.0,200.0,-29.0,0.0
-28.0,-18.0,-10.0,-27.0,-1.0,-10.0,-41.0,-69.0,-129.0,-116.0,0.0
-49.0,-43.0,-11.0,-35.0,-19.0,-18.0,-44.0,-74.0,-373.0,-124.0,0.0
-45.0,-38.0,-3.0,-34.0,-18.0,-7.0,-42.0,-56.0,-310.0,-88.0,0.0
-36.0,-28.0,0.0,-34.0,-10.0,7.0,-18.0,-50.0,-210.0,-53.0,0.0
-28.0,-5.0,-8.0,-41.0,-12.0,13.0,15.0,-38.0,-142.0,-28.0,0.0
-23.0,3.0,-12.0,-36.0,-12.0,13.0,31.0,-22.0,-82.0,-2.0,0.0
-29.0,-3.0,-14.0,-21.0,-9.0,13.0,30.0,0.0,-44.0,-1.0,0.0
-12.0,2.0,-4.0,3.0,-9.0,11.0,41.0,35.0,5.0,28.0,0.0
9.0,23.0,8.0,24.0,1.0,17.0,35.0,50.0,63.0,71.0,0.0
29.0,33.0,32.0,29.0,15.0,21.0,25.0,66.0,114.0,101.0,0.0
56.0,49.0,41.0,30.0,22.0,26.0,7.0,71.0,133.0,134.0,0.0
64.0,54.0,30.0,46.0,24.0,33.0,7.0,46.0,102.0,127.0,0.0
47.0,36.0,18.0,45.0,29.0,19.0,0.0,27.0,50.0,81.0,0.0
7.0,13.0,-7.0,34.0,22.0,19.0,0.0,10.0,-29.0,24.0,0.0
-18.0,0.0,-16.0,30.0,4.0,22.0,-2.0,-19.0,-124.0,-37.0,0.0
-21.0,2.0,-13.0,25.0,-9.0,18.0,-8.0,-21.0,-124.0,-29.0,0.0
-6.0,15.0,-9.0,31.0,-5.0,21.0,-14.0,-14.0,-73.0,-12.0,0.0
18.0,25.0,17.0,41.0,-9.0,22.0,-20.0,-19.0,-50.0,-6.0,0.0
37.0,31.0,21.0,31.0,-13.0,18.0,-4.0,-13.0,-41.0,-1.0,0.0
36.0,27.0,10.0,15.0,-17.0,10.0,8.0,-9.0,-8.0,5.0,0.0
15.0,18.0,-7.0,9.0,-23.0,7.0,20.0,-8.0,5.0,-16.0,0.0
-6.0,7.0,-25.0,-3.0,-17.0,6.0,36.0,-11.0,-16.0,-35.0,0.0
-34.0,-8.0,-38.0,-15.0,-29.0,1.0,38.0,-29.0,-38.0,-48.0,0.0
-26.0,-2.0,-41.0,-12.0,-43.0,-9.0,22.0,-45.0,-36.0,-36.0,0.0
6.0,14.0,-41.0,-16.0,-38.0,-4.0,15.0,-40.0,-19.0,0.0,0.0
7.0,10.0,-36.0,-24.0,-23.0,-6.0,-2.0,-46.0,-36.0,-1.0,0.0
-8.0,-6.0,-20.0,-10.0,-11.0,-4.0,1.0,-34.0,-34.0,4.0,0.0
0.0,-6.0,-18.0,0.0,-6.0,-1.0,0.0,-1.0,23.0,45.0,0.0
10.0,-1.0,-10.0,14.0,0.0,-4.0,-9.0,5.0,43.0,53.0,0.0
12.0,2.0,0.0,16.0,7.0,2.0,0.0,-2.0,26.0,26.0,0.0
-1.0,11.0,12.0,10.0,11.0,18.0,-6.0,-1.0,8.0,16.0,0.0
-1.0,7.0,15.0,7.0,6.0,16.0,-10.0,5.0,0.0,23.0,0.0
12.0,-7.0,8.0,-3.0,10.0,7.0,-2.0,13.0,11.0,47.0,0.0
9.0,-12.0,5.0,-1.0,10.0,2.0,-6.0,26.0,19.0,52.0,0.0
5.0,-6.0,3.0,-8.0,6.0,11.0,0.0,38.0,21.0,32.0,0.0
5.0,-11.0,-9.0,-33.0,0.0,5.0,7.0,32.0,22.0,16.0,0.0
9.0,-12.0,-20.0,-36.0,-4.0,-1.0,15.0,32.0,48.0,23.0,0.0
22.0,-1.0,-16.0,-32.0,-10.0,-2.0,14.0,41.0,97.0,62.0,0.0
12.0,-21.0,-6.0,-45.0,-20.0,-1.0,27.0,46.0,125.0,69.0,0.0
0.0,-30.0,-17.0,-56.0,-20.0,0.0,47.0,51.0,107.0,61.0,0.0
19.0,-25.0,3.0,-47.0,-25.0,5.0,35.0,44.0,67.0,70.0,0.0
10.0,-30.0,0.0,-32.0,-18.0,3.0,31.0,28.0,35.0,64.0,0.0
-9.0,-30.0,-2.0,-29.0,-17.0,-3.0,40.0,17.0,17.0,36.0,0.0
14.0,-16.0,13.0,-16.0,-10.0,-2.0,30.0,7.0,6.0,29.0,0.0
34.0,4.0,14.0,-4.0,8.0,7.0,4.0,-1.0,-4.0,22.0,0.0
34.0,20.0,28.0,14.0,17.0,10.0,-11.0,-1.0,12.0,25.0,0.0
24.0,28.0,45.0,31.0,19.0,9.0,-17.0,7.0,52.0,30.0,0.0
34.0,26.0,53.0,30.0,32.0,11.0,-24.0,21.0,46.0,29.0,0.0
27.0,19.0,38.0,26.0,33.0,9.0,-26.0,28.0,-8.0,-6.0,0.0
-10.0,9.0,13.0,11.0,18.0,0.0,-12.0,46.0,-41.0,-46.0,0.0
-22.0,-9.0,0.0,-2.0,10.0,-5.0,-1.0,61.0,-56.0,-45.0,0.0
-16.0,-8.0,-11.0,0.0,14.0,-3.0,0.0,28.0,-51.0,-3.0,0.0
-27.0,-3.0,-16.0,-2.0,18.0,-13.0,-9.0,-36.0,-91.0,7.0,0.0
-31.0,-14.0,-17.0,-17.0,2.0,-25.0,-21.0,-71.0,-130.0,-18.0,0.0
-40.0,-27.0,-23.0,-35.0,-5.0,-16.0,-12.0,-34.0,-12.0,-26.0,0.0
-53.0,-35.0,-20.0,-36.0,-5.0,-1.0,5.0,-22.0,40.0,-44.0,0.0
-55.0,-33.0,-7.0,-17.0,7.0,2.0,9.0,-59.0,-52.0,-70.0,0.0
-46.0,-32.0,1.0,-1.0,17.0,0.0,0.0,-98.0,-174.0,-65.0,0.0
-31.0,-27.0,2.0,8.0,19.0,2.0,-3.0,-71.0,-155.0,-34.0,0.0
-16.0,-20.0,-10.0,8.0,17.0,6.0,1.0,-41.0,-100.0,-7.0,0.0
-6.0,-21.0,-9.0,8.0,18.0,11.0,-5.0,-19.0,-50.0,-1.0,0.0
3.0,-21.0,-10.0,5.0,17.0,14.0,-6.0,-1.0,1.0,5.0,0.0
3.0,-19.0,-13.0,7.0,18.0,7.0,-6.0,24.0,50.0,0.0,0.0
0.0,-13.0,-10.0,0.0,26.0,4.0,-13.0,46.0,70.0,3.0,0.0
0.0,-5.0,0.0,-1.0,33.0,-1.0,-22.0,64.0,35.0,0.0,0.0
-5.0,-11.0,4.0,-2.0,30.0,-1.0,-26.0,70.0,33.0,-2.0,0.0
-10.0,-29.0,-6.0,-7.0,9.0,-5.0,-13.0,64.0,53.0,7.0,0.0
-9.0,-24.0,-10.0,-1.0,3.0,-13.0,0.0,50.0,94.0,18.0,0.0
-18.0,-14.0,-15.0,8.0,-4.0,-14.0,-6.0,39.0,148.0,7.0,0.0
-27.0,-28.0,-17.0,4.0,-6.0,-14.0,-10.0,-2.0,127.0,-8.0,0.0
-27.0,-38.0,-21.0,-11.0,-18.0,-18.0,-12.0,-59.0,-17.0,-21.0,0.0
-20.0,-44.0,-30.0,-20.0,-32.0,-24.0,-13.0,-76.0,-94.0,-12.0,0.0
-32.0,-42.0,-28.0,-15.0,-34.0,-31.0,1.0,-48.0,-55.0,9.0,0.0
-31.0,-26.0,-23.0,-19.0,-31.0,-27.0,7.0,-16.0,-17.0,12.0,0.0
-26.0,-11.0,-8.0,-30.0,-28.0,-24.0,7.0,2.0,-1.0,14.0,0.0
-14.0,21.0,-4.0,-26.0,-26.0,-17.0,2.0,12.0,17.0,22.0,0.0
-5.0,54.0,-3.0,-21.0,-29.0,-8.0,-4.0,30.0,49.0,39.0,0.0
0.0,65.0,10.0,2.0,-19.0,8.0,-4.0,36.0,62.0,62.0,0.0
13.0,37.0,23.0,24.0,-10.0,21.0,-1.0,30.0,66.0,75.0,0.0
33.0,15.0,18.0,30.0,-2.0,14.0,-5.0,0.0,50.0,73.0,0.0
49.0,25.0,14.0,22.0,-4.0,2.0,-14.0,-19.0,39.0,63.0,0.0
67.0,36.0,19.0,13.0,-1.0,0.0,-23.0,-16.0,58.0,69.0,0.0
63.0,21.0,17.0,22.0,3.0,0.0,-37.0,-28.0,36.0,67.0,0.0
57.0,25.0,9.0,36.0,9.0,-4.0,-39.0,-66.0,-65.0,23.0,0.0
30.0,26.0,9.0,42.0,8.0,-15.0,-43.0,-76.0,-173.0,-51.0,0.0
1.0,8.0,-12.0,19.0,-7.0,-20.0,-27.0,-42.0,-167.0,-51.0,0.0
-3.0,2.0,-37.0,1.0,-19.0,-33.0,-31.0,-10.0,-60.0,-9.0,0.0
10.0,0.0,-45.0,-9.0,-26.0,-29.0,-25.0,1.0,3.0,30.0,0.0
-3.0,-8.0,-51.0,-28.0,-33.0,-17.0,32.0,35.0,7.0,58.0,0.0
-13.0,-12.0,-49.0,-40.0,-31.0,-14.0,107.0,50.0,16.0,72.0,0.0
1.0,4.0,-32.0,-32.0,-21.0,2.0,107.0,42.0,90.0,94.0,0.0
36.0,10.0,-22.0,-19.0,-5.0,19.0,58.0,26.0,195.0,94.0,0.0
42.0,27.0,-9.0,9.0,17.0,25.0,32.0,-17.0,254.0,63.0,0.0
30.0,34.0,18.0,21.0,22.0,32.0,14.0,-47.0,266.0,12.0,0.0
11.0,31.0,19.0,13.0,12.0,26.0,-3.0,-48.0,152.0,-55.0,0.0
14.0,-5.0,1.0,-41.0,0.0,2.0,-36.0,20.0,-77.0,-40.0,0.0
24.0,-4.0,-12.0,-42.0,-10.0,-11.0,-25.0,24.0,-40.0,-40.0,0.0
12.0,-3.0,-23.0,-43.0,-24.0,-19.0,-26.0,8.0,-35.0,-47.0,0.0
5.0,-11.0,-29.0,-52.0,-25.0,-17.0,-20.0,-18.0,-46.0,-29.0,0.0
1.0,-31.0,-41.0,-51.0,-18.0,-12.0,-15.0,-16.0,-65.0,21.0,0.0
0.0,-36.0,-52.0,-51.0,-21.0,-16.0,-1.0,-7.0,-53.0,55.0,0.0
7.0,-31.0,-49.0,-25.0,-23.0,-21.0,13.0,0.0,-29.0,38.0,0.0
1.0,-35.0,-38.0,-16.0,-25.0,-15.0,16.0,2.0,-27.0,9.0,0.0
-6.0,-21.0,-18.0,-14.0,-9.0,-24.0,7.0,-7.0,-53.0,-8.0,0.0
-5.0,-12.0,-14.0,-23.0,-1.0,-14.0,-9.0,-3.0,-61.0,-22.0,0.0
-13.0,-15.0,-9.0,-20.0,3.0,-10.0,-13.0,7.0,-50.0,-30.0,0.0
0.0,-8.0,15.0,-8.0,19.0,0.0,-24.0,7.0,-43.0,-18.0,0.0
17.0,4.0,22.0,-12.0,31.0,6.0,-25.0,13.0,-42.0,0.0,0.0
17.0,9.0,18.0,-3.0,29.0,8.0,-24.0,11.0,-48.0,7.0,0.0
16.0,10.0,15.0,10.0,28.0,9.0,-26.0,15.0,-47.0,7.0,0.0
27.0,0.0,24.0,4.0,17.0,5.0,-30.0,22.0,-59.0,7.0,0.0
34.0,6.0,40.0,4.0,11.0,1.0,-21.0,18.0,-76.0,-10.0,0.0
42.0,19.0,31.0,-5.0,0.0,6.0,-11.0,9.0,-78.0,-19.0,0.0
47.0,19.0,10.0,-6.0,1.0,7.0,-10.0,12.0,-42.0,-17.0,0.0
51.0,6.0,3.0,-10.0,0.0,-13.0,-25.0,21.0,0.0,-21.0,0.0
36.0,-1.0,0.0,-10.0,-7.0,-16.0,-5.0,23.0,5.0,-24.0,0.0
22.0,-8.0,-4.0,-25.0,-9.0,-11.0,10.0,45.0,55.0,-23.0,0.0
3.0,-9.0,-19.0,-25.0,-21.0,-16.0,11.0,64.0,121.0,-20.0,0.0
7.0,-13.0,-20.0,-8.0,-26.0,-24.0,2.0,60.0,134.0,-18.0,0.0
26.0,-7.0,-26.0,7.0,-15.0,-10.0,-5.0,45.0,114.0,12.0,0.0
39.0,-3.0,-38.0,11.0,-3.0,4.0,7.0,49.0,72.0,15.0,0.0
24.0,-17.0,-40.0,25.0,0.0,12.0,16.0,53.0,42.0,-1.0,0.0
32.0,-14.0,-19.0,42.0,0.0,16.0,19.0,66.0,52.0,12.0,0.0
44.0,-2.0,-8.0,52.0,0.0,24.0,16.0,88.0,58.0,27.0,0.0
32.0,1.0,1.0,38.0,2.0,20.0,13.0,65.0,33.0,17.0,0.0
30.0,1.0,9.0,34.0,16.0,10.0,8.0,29.0,49.0,0.0,0.0
37.0,8.0,25.0,39.0,26.0,11.0,-15.0,-28.0,-14.0,2.0,0.0
32.0,7.0,25.0,36.0,13.0,8.0,-45.0,-60.0,-134.0,0.0,0.0
18.0,-4.0,20.0,37.0,3.0,2.0,-39.0,-51.0,-108.0,-4.0,0.0
2.0,1.0,21.0,34.0,-1.0,8.0,-35.0,-50.0,-66.0,-21.0,0.0
-5.0,3.0,16.0,23.0,-6.0,0.0,-39.0,-76.0,-105.0,-33.0,0.0
-13.0,-6.0,6.0,11.0,-22.0,-3.0,-38.0,-91.0,-88.0,-43.0,0.0
-23.0,-14.0,-18.0,8.0,-33.0,-2.0,-22.0,-49.0,1.0,-44.0,0.0
-14.0,-9.0,-31.0,-5.0,-26.0,-3.0,0.0,-23.0,0.0,-48.0,0.0
-9.0,-16.0,-30.0,-16.0,-25.0,-3.0,18.0,-6.0,-15.0,-42.0,0.0
-17.0,-21.0,-24.0,-17.0,-20.0,-9.0,33.0,4.0,-2.0,-36.0,0.0
-23.0,-26.0,-33.0,-8.0,-13.0,-12.0,30.0,0.0,29.0,-43.0,0.0
-15.0,-19.0,-20.0,0.0,-9.0,-9.0,28.0,5.0,100.0,-8.0,0.0
1.0,-18.0,-8.0,-4.0,0.0,-19.0,17.0,-8.0,126.0,22.0,0.0
4.0,-10.0,3.0,-11.0,2.0,-19.0,-8.0,-49.0,-3.0,10.0,0.0
-2.0,7.0,16.0,1.0,9.0,1.0,-8.0,-55.0,-88.0,3.0,0.0
1.0,16.0,14.0,8.0,19.0,2.0,-14.0,-33.0,-48.0,6.0,0.0
8.0,6.0,12.0,11.0,25.0,-3.0,-11.0,-12.0,-26.0,15.0,0.0
14.0,12.0,6.0,18.0,20.0,3.0,-18.0,11.0,-21.0,32.0,0.0
13.0,9.0,11.0,19.0,10.0,-8.0,-12.0,13.0,0.0,33.0,0.0
6.0,3.0,0.0,15.0,0.0,-10.0,-4.0,17.0,2.0,8.0,0.0
-2.0,0.0,-13.0,9.0,-4.0,0.0,10.0,19.0,7.0,-5.0,0.0
2.0,-2.0,-19.0,-12.0,8.0,11.0,15.0,26.0,18.0,-7.0,0.0
0.0,-1.0,-19.0,-33.0,10.0,-1.0,27.0,28.0,21.0,-8.0,0.0
-2.0,4.0,-15.0,-25.0,0.0,-17.0,29.0,28.0,7.0,-25.0,0.0
-16.0,-1.0,-28.0,-15.0,-4.0,-14.0,28.0,19.0,-17.0,-38.0,0.0
-7.0,-3.0,-22.0,-13.0,-8.0,-18.0,20.0,8.0,-18.0,-12.0,0.0
7.0,-8.0,-13.0,-11.0,-7.0,-25.0,11.0,8.0,-5.0,3.0,0.0
5.0,0.0,6.0,0.0,-1.0,-19.0,6.0,5.0,-8.0,2.0,0.0
4.0,14.0,28.0,-5.0,6.0,-11.0,-1.0,-5.0,-20.0,-1.0,0.0
-6.0,35.0,28.0,0.0,13.0,5.0,-10.0,-1.0,-25.0,1.0,0.0
2.0,40.0,11.0,5.0,12.0,10.0,-16.0,10.0,-18.0,9.0,0.0
18.0,30.0,11.0,25.0,9.0,9.0,-22.0,10.0,-12.0,15.0,0.0
25.0,23.0,16.0,33.0,17.0,5.0,-28.0,14.0,-15.0,21.0,0.0
15.0,33.0,27.0,26.0,25.0,0.0,-26.0,21.0,-5.0,28.0,0.0
10.0,33.0,24.0,28.0,27.0,-3.0,-27.0,27.0,9.0,31.0,0.0
13.0,21.0,15.0,21.0,26.0,-6.0,-27.0,28.0,19.0,38.0,0.0
7.0,7.0,5.0,12.0,23.0,-10.0,-21.0,45.0,22.0,49.0,0.0
11.0,-3.0,8.0,6.0,0.0,-8.0,-9.0,59.0,22.0,58.0,0.0
6.0,-11.0,0.0,0.0,-13.0,6.0,6.0,51.0,46.0,50.0,0.0
0.0,-21.0,-3.0,-6.0,-10.0,15.0,8.0,55.0,109.0,55.0,0.0
-2.0,-31.0,-8.0,-8.0,-5.0,8.0,17.0,44.0,140.0,46.0,0.0
-23.0,-38.0,-29.0,-24.0,-7.0,-3.0,17.0,30.0,120.0,11.0,0.0
-40.0,-44.0,-32.0,-36.0,-8.0,-13.0,0.0,-5.0,40.0,-18.0,0.0
-47.0,-40.0,-33.0,-38.0,-7.0,-18.0,-18.0,-54.0,-102.0,-55.0,0.0
-50.0,-7.0,-27.0,-42.0,-3.0,-12.0,-35.0,-75.0,-183.0,-60.0,0.0
-29.0,31.0,-17.0,-31.0,17.0,-10.0,-22.0,-60.0,-157.0,-34.0,0.0
-2.0,59.0,-5.0,-11.0,29.0,0.0,-14.0,-42.0,-97.0,-7.0,0.0
12.0,43.0,-4.0,-7.0,34.0,8.0,-23.0,-27.0,-46.0,5.0,0.0
-9.0,9.0,-6.0,-14.0,16.0,10.0,-28.0,-18.0,4.0,6.0,0.0
-22.0,3.0,2.0,-10.0,12.0,0.0,-42.0,-21.0,11.0,-12.0,0.0
-16.0,13.0,22.0,-3.0,28.0,3.0,-63.0,-34.0,-22.0,-9.0,0.0
8.0,12.0,21.0,-2.0,31.0,5.0,-49.0,-15.0,-20.0,1.0,0.0
7.0,10.0,29.0,-15.0,14.0,3.0,-39.0,0.0,-20.0,3.0,0.0
-5.0,-3.0,20.0,-22.0,4.0,-8.0,-21.0,-3.0,-27.0,2.0,0.0
-6.0,-5.0,16.0,-16.0,0.0,-9.0,-4.0,-2.0,-24.0,13.0,0.0
-6.0,-10.0,13.0,-5.0,-15.0,-11.0,10.0,6.0,-5.0,20.0,0.0
-9.0,-13.0,1.0,15.0,-30.0,-19.0,8.0,9.0,11.0,23.0,0.0
-4.0,-13.0,8.0,16.0,-30.0,-16.0,19.0,0.0,22.0,12.0,0.0
-18.0,-15.0,4.0,18.0,-22.0,-9.0,22.0,-20.0,19.0,1.0,0.0
-19.0,-7.0,9.0,22.0,-18.0,-7.0,17.0,-41.0,19.0,-2.0,0.0
-14.0,-5.0,9.0,23.0,-14.0,1.0,23.0,-48.0,35.0,4.0,0.0
-21.0,-12.0,-8.0,10.0,-18.0,-3.0,19.0,-40.0,72.0,9.0,0.0
-14.0,-10.0,-20.0,8.0,-5.0,-10.0,-4.0,-40.0,97.0,23.0,0.0
9.0,10.0,-14.0,23.0,7.0,-7.0,-4.0,-43.0,88.0,36.0,0.0
31.0,27.0,-7.0,40.0,11.0,1.0,-3.0,-27.0,9.0,40.0,0.0
32.0,29.0,0.0,51.0,18.0,9.0,-2.0,-18.0,-82.0,4.0,0.0
24.0,18.0,-7.0,57.0,24.0,4.0,-22.0,-14.0,-177.0,-26.0,0.0
37.0,18.0,-6.0,50.0,35.0,1.0,-25.0,-12.0,-141.0,1.0,0.0
52.0,13.0,0.0,37.0,37.0,-1.0,-21.0,-7.0,-51.0,30.0,0.0
45.0,4.0,-7.0,28.0,21.0,-16.0,-17.0,24.0,0.0,43.0,0.0
29.0,-1.0,-12.0,26.0,9.0,-29.0,-16.0,42.0,-2.0,35.0,0.0
11.0,-14.0,-14.0,21.0,13.0,-31.0,-20.0,33.0,-24.0,15.0,0.0
-11.0,-47.0,-28.0,-4.0,6.0,-10.0,41.0,59.0,45.0,5.0,0.0
-32.0,-49.0,-34.0,-31.0,-7.0,-7.0,104.0,74.0,122.0,-21.0,0.0
-41.0,-29.0,-33.0,-38.0,-1.0,-5.0,73.0,50.0,145.0,-42.0,0.0
-48.0,-31.0,-31.0,-16.0,6.0,-5.0,34.0,6.0,85.0,-47.0,0.0
-45.0,-31.0,-30.0,-9.0,6.0,-6.0,23.0,-56.0,-60.0,-39.0,0.0
-29.0,-31.0,-43.0,2.0,-3.0,-6.0,28.0,-55.0,-92.0,-22.0,0.0
-13.0,-25.0,-27.0,2.0,2.0,0.0,24.0,-19.0,-40.0,-18.0,0.0
4.0,-29.0,3.0,-4.0,16.0,1.0,6.0,-10.0,-28.0,-19.0,0.0
18.0,-19.0,10.0,-8.0,29.0,3.0,-5.0,-20.0,-23.0,-13.0,0.0
22.0,-7.0,2.0,-16.0,24.0,0.0,-7.0,6.0,2.0,0.0,0.0
38.0,9.0,12.0,-17.0,22.0,-1.0,-3.0,22.0,7.0,23.0,0.0
59.0,29.0,24.0,4.0,34.0,11.0,-2.0,48.0,-27.0,48.0,0.0
66.0,25.0,31.0,9.0,33.0,19.0,2.0,88.0,-62.0,71.0,0.0
70.0,7.0,25.0,-7.0,34.0,12.0,18.0,99.0,-37.0,93.0,0.0
70.0,5.0,20.0,-4.0,21.0,8.0,25.0,95.0,57.0,99.0,0.0
66.0,19.0,23.0,-6.0,23.0,3.0,19.0,65.0,168.0,91.0,0.0
65.0,23.0,17.0,-13.0,22.0,7.0,13.0,9.0,279.0,74.0,0.0
52.0,15.0,13.0,-23.0,6.0,-8.0,0.0,-39.0,306.0,51.0,0.0
12.0,-16.0,-8.0,-37.0,-19.0,-29.0,-11.0,-85.0,157.0,-20.0,0.0
-25.0,-43.0,-36.0,-49.0,-43.0,-35.0,-6.0,-102.0,-124.0,-115.0,0.0
-32.0,-46.0,-57.0,-57.0,-51.0,-27.0,8.0,-54.0,-222.0,-112.0,0.0
5.0,-16.0,-32.0,-50.0,-46.0,-11.0,15.0,-16.0,-83.0,-41.0,0.0
47.0,15.0,-13.0,-27.0,-39.0,0.0,20.0,7.0,26.0,17.0,0.0
64.0,13.0,-22.0,-18.0,-29.0,0.0,15.0,29.0,94.0,42.0,0.0
54.0,-1.0,-18.0,-14.0,-21.0,-7.0,8.0,49.0,131.0,45.0,0.0
28.0,-1.0,2.0,-2.0,-6.0,6.0,-8.0,37.0,66.0,16.0,0.0
1.0,10.0,12.0,14.0,16.0,13.0,-32.0,-40.0,-90.0,-22.0,0.0
-2.0,22.0,28.0,27.0,28.0,14.0,-64.0,-94.0,-183.0,-35.0,0.0
-12.0,24.0,30.0,35.0,30.0,16.0,-53.0,-65.0,-146.0,-27.0,0.0
-12.0,30.0,19.0,29.0,25.0,6.0,-41.0,-46.0,-125.0,2.0,0.0
6.0,31.0,14.0,14.0,20.0,-8.0,-42.0,-38.0,-74.0,36.0,0.0
7.0,23.0,-1.0,11.0,-3.0,-14.0,-27.0,-4.0,12.0,24.0,0.0
-9.0,20.0,3.0,8.0,-8.0,-14.0,-3.0,2.0,37.0,-5.0,0.0
-28.0,2.0,10.0,28.0,4.0,-14.0,16.0,-30.0,-63.0,-52.0,0.0
-32.0,-2.0,-1.0,32.0,6.0,-15.0,25.0,-50.0,-121.0,-95.0,0.0
-13.0,4.0,-4.0,33.0,1.0,-7.0,28.0,-64.0,-125.0,-91.0,0.0
-5.0,-4.0,-2.0,16.0,-13.0,-8.0,32.0,-60.0,-105.0,-64.0,0.0
3.0,-14.0,-4.0,8.0,-15.0,-2.0,41.0,-55.0,-53.0,-36.0,0.0
4.0,-19.0,-3.0,6.0,-12.0,14.0,42.0,-25.0,2.0,-8.0,0.0
10.0,-14.0,-3.0,10.0,-6.0,7.0,25.0,-3.0,14.0,6.0,0.0
9.0,-15.0,0.0,15.0,-7.0,6.0,21.0,15.0,8.0,13.0,0.0
16.0,-13.0,9.0,17.0,2.0,4.0,17.0,14.0,11.0,13.0,0.0
20.0,-8.0,29.0,19.0,3.0,7.0,8.0,22.0,22.0,18.0,0.0
10.0,-13.0,22.0,18.0,1.0,14.0,-7.0,22.0,31.0,20.0,0.0
2.0,-6.0,5.0,15.0,7.0,6.0,-15.0,21.0,36.0,30.0,0.0
1.0,-3.0,13.0,14.0,10.0,13.0,-16.0,18.0,29.0,21.0,0.0
-4.0,-7.0,22.0,15.0,14.0,13.0,-5.0,37.0,34.0,16.0,0.0
-10.0,-11.0,21.0,4.0,10.0,15.0,6.0,56.0,60.0,14.0,0.0
-25.0,-11.0,6.0,-21.0,1.0,19.0,6.0,64.0,74.0,21.0,0.0
-20.0,-14.0,-11.0,-34.0,-1.0,19.0,7.0,64.0,91.0,24.0,0.0
-19.0,-18.0,-8.0,-39.0,-8.0,12.0,13.0,48.0,90.0,19.0,0.0
-16.0,-9.0,11.0,-44.0,-13.0,7.0,34.0,40.0,51.0,36.0,0.0
-10.0,1.0,23.0,-40.0,-9.0,-2.0,36.0,23.0,-22.0,55.0,0.0
-1.0,0.0,16.0,-38.0,-13.0,-15.0,39.0,0.0,-83.0,65.0,0.0
15.0,-2.0,5.0,-26.0,-16.0,-10.0,42.0,9.0,-76.0,80.0,0.0
35.0,3.0,-1.0,-13.0,-12.0,-7.0,40.0,36.0,20.0,103.0,0.0
38.0,-1.0,-13.0,2.0,-6.0,-2.0,33.0,42.0,137.0,137.0,0.0
31.0,5.0,11.0,38.0,15.0,0.0,10.0,0.0,155.0,123.0,0.0
5.0,0.0,27.0,48.0,9.0,-7.0,-22.0,-43.0,5.0,38.0,0.0
-7.0,-11.0,25.0,45.0,1.0,-19.0,-23.0,-44.0,-109.0,-20.0,0.0
-11.0,-14.0,36.0,50.0,10.0,-21.0,-22.0,-16.0,-58.0,-44.0,0.0
-19.0,-32.0,25.0,38.0,23.0,-15.0,-27.0,14.0,20.0,-46.0,0.0
-16.0,-37.0,31.0,30.0,24.0,-13.0,-30.0,15.0,26.0,-38.0,0.0
-19.0,-49.0,10.0,22.0,15.0,-9.0,-22.0,13.0,-3.0,-37.0,0.0
-7.0,-52.0,-12.0,11.0,1.0,-11.0,-23.0,-2.0,-10.0,-16.0,0.0
-5.0,-42.0,-29.0,8.0,-9.0,-1.0,-22.0,-21.0,-27.0,2.0,0.0
-1.0,-25.0,-25.0,-3.0,-17.0,-2.0,-29.0,-45.0,-64.0,-2.0,0.0
-17.0,-3.0,-13.0,-18.0,-22.0,-8.0,-31.0,-55.0,-85.0,-26.0,0.0
-2.0,21.0,0.0,-32.0,-22.0,6.0,-11.0,-38.0,-69.0,-42.0,0.0
10.0,-3.0,-8.0,-41.0,-25.0,9.0,2.0,-21.0,-51.0,-33.0,0.0
1.0,-36.0,-22.0,-49.0,-24.0,6.0,26.0,-16.0,-27.0,-30.0,0.0
-2.0,-16.0,-12.0,-39.0,-21.0,-7.0,32.0,-17.0,-14.0,-26.0,0.0
1.0,-11.0,-4.0,-34.0,-19.0,-8.0,22.0,-17.0,-16.0,-27.0,0.0
10.0,-22.0,-5.0,-20.0,-11.0,-11.0,12.0,-7.0,-6.0,-14.0,0.0
12.0,-21.0,5.0,16.0,-2.0,-12.0,1.0,-6.0,-4.0,-6.0,0.0
12.0,-4.0,13.0,29.0,2.0,-7.0,-3.0,-9.0,-6.0,0.0,0.0
19.0,5.0,15.0,29.0,5.0,-6.0,-13.0,1.0,-6.0,8.0,0.0
22.0,6.0,10.0,26.0,2.0,0.0,-13.0,10.0,-11.0,10.0,0.0
30.0,7.0,14.0,33.0,4.0,2.0,-15.0,21.0,-10.0,14.0,0.0
30.0,6.0,8.0,33.0,12.0,11.0,-13.0,10.0,-6.0,17.0,0.0
21.0,-3.0,1.0,18.0,15.0,11.0,-7.0,1.0,0.0,7.0,0.0
18.0,-3.0,-10.0,5.0,-2.0,8.0,-5.0,12.0,7.0,5.0,0.0
24.0,0.0,-17.0,0.0,-10.0,8.0,-12.0,12.0,6.0,12.0,0.0
10.0,-14.0,-23.0,1.0,-3.0,-4.0,6.0,-1.0,1.0,5.0,0.0
-4.0,-23.0,-17.0,-5.0,9.0,-14.0,21.0,-2.0,11.0,8.0,0.0
0.0,-16.0,-24.0,-7.0,13.0,-13.0,21.0,-4.0,0.0,17.0,0.0
15.0,-12.0,-28.0,-2.0,4.0,-8.0,24.0,-18.0,-22.0,2.0,0.0
13.0,-8.0,-34.0,-14.0,-2.0,-2.0,23.0,-22.0,-17.0,1.0,0.0
21.0,-16.0,-40.0,-16.0,-3.0,0.0,21.0,-19.0,-6.0,13.0,0.0
29.0,-3.0,-29.0,-9.0,1.0,-3.0,23.0,-1.0,13.0,50.0,0.0
43.0,9.0,-24.0,-3.0,0.0,-2.0,25.0,35.0,5.0,115.0,0.0
59.0,13.0,-24.0,2.0,9.0,5.0,42.0,115.0,31.0,154.0,0.0
76.0,18.0,-7.0,1.0,9.0,22.0,48.0,195.0,146.0,179.0,0.0
90.0,36.0,-11.0,-1.0,10.0,24.0,52.0,243.0,299.0,204.0,0.0
128.0,62.0,8.0,2.0,11.0,23.0,41.0,244.0,401.0,219.0,0.0
145.0,95.0,28.0,6.0,33.0,32.0,25.0,197.0,413.0,167.0,0.0
125.0,108.0,27.0,25.0,43.0,36.0,18.0,130.0,465.0,90.0,0.0
67.0,82.0,15.0,14.0,14.0,0.0,-28.0,-4.0,321.0,2.0,0.0
-2.0,5.0,-8.0,-24.0,-31.0,-60.0,-104.0,-142.0,-59.0,-92.0,0.0
-40.0,-24.0,-16.0,-41.0,-46.0,-72.0,-108.0,-154.0,-278.0,-133.0,0.0
-68.0,-49.0,-20.0,-43.0,-42.0,-50.0,-61.0,-108.0,-305.0,-135.0,0.0
-92.0,-78.0,-23.0,-31.0,-21.0,-25.0,-30.0,-112.0,-214.0,-139.0,0.0
-126.0,-82.0,-31.0,-22.0,1.0,-6.0,-23.0,-158.0,-280.0,-201.0,0.0
-133.0,-80.0,-13.0,0.0,14.0,-8.0,-33.0,-174.0,-343.0,-221.0,0.0
-91.0,-53.0,3.0,18.0,17.0,-2.0,-30.0,-144.0,-260.0,-168.0,0.0
-58.0,-19.0,16.0,18.0,22.0,2.0,-46.0,-128.0,-190.0,-117.0,0.0
-41.0,1.0,40.0,9.0,18.0,-4.0,-72.0,-119.0,-162.0,-81.0,0.0
-39.0,0.0,18.0,-8.0,0.0,1.0,-48.0,-86.0,-146.0,-69.0,0.0
-19.0,-11.0,8.0,-39.0,-14.0,20.0,28.0,-52.0,-136.0,-57.0,0.0
-2.0,4.0,28.0,-23.0,-13.0,22.0,44.0,-32.0,-103.0,-32.0,0.0
9.0,20.0,40.0,10.0,0.0,8.0,7.0,-16.0,-77.0,-16.0,0.0
24.0,21.0,31.0,25.0,2.0,6.0,0.0,7.0,-33.0,-19.0,0.0
10.0,23.0,9.0,29.0,0.0,1.0,-15.0,20.0,-25.0,-25.0,0.0
2.0,18.0,-4.0,31.0,4.0,4.0,-13.0,20.0,-24.0,-23.0,0.0
0.0,9.0,-5.0,17.0,-9.0,-5.0,-10.0,16.0,-24.0,-11.0,0.0
-4.0,5.0,8.0,20.0,-6.0,-3.0,-7.0,20.0,-10.0,-3.0,0.0
-11.0,-6.0,-4.0,17.0,1.0,-8.0,9.0,20.0,0.0,-4.0,0.0
-18.0,-13.0,-14.0,-3.0,1.0,-11.0,20.0,9.0,6.0,6.0,0.0
-13.0,-8.0,-8.0,-24.0,0.0,-6.0,16.0,17.0,5.0,7.0,0.0
-9.0,0.0,-6.0,-35.0,-12.0,3.0,20.0,27.0,23.0,7.0,0.0
-19.0,-4.0,-9.0,-33.0,-16.0,7.0,24.0,36.0,30.0,15.0,0.0
-23.0,7.0,-6.0,-37.0,-2.0,-4.0,29.0,26.0,21.0,17.0,0.0
-17.0,11.0,-8.0,-26.0,6.0,-6.0,17.0,34.0,15.0,20.0,0.0
-1.0,3.0,-2.0,-30.0,5.0,-2.0,-1.0,32.0,23.0,31.0,0.0
4.0,6.0,3.0,-17.0,-8.0,-4.0,-3.0,36.0,29.0,37.0,0.0
13.0,13.0,16.0,-3.0,-1.0,7.0,-12.0,32.0,32.0,28.0,0.0
24.0,14.0,20.0,-3.0,0.0,20.0,-20.0,22.0,40.0,19.0,0.0
19.0,23.0,14.0,11.0,15.0,15.0,-13.0,24.0,40.0,24.0,0.0
7.0,27.0,8.0,26.0,20.0,16.0,-16.0,42.0,39.0,20.0,0.0
7.0,24.0,4.0,25.0,9.0,16.0,-6.0,46.0,41.0,15.0,0.0
0.0,7.0,0.0,19.0,0.0,15.0,-1.0,32.0,43.0,5.0,0.0
-12.0,8.0,4.0,7.0,-7.0,25.0,23.0,27.0,47.0,8.0,0.0
-12.0,11.0,9.0,-9.0,-12.0,20.0,24.0,22.0,36.0,9.0,0.0
-6.0,1.0,3.0,-15.0,-23.0,4.0,21.0,23.0,26.0,13.0,0.0
-8.0,-13.0,-3.0,-2.0,-24.0,-4.0,6.0,21.0,11.0,17.0,0.0
-13.0,-16.0,-5.0,4.0,-34.0,5.0,6.0,19.0,-1.0,29.0,0.0
-4.0,-20.0,-9.0,-8.0,-33.0,4.0,15.0,6.0,-2.0,26.0,0.0
-3.0,-22.0,-12.0,-22.0,-27.0,6.0,19.0,5.0,10.0,23.0,0.0
-3.0,-12.0,-14.0,-20.0,-15.0,6.0,13.0,-2.0,53.0,23.0,0.0
5.0,-4.0,3.0,-7.0,-3.0,8.0,9.0,-2.0,96.0,19.0,0.0
8.0,1.0,22.0,0.0,-2.0,-2.0,5.0,-11.0,78.0,8.0,0.0
12.0,8.0,19.0,-9.0,-4.0,-3.0,-1.0,20.0,60.0,-5.0,0.0
1.0,5.0,26.0,-6.0,-13.0,4.0,0.0,51.0,96.0,-31.0,0.0
7.0,8.0,35.0,11.0,-18.0,-6.0,0.0,62.0,122.0,-45.0,0.0
24.0,13.0,24.0,28.0,-13.0,-5.0,-8.0,72.0,169.0,-7.0,0.0
38.0,20.0,19.0,36.0,-5.0,0.0,-8.0,80.0,245.0,67.0,0.0
50.0,29.0,18.0,32.0,1.0,3.0,-20.0,82.0,246.0,135.0,0.0
36.0,24.0,21.0,30.0,4.0,2.0,-17.0,58.0,134.0,111.0,0.0
-8.0,0.0,25.0,17.0,3.0,-4.0,-8.0,15.0,-17.0,10.0,0.0
-27.0,-16.0,32.0,22.0,0.0,1.0,-8.0,-39.0,-139.0,-59.0,0.0
-42.0,-7.0,34.0,24.0,-10.0,4.0,-2.0,-75.0,-138.0,-66.0,0.0
-38.0,-7.0,23.0,34.0,-13.0,10.0,14.0,-71.0,-127.0,-67.0,0.0
-38.0,-7.0,12.0,36.0,-11.0,4.0,25.0,-79.0,-152.0,-78.0,0.0
-48.0,-19.0,1.0,28.0,-9.0,6.0,28.0,-77.0,-147.0,-72.0,0.0
-48.0,-39.0,-6.0,20.0,-13.0,-3.0,40.0,-66.0,-115.0,-75.0,0.0
-39.0,-40.0,-15.0,18.0,-12.0,2.0,42.0,-37.0,-83.0,-65.0,0.0
-34.0,-26.0,-12.0,23.0,-2.0,11.0,35.0,-28.0,-49.0,-61.0,0.0
-22.0,-11.0,9.0,34.0,10.0,5.0,22.0,-30.0,-39.0,-59.0,0.0
-15.0,0.0,22.0,48.0,15.0,6.0,-3.0,-27.0,-24.0,-32.0,0.0
2.0,6.0,14.0,53.0,21.0,5.0,-13.0,-20.0,-2.0,-17.0,0.0
0.0,8.0,4.0,29.0,18.0,4.0,-15.0,-11.0,15.0,-18.0,0.0
6.0,23.0,13.0,18.0,14.0,2.0,-11.0,-3.0,20.0,-7.0,0.0
7.0,29.0,10.0,11.0,18.0,3.0,-11.0,0.0,25.0,0.0,0.0
0.0,28.0,6.0,18.0,0.0,4.0,-9.0,8.0,10.0,23.0,0.0
-7.0,19.0,-4.0,19.0,0.0,-4.0,-5.0,0.0,9.0,25.0,0.0
-5.0,6.0,-7.0,7.0,16.0,-3.0,-2.0,-15.0,5.0,15.0,0.0
-13.0,-5.0,-15.0,1.0,5.0,-3.0,-3.0,-28.0,3.0,7.0,0.0
-28.0,-14.0,-33.0,0.0,-1.0,-1.0,-3.0,-23.0,5.0,-3.0,0.0
-34.0,-6.0,-38.0,1.0,-9.0,2.0,-4.0,-8.0,8.0,8.0,0.0
-42.0,-8.0,-41.0,-17.0,-12.0,0.0,-1.0,-12.0,14.0,17.0,0.0
-44.0,-11.0,-48.0,-32.0,-18.0,3.0,0.0,-1.0,15.0,16.0,0.0
-35.0,-2.0,-39.0,-16.0,-14.0,5.0,7.0,1.0,12.0,10.0,0.0
-34.0,9.0,-24.0,-14.0,-2.0,4.0,0.0,-5.0,7.0,0.0,0.0
-21.0,6.0,-26.0,-11.0,1.0,9.0,-5.0,-12.0,8.0,4.0,0.0
-8.0,7.0,-27.0,-1.0,3.0,8.0,-10.0,-3.0,-1.0,9.0,0.0
14.0,22.0,-14.0,0.0,2.0,12.0,2.0,34.0,-19.0,36.0,0.0
29.0,25.0,7.0,-8.0,1.0,11.0,20.0,57.0,-35.0,52.0,0.0
50.0,29.0,15.0,-15.0,0.0,16.0,23.0,67.0,-56.0,53.0,0.0
62.0,32.0,10.0,-11.0,4.0,20.0,20.0,77.0,-26.0,75.0,0.0
36.0,21.0,-6.0,0.0,9.0,25.0,21.0,86.0,51.0,84.0,0.0
11.0,0.0,-21.0,-1.0,15.0,32.0,31.0,87.0,154.0,90.0,0.0
3.0,-25.0,-33.0,0.0,11.0,18.0,6.0,53.0,173.0,82.0,0.0
-7.0,-40.0,-30.0,1.0,5.0,0.0,-15.0,0.0,165.0,60.0,0.0
-18.0,-33.0,-15.0,3.0,10.0,1.0,-4.0,-32.0,197.0,44.0,0.0
-32.0,-32.0,-6.0,13.0,10.0,6.0,-10.0,-63.0,78.0,4.0,0.0
-50.0,-45.0,-20.0,7.0,0.0,2.0,-14.0,-102.0,-127.0,-46.0,0.0
-61.0,-54.0,-36.0,-5.0,-16.0,0.0,-23.0,-113.0,-198.0,-79.0,0.0
-45.0,-58.0,-42.0,-4.0,-14.0,-2.0,-18.0,-109.0,-154.0,-67.0,0.0
-33.0,-37.0,-48.0,-6.0,-9.0,-6.0,-15.0,-97.0,-110.0,-52.0,0.0
-14.0,-24.0,-36.0,-16.0,-16.0,-9.0,-8.0,-67.0,-83.0,-37.0,0.0
-11.0,-7.0,-16.0,-21.0,-16.0,-9.0,-23.0,-44.0,-57.0,-31.0,0.0
-1.0,23.0,-5.0,-3.0,-9.0,-11.0,-30.0,-32.0,-32.0,-20.0,0.0
4.0,39.0,19.0,16.0,-10.0,-19.0,-36.0,-19.0,-20.0,-9.0,0.0
2.0,67.0,21.0,16.0,-16.0,-19.0,-18.0,-3.0,-15.0,-5.0,0.0
0.0,85.0,17.0,16.0,-13.0,-12.0,-25.0,5.0,-13.0,8.0,0.0
4.0,77.0,24.0,18.0,4.0,4.0,-26.0,8.0,1.0,12.0,0.0
-8.0,37.0,18.0,27.0,11.0,10.0,-6.0,16.0,-8.0,2.0,0.0
-26.0,-5.0,0.0,23.0,14.0,18.0,16.0,25.0,-17.0,-7.0,0.0
-14.0,7.0,-3.0,30.0,11.0,19.0,2.0,10.0,-15.0,-1.0,0.0
-8.0,9.0,0.0,26.0,15.0,19.0,1.0,-3.0,-8.0,7.0,0.0
-13.0,-6.0,-21.0,2.0,3.0,12.0,24.0,-7.0,-7.0,1.0,0.0
-12.0,1.0,-37.0,-7.0,-4.0,-1.0,36.0,7.0,-11.0,0.0,0.0
-3.0,1.0,-26.0,-9.0,-6.0,-9.0,32.0,21.0,-2.0,-1.0,0.0
-10.0,-13.0,-21.0,-16.0,-9.0,1.0,32.0,24.0,12.0,-2.0,0.0
-16.0,-14.0,-30.0,-29.0,-10.0,14.0,37.0,31.0,50.0,9.0,0.0
-6.0,-17.0,-34.0,-26.0,-7.0,15.0,33.0,29.0,105.0,13.0,0.0
1.0,-4.0,-13.0,-16.0,-4.0,16.0,17.0,16.0,148.0,16.0,0.0
19.0,5.0,4.0,-9.0,-7.0,9.0,0.0,-27.0,103.0,11.0,0.0
29.0,16.0,2.0,-6.0,-7.0,-7.0,-22.0,-65.0,-21.0,15.0,0.0
24.0,11.0,-2.0,-15.0,-4.0,-2.0,-17.0,-43.0,-42.0,37.0,0.0
20.0,15.0,0.0,-13.0,4.0,-4.0,-9.0,-14.0,4.0,44.0,0.0
30.0,22.0,6.0,0.0,13.0,-5.0,-8.0,-3.0,52.0,43.0,0.0
37.0,31.0,13.0,1.0,3.0,0.0,-1.0,3.0,77.0,42.0,0.0
43.0,27.0,21.0,-6.0,-8.0,2.0,3.0,-5.0,88.0,42.0,0.0
36.0,15.0,25.0,-15.0,-9.0,0.0,13.0,-5.0,64.0,20.0,0.0
9.0,2.0,22.0,-16.0,-6.0,-7.0,6.0,0.0,17.0,-24.0,0.0
-28.0,-15.0,7.0,-16.0,-1.0,-6.0,15.0,-9.0,-79.0,-60.0,0.0
-50.0,-39.0,-14.0,-27.0,-8.0,-15.0,23.0,-8.0,-148.0,-76.0,0.0
-57.0,-43.0,3.0,-28.0,-21.0,-24.0,18.0,-13.0,-113.0,-61.0,0.0
-47.0,-43.0,0.0,-35.0,-34.0,-23.0,9.0,-7.0,-36.0,-20.0,0.0
-41.0,-42.0,-11.0,-39.0,-34.0,-24.0,33.0,26.0,52.0,26.0,0.0
-30.0,-46.0,0.0,-27.0,-22.0,-20.0,33.0,24.0,51.0,27.0,0.0
-22.0,-38.0,18.0,-8.0,-5.0,-17.0,7.0,12.0,18.0,1.0,0.0
-17.0,-20.0,33.0,3.0,5.0,-18.0,-23.0,-1.0,8.0,1.0,0.0
-25.0,-14.0,33.0,-1.0,1.0,-5.0,-30.0,-9.0,4.0,3.0,0.0
-29.0,-17.0,18.0,0.0,1.0,1.0,-29.0,-6.0,-7.0,-20.0,0.0
-19.0,-7.0,31.0,-4.0,13.0,4.0,-32.0,-11.0,-4.0,-11.0,0.0
-9.0,13.0,51.0,-18.0,25.0,6.0,-31.0,-4.0,22.0,6.0,0.0
-11.0,20.0,47.0,-24.0,44.0,13.0,-41.0,10.0,24.0,1.0,0.0
6.0,18.0,34.0,-12.0,45.0,9.0,-42.0,17.0,17.0,-3.0,0.0
18.0,9.0,26.0,-9.0,26.0,6.0,-52.0,33.0,17.0,10.0,0.0
7.0,-5.0,26.0,-12.0,23.0,12.0,-54.0,50.0,27.0,36.0,0.0
8.0,5.0,35.0,-18.0,18.0,8.0,-50.0,44.0,27.0,41.0,0.0
27.0,20.0,24.0,-19.0,7.0,3.0,-45.0,23.0,63.0,54.0,0.0
37.0,21.0,22.0,-26.0,-6.0,0.0,-38.0,6.0,100.0,65.0,0.0
13.0,3.0,8.0,-29.0,-13.0,17.0,8.0,1.0,65.0,33.0,0.0
-19.0,-11.0,-12.0,-17.0,-11.0,34.0,81.0,-11.0,-23.0,-15.0,0.0
-27.0,-6.0,-19.0,-11.0,-23.0,23.0,72.0,-11.0,-103.0,-55.0,0.0
-24.0,-4.0,-15.0,-11.0,-34.0,0.0,44.0,1.0,-148.0,-76.0,0.0
-14.0,-7.0,-5.0,-12.0,-30.0,-2.0,28.0,-2.0,-111.0,-55.0,0.0
-4.0,4.0,9.0,-7.0,-10.0,5.0,23.0,-4.0,-29.0,-13.0,0.0
4.0,18.0,32.0,19.0,6.0,13.0,17.0,18.0,25.0,29.0,0.0
11.0,21.0,29.0,38.0,8.0,15.0,13.0,56.0,9.0,36.0,0.0
22.0,13.0,16.0,21.0,1.0,17.0,8.0,53.0,-34.0,26.0,0.0
32.0,14.0,26.0,16.0,-1.0,22.0,8.0,45.0,-52.0,30.0,0.0
49.0,24.0,27.0,29.0,9.0,29.0,23.0,57.0,-6.0,48.0,0.0
55.0,8.0,12.0,25.0,10.0,33.0,43.0,63.0,78.0,71.0,0.0
53.0,0.0,17.0,27.0,11.0,29.0,33.0,18.0,27.0,68.0,0.0
42.0,-1.0,1.0,23.0,5.0,9.0,-3.0,-45.0,-167.0,35.0,0.0
31.0,-19.0,1.0,19.0,-4.0,3.0,-19.0,-41.0,-217.0,38.0,0.0
1.0,-39.0,-7.0,2.0,-15.0,-17.0,-9.0,0.0,-80.0,37.0,0.0
-13.0,-45.0,5.0,-4.0,-11.0,-17.0,-13.0,-24.0,-41.0,0.0,0.0
-7.0,-32.0,25.0,6.0,-1.0,-10.0,-17.0,-75.0,-28.0,-53.0,0.0
-15.0,-28.0,10.0,-1.0,-10.0,-17.0,-13.0,-60.0,161.0,-70.0,0.0
-32.0,-30.0,-9.0,-15.0,-24.0,-19.0,-14.0,-9.0,290.0,-94.0,0.0
-42.0,-27.0,-31.0,-31.0,-33.0,-17.0,-13.0,-9.0,124.0,-128.0,0.0
-27.0,-6.0,-16.0,-43.0,-38.0,-18.0,-33.0,-30.0,-113.0,-126.0,0.0
-12.0,23.0,15.0,-37.0,-20.0,-14.0,-49.0,-47.0,-195.0,-93.0,0.0
9.0,43.0,40.0,-17.0,13.0,0.0,-37.0,-37.0,-86.0,-54.0,0.0
9.0,19.0,64.0,10.0,30.0,8.0,-46.0,-66.0,-63.0,-50.0,0.0
5.0,4.0,41.0,23.0,16.0,6.0,-63.0,-78.0,-139.0,-35.0,0.0
15.0,9.0,13.0,18.0,7.0,-6.0,-61.0,-30.0,-73.0,3.0,0.0
21.0,20.0,21.0,18.0,14.0,0.0,-44.0,0.0,-31.0,-4.0,0.0
2.0,27.0,23.0,21.0,16.0,0.0,-32.0,16.0,-11.0,-9.0,0.0
-1.0,8.0,3.0,18.0,11.0,-3.0,-6.0,35.0,7.0,8.0,0.0
-4.0,-4.0,-13.0,10.0,9.0,-4.0,11.0,24.0,25.0,8.0,0.0
-7.0,-18.0,-11.0,5.0,7.0,-2.0,13.0,20.0,23.0,-11.0,0.0
-5.0,-27.0,-6.0,8.0,8.0,-10.0,28.0,23.0,39.0,-9.0,0.0
16.0,-24.0,-7.0,3.0,3.0,-19.0,32.0,31.0,62.0,7.0,0.0
20.0,-19.0,-10.0,-5.0,-10.0,-29.0,43.0,37.0,74.0,32.0,0.0
9.0,-34.0,-28.0,-13.0,-33.0,-34.0,47.0,39.0,71.0,46.0,0.0
2.0,-24.0,-29.0,-11.0,-20.0,-21.0,40.0,23.0,72.0,49.0,0.0
-2.0,-12.0,-18.0,-6.0,-4.0,-11.0,42.0,17.0,75.0,50.0,0.0
-3.0,7.0,-16.0,0.0,9.0,-11.0,38.0,20.0,66.0,28.0,0.0
14.0,17.0,-13.0,11.0,26.0,-14.0,19.0,28.0,47.0,9.0,0.0
23.0,14.0,-24.0,22.0,32.0,-8.0,-6.0,26.0,37.0,6.0,0.0
0.0,-3.0,-24.0,24.0,36.0,0.0,-3.0,39.0,37.0,20.0,0.0
-10.0,-13.0,-12.0,26.0,44.0,27.0,3.0,38.0,39.0,8.0,0.0
-15.0,-16.0,1.0,25.0,47.0,29.0,-1.0,36.0,19.0,-15.0,0.0
-10.0,-5.0,-10.0,15.0,40.0,22.0,-7.0,23.0,0.0,-2.0,0.0
-9.0,4.0,-5.0,-7.0,33.0,14.0,-4.0,5.0,1.0,30.0,0.0
-25.0,-5.0,-5.0,-12.0,32.0,-2.0,-5.0,-16.0,-16.0,3.0,0.0
-50.0,-27.0,-16.0,-23.0,25.0,-9.0,7.0,-19.0,-22.0,-55.0,0.0
-62.0,-24.0,-27.0,-34.0,18.0,-11.0,11.0,-33.0,-14.0,-72.0,0.0
-40.0,-6.0,-17.0,-18.0,15.0,-6.0,21.0,-47.0,-27.0,-46.0,0.0
-10.0,9.0,-19.0,-15.0,0.0,0.0,20.0,-40.0,-42.0,-32.0,0.0
-20.0,2.0,-22.0,-23.0,-8.0,-1.0,25.0,-32.0,-27.0,-25.0,0.0
-34.0,12.0,-18.0,-23.0,-20.0,-5.0,24.0,-26.0,-8.0,-8.0,0.0
-33.0,9.0,-21.0,-12.0,-22.0,-2.0,18.0,-27.0,-23.0,-14.0,0.0
-46.0,5.0,-14.0,-1.0,-8.0,-5.0,16.0,-26.0,-44.0,-33.0,0.0
-49.0,13.0,-4.0,-1.0,0.0,6.0,1.0,-24.0,-25.0,-25.0,0.0
-40.0,23.0,-4.0,7.0,6.0,17.0,-14.0,-24.0,-9.0,-20.0,0.0
-36.0,23.0,9.0,18.0,12.0,10.0,-20.0,-34.0,9.0,-20.0,0.0
-22.0,14.0,11.0,20.0,3.0,0.0,-29.0,-19.0,35.0,-5.0,0.0
-15.0,5.0,14.0,37.0,-13.0,-11.0,-25.0,-8.0,49.0,-2.0,0.0
-10.0,0.0,19.0,31.0,-24.0,-8.0,-45.0,-4.0,49.0,-9.0,0.0
-13.0,5.0,18.0,22.0,-16.0,-10.0,-40.0,-13.0,33.0,-10.0,0.0
-11.0,3.0,4.0,21.0,0.0,-13.0,-20.0,-14.0,16.0,-4.0,0.0
-10.0,3.0,-16.0,14.0,3.0,-22.0,-13.0,-4.0,14.0,5.0,0.0
-15.0,8.0,-17.0,7.0,9.0,-14.0,-7.0,-1.0,15.0,5.0,0.0
-18.0,5.0,-27.0,3.0,1.0,-1.0,14.0,-5.0,17.0,5.0,0.0
-24.0,2.0,-30.0,-2.0,6.0,-1.0,28.0,-15.0,16.0,7.0,0.0
-22.0,-12.0,-29.0,-2.0,2.0,-4.0,36.0,-16.0,24.0,9.0,0.0
-22.0,-13.0,-28.0,-1.0,-8.0,2.0,41.0,-12.0,25.0,7.0,0.0
-13.0,-2.0,-31.0,-3.0,-1.0,6.0,40.0,-9.0,32.0,18.0,0.0
-4.0,0.0,-25.0,-12.0,4.0,-3.0,28.0,4.0,38.0,36.0,0.0
-6.0,4.0,-14.0,-5.0,14.0,-4.0,32.0,10.0,29.0,43.0,0.0
-5.0,10.0,-6.0,-5.0,15.0,4.0,35.0,37.0,12.0,51.0,0.0
0.0,17.0,9.0,-2.0,14.0,-1.0,22.0,57.0,45.0,60.0,0.0
21.0,19.0,28.0,7.0,12.0,-6.0,3.0,60.0,88.0,63.0,0.0
41.0,21.0,27.0,14.0,24.0,-1.0,-15.0,52.0,156.0,71.0,0.0
38.0,20.0,29.0,17.0,24.0,4.0,-26.0,43.0,202.0,71.0,0.0
29.0,4.0,35.0,15.0,23.0,0.0,-33.0,17.0,154.0,37.0,0.0
10.0,-15.0,22.0,7.0,9.0,-16.0,-50.0,-22.0,-29.0,-11.0,0.0
0.0,-17.0,21.0,4.0,10.0,-31.0,-48.0,-55.0,-214.0,-27.0,0.0
5.0,-11.0,15.0,13.0,2.0,-22.0,-21.0,-11.0,-186.0,2.0,0.0
10.0,-27.0,12.0,-4.0,-9.0,-8.0,7.0,31.0,-112.0,13.0,0.0
12.0,-27.0,-2.0,-35.0,-9.0,-6.0,28.0,52.0,-30.0,27.0,0.0
19.0,-22.0,-16.0,-24.0,-5.0,0.0,32.0,72.0,96.0,66.0,0.0
24.0,-25.0,-13.0,-11.0,-6.0,0.0,31.0,59.0,211.0,71.0,0.0
31.0,-18.0,-2.0,-11.0,-1.0,-3.0,27.0,11.0,259.0,49.0,0.0
41.0,2.0,11.0,-7.0,10.0,-1.0,6.0,-14.0,214.0,43.0,0.0
