channel0,channel1,channel2,channel3,channel4,channel5,channel6,channel7,channel8,channel9,true_locs
34.0,391.0,227.0,-24.0,-83.0,-61.0,-59.0,-111.0,-148.0,-129.0,0.0
40.0,569.0,255.0,-2.0,-50.0,-23.0,0.0,-60.0,-85.0,-86.0,0.0
10.0,394.0,173.0,22.0,-28.0,10.0,27.0,-31.0,-84.0,-70.0,0.0
-18.0,257.0,136.0,4.0,-21.0,-3.0,44.0,-34.0,-105.0,-78.0,0.0
-38.0,149.0,85.0,-17.0,-24.0,-7.0,55.0,-28.0,-84.0,-65.0,0.0
-49.0,35.0,30.0,-15.0,-7.0,23.0,57.0,-4.0,-32.0,-31.0,0.0
-60.0,-92.0,-18.0,9.0,15.0,25.0,83.0,16.0,24.0,10.0,0.0
-90.0,-216.0,-67.0,22.0,14.0,30.0,127.0,8.0,28.0,26.0,0.0
-106.0,-292.0,-90.0,15.0,1.0,42.0,158.0,-4.0,9.0,34.0,0.0
-79.0,-306.0,-95.0,15.0,0.0,25.0,169.0,-11.0,54.0,50.0,0.0
-66.0,-340.0,-100.0,26.0,1.0,26.0,169.0,-1.0,97.0,51.0,0.0
-80.0,-440.0,-155.0,2.0,26.0,35.0,153.0,21.0,100.0,58.0,0.0
-64.0,-520.0,-190.0,-53.0,15.0,36.0,110.0,30.0,62.0,59.0,0.0
5.0,-281.0,-31.0,-102.0,-80.0,-40.0,82.0,-52.0,-51.0,8.0,0.0
79.0,311.0,276.0,-101.0,-141.0,-106.0,57.0,-150.0,-156.0,-47.0,0.0
125.0,890.0,469.0,-44.0,-104.0,-89.0,44.0,-138.0,-125.0,-45.0,0.0
86.0,865.0,353.0,-7.0,-51.0,-39.0,24.0,-94.0,-69.0,-18.0,0.0
23.0,404.0,141.0,-23.0,-33.0,1.0,-3.0,-53.0,-50.0,-7.0,0.0
-7.0,115.0,16.0,-37.0,-28.0,14.0,-23.0,-48.0,-22.0,-28.0,0.0
-14.0,29.0,-6.0,-20.0,-16.0,6.0,-24.0,-50.0,4.0,-35.0,0.0
-22.0,-57.0,-34.0,-4.0,-9.0,21.0,-32.0,-38.0,0.0,-26.0,0.0
-28.0,-191.0,-103.0,10.0,0.0,40.0,-60.0,-27.0,0.0,-27.0,0.0
-44.0,-274.0,-137.0,50.0,7.0,46.0,-91.0,-38.0,-9.0,-46.0,0.0
-41.0,-218.0,-102.0,73.0,-9.0,19.0,-118.0,-53.0,-61.0,-65.0,0.0
-23.0,14.0,-69.0,51.0,-18.0,6.0,-127.0,-42.0,-54.0,-59.0,0.0
-6.0,135.0,-63.0,17.0,-24.0,26.0,-120.0,-2.0,-16.0,-18.0,0.0
-8.0,67.0,-84.0,11.0,-3.0,30.0,-147.0,42.0,49.0,0.0,0.0
-25.0,-59.0,-94.0,39.0,19.0,58.0,-164.0,80.0,86.0,-1.0,0.0
-21.0,-151.0,-148.0,38.0,4.0,56.0,-178.0,83.0,121.0,5.0,0.0
-17.0,-106.0,-134.0,-14.0,-13.0,44.0,-198.0,79.0,165.0,16.0,0.0
-14.0,55.0,-48.0,-33.0,-22.0,39.0,-200.0,73.0,143.0,3.0,0.0
-3.0,106.0,-115.0,-16.0,-25.0,35.0,-219.0,38.0,122.0,-21.0,0.0
-34.0,-38.0,-234.0,-22.0,-45.0,17.0,-245.0,-1.0,51.0,-41.0,0.0
-62.0,-68.0,-80.0,-59.0,-103.0,-52.0,-265.0,-78.0,-52.0,-84.0,0.0
-65.0,-74.0,122.0,-94.0,-140.0,-85.0,-277.0,-101.0,-112.0,-96.0,0.0
-38.0,-102.0,232.0,-72.0,-134.0,-80.0,-261.0,-73.0,-104.0,-59.0,0.0
-11.0,-18.0,310.0,-63.0,-139.0,-97.0,-251.0,-63.0,-100.0,-34.0,0.0
13.0,149.0,312.0,-42.0,-113.0,-80.0,-237.0,-54.0,-93.0,-17.0,0.0
21.0,64.0,4.0,-35.0,-48.0,-41.0,-228.0,-11.0,-61.0,3.0,0.0
28.0,-171.0,-241.0,-30.0,-20.0,-4.0,-203.0,19.0,-22.0,26.0,0.0
-3.0,-313.0,-228.0,-45.0,-27.0,2.0,-155.0,12.0,11.0,23.0,0.0
0.0,-161.0,-44.0,-63.0,-72.0,-36.0,-99.0,-14.0,38.0,8.0,0.0
42.0,134.0,34.0,-104.0,-132.0,-64.0,-86.0,-28.0,4.0,-3.0,0.0
61.0,240.0,14.0,-107.0,-144.0,-54.0,-102.0,-20.0,-7.0,10.0,0.0
10.0,-34.0,-43.0,-78.0,-96.0,-21.0,-148.0,1.0,-1.0,7.0,0.0
-29.0,-274.0,-78.0,-64.0,-61.0,-28.0,-206.0,0.0,19.0,-20.0,0.0
-25.0,-257.0,2.0,-79.0,-97.0,-89.0,-291.0,-58.0,8.0,-66.0,0.0
6.0,19.0,132.0,-92.0,-129.0,-116.0,-366.0,-114.0,-53.0,-88.0,0.0
58.0,500.0,226.0,-62.0,-115.0,-71.0,-400.0,-102.0,-79.0,-64.0,0.0
70.0,694.0,236.0,-28.0,-78.0,-22.0,-416.0,-55.0,-44.0,-35.0,0.0
22.0,487.0,152.0,-11.0,-61.0,20.0,-443.0,-29.0,-80.0,-26.0,0.0
-11.0,243.0,52.0,-20.0,-76.0,37.0,-439.0,-8.0,-84.0,-21.0,0.0
-30.0,124.0,60.0,-8.0,-78.0,53.0,-446.0,-8.0,-58.0,-32.0,0.0
-58.0,60.0,80.0,39.0,-59.0,57.0,-490.0,-16.0,-46.0,-30.0,0.0
-68.0,-58.0,-32.0,62.0,-31.0,72.0,-513.0,5.0,-15.0,-14.0,0.0
-59.0,-201.0,-149.0,69.0,-24.0,88.0,-538.0,26.0,20.0,11.0,0.0
-63.0,-314.0,-190.0,75.0,-26.0,96.0,-594.0,47.0,39.0,24.0,0.0
-73.0,-441.0,-174.0,69.0,-11.0,101.0,-627.0,65.0,40.0,27.0,0.0
-86.0,-609.0,-259.0,52.0,10.0,118.0,-656.0,83.0,3.0,31.0,0.0
-71.0,-738.0,-356.0,38.0,32.0,130.0,-700.0,101.0,-2.0,35.0,0.0
-2.0,-640.0,-354.0,0.0,-13.0,79.0,-733.0,48.0,-48.0,5.0,0.0
46.0,-101.0,-172.0,-15.0,-67.0,1.0,-793.0,-37.0,-109.0,-54.0,0.0
63.0,448.0,-36.0,21.0,-46.0,-13.0,-866.0,-57.0,-132.0,-75.0,0.0
35.0,453.0,-105.0,41.0,-24.0,-4.0,-937.0,-23.0,-51.0,-56.0,0.0
-1.0,375.0,79.0,41.0,-76.0,-49.0,-1028.0,-64.0,0.0,-75.0,0.0
-12.0,485.0,435.0,47.0,-124.0,-117.0,-1125.0,-143.0,-71.0,-119.0,0.0
16.0,622.0,583.0,82.0,-79.0,-93.0,-1176.0,-119.0,-63.0,-91.0,0.0
14.0,420.0,434.0,103.0,-10.0,-6.0,-1198.0,-62.0,-63.0,-60.0,0.0
-19.0,181.0,194.0,97.0,16.0,16.0,-1227.0,-50.0,-88.0,-72.0,0.0
-25.0,61.0,1.0,59.0,-25.0,-7.0,-1248.0,-48.0,-105.0,-82.0,0.0
6.0,20.0,-126.0,3.0,-56.0,-12.0,-1300.0,-25.0,-82.0,-23.0,0.0
32.0,25.0,-148.0,-26.0,-59.0,-20.0,-1328.0,-2.0,-14.0,34.0,0.0
25.0,-22.0,-68.0,-11.0,-40.0,-19.0,-1336.0,4.0,-10.0,22.0,0.0
1.0,-55.0,-50.0,27.0,-8.0,-10.0,-1351.0,24.0,9.0,3.0,0.0
-8.0,-99.0,-42.0,55.0,2.0,2.0,-1363.0,18.0,-10.0,-4.0,0.0
-13.0,-125.0,-54.0,88.0,0.0,0.0,-1372.0,16.0,-21.0,-6.0,0.0
-15.0,-145.0,-194.0,114.0,22.0,7.0,-1390.0,27.0,21.0,-5.0,0.0
-18.0,-211.0,-287.0,99.0,38.0,33.0,-1408.0,45.0,38.0,-6.0,0.0
-23.0,-202.0,-171.0,76.0,-3.0,-16.0,-1438.0,19.0,-19.0,-15.0,0.0
-39.0,-77.0,5.0,43.0,-50.0,-79.0,-1477.0,-62.0,-94.0,-52.0,0.0
-29.0,7.0,60.0,32.0,-20.0,-62.0,-1479.0,-49.0,-53.0,-22.0,0.0
-12.0,-47.0,25.0,25.0,30.0,3.0,-1458.0,27.0,44.0,38.0,0.0
-5.0,-199.0,4.0,11.0,52.0,24.0,-1434.0,61.0,79.0,64.0,0.0
-6.0,-335.0,-71.0,23.0,45.0,0.0,-1370.0,58.0,109.0,69.0,0.0
-31.0,-473.0,-187.0,42.0,28.0,-17.0,-1280.0,30.0,73.0,42.0,0.0
-60.0,-600.0,-255.0,43.0,26.0,-32.0,-1196.0,16.0,17.0,12.0,0.0
-66.0,-739.0,-356.0,38.0,62.0,3.0,-1121.0,61.0,115.0,29.0,0.0
-59.0,-843.0,-431.0,16.0,61.0,8.0,-1071.0,70.0,129.0,14.0,0.0
-37.0,-662.0,-280.0,-9.0,-14.0,-73.0,-1045.0,-9.0,43.0,-48.0,0.0
12.0,-140.0,15.0,-14.0,-66.0,-130.0,-981.0,-77.0,-43.0,-88.0,0.0
57.0,547.0,192.0,33.0,-44.0,-90.0,-881.0,-73.0,-100.0,-89.0,0.0
78.0,704.0,195.0,62.0,1.0,-29.0,-797.0,-20.0,-78.0,-56.0,0.0
53.0,558.0,259.0,56.0,-4.0,-58.0,-768.0,-44.0,-122.0,-99.0,0.0
-2.0,375.0,249.0,-3.0,-77.0,-140.0,-744.0,-126.0,-190.0,-164.0,0.0
10.0,385.0,300.0,-75.0,-155.0,-192.0,-710.0,-182.0,-209.0,-186.0,0.0
64.0,640.0,401.0,-64.0,-138.0,-187.0,-662.0,-173.0,-173.0,-164.0,0.0
96.0,811.0,314.0,-22.0,-65.0,-133.0,-627.0,-135.0,-142.0,-132.0,0.0
80.0,698.0,183.0,-37.0,-37.0,-100.0,-613.0,-105.0,-105.0,-79.0,0.0
63.0,434.0,93.0,-89.0,-39.0,-63.0,-600.0,-47.0,-16.0,-13.0,0.0
59.0,293.0,77.0,-148.0,-27.0,-43.0,-578.0,-13.0,80.0,8.0,0.0
40.0,245.0,83.0,-174.0,-15.0,-56.0,-548.0,-28.0,83.0,1.0,1.0
8.0,177.0,74.0,-207.0,12.0,-58.0,-517.0,-20.0,50.0,21.0,1.0
7.0,118.0,61.0,-177.0,-24.0,-68.0,-498.0,-10.0,27.0,51.0,1.0
2.0,101.0,105.0,107.0,11.0,-83.0,-487.0,-27.0,0.0,54.0,1.0
-1.0,74.0,92.0,281.0,89.0,-67.0,-481.0,-20.0,-8.0,69.0,1.0
-28.0,24.0,29.0,227.0,130.0,-28.0,-497.0,-25.0,-68.0,54.0,1.0
-63.0,-33.0,-63.0,171.0,185.0,-6.0,-492.0,-31.0,-111.0,33.0,1.0
-89.0,-82.0,-145.0,111.0,159.0,-56.0,-483.0,-48.0,-130.0,5.0,1.0
-107.0,-103.0,-200.0,103.0,84.0,-112.0,-466.0,-70.0,-120.0,-10.0,1.0
-112.0,-98.0,-172.0,154.0,61.0,-138.0,-453.0,-69.0,-83.0,-13.0,1.0
-99.0,-76.0,-126.0,287.0,98.0,-109.0,-443.0,-38.0,1.0,5.0,1.0
-31.0,-81.0,-180.0,151.0,79.0,-88.0,-448.0,15.0,39.0,69.0,1.0
34.0,-83.0,-186.0,-204.0,-43.0,-108.0,-487.0,34.0,45.0,138.0,1.0
57.0,-57.0,-235.0,-294.0,-114.0,-113.0,-540.0,46.0,44.0,158.0,1.0
19.0,-70.0,-240.0,63.0,-42.0,-77.0,-583.0,23.0,5.0,121.0,1.0
-57.0,-83.0,-121.0,513.0,82.0,-40.0,-634.0,-5.0,-16.0,53.0,1.0
-108.0,-123.0,-12.0,455.0,126.0,-54.0,-669.0,-28.0,-27.0,19.0,1.0
-130.0,-155.0,179.0,201.0,56.0,-107.0,-698.0,-65.0,-109.0,-5.0,1.0
-113.0,-89.0,265.0,13.0,-13.0,-157.0,-716.0,-92.0,-149.0,-24.0,0.0
-83.0,-37.0,150.0,-146.0,-29.0,-161.0,-730.0,-78.0,-124.0,-24.0,0.0
-53.0,-106.0,-246.0,-294.0,21.0,-114.0,-757.0,-19.0,-14.0,10.0,0.0
7.0,-182.0,-515.0,-388.0,59.0,-47.0,-772.0,60.0,139.0,90.0,0.0
45.0,-210.0,-589.0,-420.0,6.0,-31.0,-807.0,102.0,200.0,156.0,0.0
84.0,-105.0,-494.0,-334.0,-88.0,-61.0,-845.0,92.0,187.0,174.0,0.0
105.0,91.0,-308.0,-214.0,-149.0,-94.0,-916.0,73.0,137.0,145.0,0.0
56.0,104.0,-230.0,-175.0,-118.0,-125.0,-1035.0,53.0,88.0,118.0,0.0
-1.0,-37.0,-231.0,-209.0,-56.0,-119.0,-1142.0,15.0,13.0,75.0,0.0
-19.0,-112.0,-258.0,-241.0,-22.0,-123.0,-1233.0,-15.0,-59.0,43.0,0.0
0.0,-98.0,-232.0,-196.0,-40.0,-113.0,-1353.0,-21.0,-64.0,49.0,0.0
-4.0,-110.0,-166.0,-106.0,-50.0,-90.0,-1492.0,-17.0,-44.0,49.0,0.0
-12.0,-136.0,-178.0,-94.0,-23.0,-65.0,-1632.0,-16.0,13.0,31.0,0.0
-1.0,-134.0,-189.0,-152.0,-21.0,-54.0,-1776.0,-9.0,42.0,44.0,0.0
9.0,-69.0,-199.0,-233.0,-62.0,-60.0,-1916.0,-19.0,-16.0,66.0,0.0
23.0,144.0,-65.0,-202.0,-49.0,-58.0,-2096.0,-51.0,-56.0,69.0,0.0
4.0,194.0,-22.0,-38.0,69.0,-43.0,-2286.0,-58.0,-68.0,75.0,0.0
-24.0,51.0,-182.0,-43.0,120.0,-29.0,-2449.0,-34.0,-49.0,72.0,0.0
-44.0,-57.0,-238.0,-145.0,64.0,-22.0,-2603.0,-27.0,-62.0,77.0,0.0
-46.0,-74.0,-100.0,-76.0,38.0,-39.0,-2732.0,-37.0,-93.0,67.0,0.0
-6.0,-37.0,63.0,137.0,27.0,-43.0,-2819.0,-47.0,-111.0,63.0,0.0
32.0,38.0,121.0,206.0,10.0,-34.0,-2853.0,-47.0,-51.0,83.0,0.0
61.0,74.0,7.0,93.0,-35.0,-43.0,-2867.0,-33.0,23.0,103.0,0.0
35.0,56.0,-72.0,40.0,-70.0,-60.0,-2897.0,-31.0,50.0,85.0,0.0
9.0,-4.0,-33.0,-2.0,-100.0,-65.0,-2942.0,-36.0,26.0,64.0,0.0
-10.0,-57.0,5.0,-37.0,-101.0,-54.0,-2951.0,-33.0,-28.0,50.0,0.0
-6.0,-74.0,-47.0,22.0,-7.0,-31.0,-2968.0,-19.0,-51.0,43.0,0.0
5.0,-78.0,-72.0,95.0,45.0,-14.0,-3015.0,-7.0,-3.0,50.0,0.0
0.0,-100.0,-94.0,139.0,56.0,8.0,-3043.0,-12.0,-20.0,45.0,0.0
20.0,-130.0,-167.0,204.0,89.0,13.0,-3022.0,-2.0,-55.0,68.0,0.0
32.0,-122.0,-194.0,198.0,117.0,5.0,-3009.0,-7.0,-54.0,88.0,0.0
33.0,-101.0,-131.0,20.0,77.0,-9.0,-2983.0,-7.0,-63.0,82.0,0.0
22.0,-112.0,-126.0,-279.0,-5.0,15.0,-2932.0,-4.0,-41.0,72.0,0.0
-7.0,-134.0,-179.0,-397.0,-95.0,26.0,-2866.0,3.0,4.0,76.0,0.0
-32.0,-165.0,-174.0,-228.0,-25.0,29.0,-2771.0,9.0,46.0,90.0,0.0
-60.0,-176.0,-144.0,-64.0,45.0,6.0,-2689.0,-2.0,52.0,88.0,0.0
-61.0,-128.0,-38.0,21.0,34.0,-27.0,-2621.0,-32.0,3.0,74.0,0.0
-33.0,-66.0,18.0,37.0,38.0,-20.0,-2524.0,-30.0,10.0,91.0,0.0
-28.0,-86.0,-48.0,28.0,79.0,14.0,-2413.0,3.0,76.0,113.0,0.0
-18.0,-95.0,-24.0,8.0,50.0,9.0,-2317.0,-1.0,66.0,86.0,0.0
-3.0,87.0,60.0,-6.0,0.0,-27.0,-2211.0,-33.0,3.0,73.0,0.0
3.0,232.0,250.0,22.0,6.0,-27.0,-2090.0,-31.0,-21.0,84.0,0.0
7.0,165.0,229.0,45.0,40.0,-3.0,-1976.0,-12.0,-12.0,85.0,0.0
-5.0,76.0,135.0,49.0,37.0,9.0,-1873.0,-13.0,-15.0,84.0,0.0
-3.0,-4.0,47.0,28.0,30.0,7.0,-1778.0,-11.0,-8.0,75.0,0.0
-20.0,-59.0,-30.0,-6.0,28.0,11.0,-1679.0,-6.0,4.0,63.0,0.0
-40.0,-89.0,-50.0,-2.0,38.0,26.0,-1579.0,-3.0,-12.0,53.0,0.0
-31.0,-98.0,-46.0,17.0,56.0,42.0,-1486.0,1.0,-3.0,54.0,0.0
-42.0,-139.0,-63.0,36.0,63.0,55.0,-1397.0,14.0,30.0,53.0,0.0
-26.0,-113.0,-118.0,53.0,72.0,71.0,-1306.0,18.0,71.0,60.0,0.0
-26.0,-24.0,-128.0,50.0,54.0,54.0,-1208.0,11.0,73.0,38.0,0.0
-57.0,6.0,16.0,27.0,7.0,4.0,-1125.0,-30.0,36.0,-24.0,0.0
-83.0,36.0,128.0,0.0,-26.0,-34.0,-1056.0,-64.0,-4.0,-62.0,0.0
-80.0,57.0,139.0,9.0,-23.0,-25.0,-998.0,-50.0,-22.0,-31.0,0.0
-70.0,27.0,87.0,19.0,-10.0,-7.0,-938.0,-43.0,-40.0,-14.0,0.0
-61.0,-2.0,64.0,17.0,-5.0,-8.0,-876.0,-41.0,-23.0,-25.0,0.0
-50.0,92.0,96.0,15.0,12.0,-11.0,-798.0,-37.0,-21.0,-13.0,0.0
-41.0,138.0,100.0,23.0,15.0,10.0,-737.0,-13.0,-24.0,3.0,0.0
-44.0,36.0,59.0,20.0,24.0,31.0,-669.0,-1.0,-29.0,18.0,0.0
-38.0,-22.0,45.0,25.0,20.0,36.0,-607.0,0.0,19.0,46.0,0.0
-43.0,-24.0,37.0,36.0,25.0,35.0,-545.0,2.0,43.0,60.0,0.0
-59.0,-36.0,64.0,62.0,35.0,33.0,-486.0,1.0,19.0,71.0,0.0
-53.0,-43.0,85.0,80.0,41.0,32.0,-434.0,-6.0,10.0,68.0,0.0
-45.0,-37.0,94.0,85.0,54.0,48.0,-417.0,-2.0,16.0,64.0,0.0
-44.0,-36.0,78.0,91.0,56.0,53.0,-370.0,9.0,34.0,74.0,0.0
-27.0,-51.0,64.0,96.0,71.0,62.0,-312.0,21.0,59.0,77.0,0.0
-35.0,-82.0,28.0,80.0,58.0,49.0,-257.0,22.0,12.0,60.0,0.0
-53.0,-96.0,29.0,54.0,40.0,37.0,-200.0,8.0,-32.0,49.0,0.0
-50.0,-83.0,139.0,51.0,26.0,21.0,-146.0,5.0,-33.0,54.0,0.0
-45.0,-64.0,162.0,56.0,31.0,16.0,-101.0,3.0,8.0,61.0,0.0
-28.0,-65.0,73.0,18.0,24.0,11.0,-75.0,0.0,-1.0,56.0,0.0
-13.0,-84.0,-68.0,-11.0,7.0,8.0,-64.0,23.0,47.0,79.0,0.0
16.0,-94.0,-96.0,-17.0,-14.0,8.0,-33.0,23.0,65.0,90.0,0.0
67.0,-47.0,-59.0,49.0,-21.0,7.0,-3.0,4.0,102.0,94.0,0.0
52.0,-62.0,-19.0,457.0,32.0,12.0,-10.0,3.0,99.0,92.0,0.0
8.0,-141.0,-38.0,557.0,62.0,14.0,-29.0,-3.0,28.0,76.0,0.0
-23.0,-241.0,-102.0,148.0,25.0,10.0,-86.0,-9.0,-37.0,70.0,0.0
-18.0,-218.0,-109.0,-192.0,-93.0,-44.0,-132.0,-37.0,-39.0,76.0,0.0
18.0,-65.0,-112.0,-468.0,-179.0,-92.0,-171.0,-46.0,-28.0,86.0,0.0
59.0,46.0,-100.0,-786.0,-173.0,-39.0,-200.0,-7.0,-15.0,102.0,0.0
93.0,75.0,-67.0,-721.0,-124.0,10.0,-207.0,20.0,58.0,122.0,0.0
74.0,15.0,-48.0,-337.0,-57.0,12.0,-204.0,21.0,27.0,115.0,0.0
76.0,-4.0,14.0,-145.0,-25.0,-27.0,-212.0,22.0,38.0,99.0,0.0
46.0,24.0,91.0,-34.0,32.0,-71.0,-239.0,-5.0,73.0,53.0,0.0
-22.0,100.0,210.0,281.0,188.0,-41.0,-275.0,-51.0,7.0,-33.0,0.0
5.0,129.0,195.0,399.0,249.0,59.0,-278.0,5.0,56.0,-17.0,0.0
37.0,72.0,117.0,304.0,143.0,85.0,-293.0,42.0,59.0,12.0,0.0
2.0,38.0,192.0,252.0,103.0,81.0,-308.0,4.0,1.0,-31.0,0.0
-16.0,40.0,206.0,123.0,71.0,54.0,-306.0,-21.0,16.0,-40.0,0.0
-3.0,29.0,145.0,27.0,49.0,53.0,-296.0,-11.0,6.0,-5.0,0.0
11.0,-6.0,24.0,-10.0,39.0,58.0,-295.0,-5.0,-39.0,-5.0,0.0
3.0,-53.0,-112.0,-66.0,27.0,31.0,-285.0,-3.0,-70.0,-20.0,0.0
-4.0,-71.0,-156.0,-124.0,35.0,25.0,-270.0,7.0,-21.0,-18.0,0.0
3.0,-38.0,-106.0,-87.0,33.0,20.0,-250.0,20.0,66.0,-1.0,0.0
9.0,-9.0,-8.0,-10.0,4.0,22.0,-231.0,47.0,96.0,0.0,0.0
-25.0,-32.0,136.0,53.0,4.0,0.0,-207.0,22.0,89.0,-41.0,0.0
-47.0,-22.0,373.0,99.0,20.0,-15.0,-208.0,-22.0,42.0,-85.0,0.0
-52.0,14.0,458.0,86.0,6.0,-39.0,-196.0,-48.0,25.0,-120.0,0.0
-84.0,11.0,240.0,68.0,30.0,-51.0,-183.0,-80.0,-29.0,-168.0,0.0
-93.0,-22.0,-73.0,33.0,83.0,-42.0,-178.0,-71.0,-67.0,-178.0,0.0
-91.0,-39.0,-116.0,46.0,109.0,-24.0,-166.0,-61.0,-87.0,-168.0,0.0
-58.0,-24.0,-74.0,82.0,60.0,-17.0,-149.0,-36.0,-81.0,-134.0,0.0
31.0,19.0,-98.0,191.0,-23.0,-30.0,-146.0,11.0,16.0,-51.0,0.0
101.0,34.0,-152.0,144.0,-106.0,-61.0,-119.0,43.0,120.0,15.0,0.0
80.0,-4.0,-125.0,215.0,-118.0,-66.0,-87.0,35.0,76.0,7.0,0.0
47.0,-43.0,-150.0,195.0,-69.0,-17.0,-69.0,38.0,44.0,-18.0,0.0
81.0,-16.0,-150.0,98.0,-35.0,37.0,-80.0,57.0,106.0,8.0,0.0
92.0,9.0,-101.0,256.0,48.0,50.0,-90.0,56.0,130.0,22.0,0.0
58.0,-28.0,-50.0,162.0,54.0,-2.0,-89.0,39.0,49.0,5.0,0.0
37.0,-64.0,38.0,16.0,47.0,-62.0,-84.0,-2.0,-14.0,-36.0,0.0
24.0,-63.0,68.0,-38.0,60.0,-64.0,-81.0,-8.0,-1.0,-52.0,0.0
25.0,-50.0,-4.0,-244.0,-14.0,-67.0,-80.0,39.0,39.0,-32.0,0.0
20.0,-76.0,-70.0,-359.0,-45.0,-76.0,-81.0,46.0,40.0,-27.0,0.0
16.0,-105.0,-80.0,-300.0,-27.0,-73.0,-83.0,33.0,43.0,-40.0,0.0
25.0,-106.0,-13.0,-225.0,-47.0,-77.0,-70.0,36.0,35.0,-43.0,0.0
27.0,-104.0,32.0,-262.0,-107.0,-60.0,-56.0,37.0,28.0,-34.0,0.0
0.0,-83.0,64.0,-233.0,-127.0,-56.0,-46.0,18.0,-6.0,-45.0,0.0
1.0,-47.0,96.0,-77.0,-70.0,-62.0,-42.0,21.0,18.0,-47.0,0.0
29.0,-62.0,24.0,57.0,36.0,-23.0,-53.0,51.0,103.0,-27.0,0.0
49.0,-28.0,-66.0,133.0,105.0,4.0,-55.0,42.0,74.0,-35.0,0.0
55.0,90.0,-104.0,81.0,65.0,-28.0,-59.0,12.0,-4.0,-37.0,0.0
71.0,172.0,-19.0,-33.0,-12.0,-40.0,-70.0,15.0,33.0,-17.0,0.0
36.0,130.0,19.0,-139.0,-38.0,-59.0,-61.0,5.0,33.0,-46.0,0.0
3.0,72.0,7.0,-240.0,-62.0,-67.0,-53.0,-18.0,-45.0,-94.0,0.0
4.0,88.0,26.0,-102.0,-80.0,-78.0,-55.0,-33.0,-61.0,-116.0,0.0
8.0,74.0,81.0,166.0,-81.0,-79.0,-46.0,-47.0,-75.0,-135.0,0.0
0.0,41.0,34.0,164.0,-67.0,-51.0,-28.0,-43.0,-68.0,-128.0,0.0
-12.0,27.0,-99.0,15.0,-46.0,-41.0,-15.0,-33.0,-12.0,-133.0,0.0
-6.0,39.0,-110.0,-63.0,-18.0,-38.0,-20.0,-18.0,57.0,-133.0,0.0
6.0,46.0,14.0,-91.0,44.0,-16.0,-28.0,-17.0,85.0,-128.0,0.0
5.0,12.0,69.0,-73.0,102.0,-3.0,-34.0,-15.0,48.0,-130.0,0.0
-14.0,-23.0,55.0,-14.0,112.0,14.0,-48.0,-4.0,-11.0,-129.0,0.0
-29.0,-37.0,50.0,21.0,76.0,20.0,-46.0,6.0,-37.0,-133.0,0.0
-38.0,-59.0,44.0,36.0,78.0,19.0,-37.0,1.0,-33.0,-159.0,0.0
-32.0,-53.0,57.0,45.0,104.0,11.0,-46.0,-1.0,5.0,-166.0,0.0
-25.0,-38.0,31.0,41.0,82.0,-11.0,-42.0,-30.0,-25.0,-172.0,0.0
-19.0,-11.0,79.0,31.0,42.0,-32.0,-29.0,-50.0,-57.0,-184.0,0.0
7.0,51.0,168.0,25.0,25.0,-42.0,-22.0,-32.0,14.0,-167.0,0.0
-12.0,40.0,118.0,22.0,9.0,-28.0,-20.0,-1.0,45.0,-153.0,0.0
-33.0,-1.0,-40.0,29.0,13.0,-11.0,-12.0,11.0,60.0,-150.0,0.0
-26.0,-46.0,-138.0,25.0,24.0,-5.0,-21.0,-5.0,13.0,-158.0,0.0
-21.0,-79.0,-83.0,0.0,23.0,3.0,-38.0,-9.0,-25.0,-155.0,0.0
-20.0,-93.0,-1.0,11.0,30.0,11.0,-44.0,0.0,-31.0,-175.0,0.0
-18.0,-66.0,46.0,47.0,28.0,9.0,-38.0,-15.0,-54.0,-200.0,0.0
6.0,-19.0,88.0,46.0,30.0,-6.0,-10.0,-23.0,7.0,-205.0,0.0
0.0,-11.0,29.0,33.0,37.0,-9.0,-9.0,-16.0,51.0,-200.0,0.0
-26.0,-71.0,-144.0,19.0,26.0,1.0,-15.0,-2.0,-23.0,-205.0,0.0
-37.0,-106.0,-188.0,4.0,10.0,11.0,-7.0,0.0,-45.0,-215.0,0.0
-35.0,-42.0,-123.0,-14.0,8.0,10.0,1.0,6.0,20.0,-231.0,0.0
-26.0,19.0,35.0,5.0,21.0,22.0,-2.0,19.0,85.0,-234.0,0.0
-35.0,-8.0,94.0,5.0,25.0,40.0,0.0,7.0,34.0,-231.0,0.0
-34.0,-40.0,75.0,-27.0,0.0,23.0,-6.0,5.0,-8.0,-224.0,0.0
-19.0,-31.0,77.0,-25.0,3.0,13.0,-8.0,21.0,23.0,-199.0,0.0
-2.0,-25.0,79.0,-7.0,15.0,6.0,-14.0,25.0,52.0,-186.0,0.0
1.0,-35.0,59.0,-6.0,14.0,10.0,-6.0,9.0,44.0,-178.0,0.0
8.0,-37.0,29.0,6.0,27.0,16.0,-3.0,19.0,28.0,-164.0,0.0
-1.0,-39.0,21.0,28.0,33.0,12.0,-3.0,23.0,15.0,-155.0,0.0
-3.0,-46.0,33.0,35.0,35.0,18.0,0.0,0.0,5.0,-165.0,0.0
-28.0,-44.0,47.0,34.0,26.0,24.0,-2.0,-10.0,-22.0,-179.0,0.0
-57.0,-90.0,37.0,43.0,17.0,16.0,3.0,0.0,-48.0,-180.0,0.0
-61.0,-76.0,81.0,86.0,48.0,28.0,6.0,24.0,29.0,-180.0,0.0
-59.0,6.0,214.0,136.0,66.0,39.0,11.0,21.0,65.0,-185.0,0.0
-46.0,80.0,293.0,137.0,74.0,42.0,26.0,0.0,51.0,-184.0,0.0
-44.0,60.0,189.0,97.0,60.0,14.0,17.0,-23.0,19.0,-175.0,0.0
-37.0,9.0,20.0,31.0,45.0,9.0,3.0,-16.0,0.0,-157.0,0.0
-4.0,2.0,-94.0,-38.0,31.0,37.0,-2.0,19.0,40.0,-113.0,0.0
8.0,0.0,-7.0,-47.0,7.0,40.0,0.0,31.0,22.0,-84.0,0.0
21.0,24.0,142.0,-10.0,2.0,34.0,3.0,14.0,24.0,-81.0,0.0
-11.0,-15.0,361.0,74.0,1.0,0.0,0.0,-27.0,-70.0,-123.0,0.0
-44.0,-43.0,470.0,118.0,2.0,-16.0,8.0,-54.0,-132.0,-143.0,0.0
-28.0,-42.0,246.0,25.0,-12.0,-9.0,16.0,-47.0,-128.0,-115.0,0.0
-6.0,-73.0,-141.0,-142.0,-47.0,7.0,21.0,-12.0,-78.0,-68.0,0.0
19.0,-133.0,-455.0,-258.0,-86.0,-1.0,19.0,26.0,-41.0,-40.0,0.0
42.0,-95.0,-393.0,-215.0,-81.0,0.0,21.0,49.0,-33.0,-19.0,0.0
52.0,-21.0,-209.0,-136.0,-70.0,20.0,25.0,39.0,-25.0,-25.0,0.0
49.0,-3.0,-75.0,-81.0,-33.0,29.0,29.0,26.0,29.0,-40.0,0.0
25.0,-39.0,-33.0,9.0,2.0,50.0,32.0,9.0,59.0,-58.0,0.0
3.0,-58.0,15.0,86.0,31.0,55.0,25.0,7.0,48.0,-69.0,0.0
-12.0,-48.0,86.0,139.0,73.0,38.0,15.0,-8.0,11.0,-71.0,0.0
-6.0,0.0,87.0,156.0,114.0,15.0,4.0,-22.0,4.0,-64.0,0.0
0.0,-27.0,16.0,162.0,161.0,13.0,-4.0,-27.0,14.0,-54.0,0.0
27.0,-88.0,97.0,130.0,152.0,43.0,0.0,-10.0,21.0,-38.0,0.0
61.0,-85.0,76.0,58.0,70.0,39.0,23.0,5.0,33.0,-37.0,0.0
76.0,101.0,96.0,11.0,-36.0,0.0,47.0,-21.0,-3.0,-52.0,0.0
91.0,294.0,79.0,-75.0,-122.0,-37.0,86.0,-41.0,-85.0,-60.0,0.0
71.0,241.0,3.0,-176.0,-165.0,-41.0,122.0,-46.0,-103.0,-63.0,0.0
1.0,76.0,-49.0,-220.0,-146.0,-30.0,169.0,-33.0,-86.0,-77.0,0.0
-3.0,10.0,-77.0,-224.0,-127.0,-16.0,216.0,0.0,-46.0,-40.0,0.0
34.0,6.0,-137.0,-201.0,-110.0,7.0,264.0,17.0,-11.0,-6.0,0.0
40.0,0.0,-181.0,-173.0,-68.0,32.0,298.0,28.0,33.0,11.0,0.0
37.0,-10.0,-130.0,-90.0,-56.0,30.0,329.0,13.0,-4.0,6.0,0.0
24.0,-21.0,-59.0,17.0,-72.0,23.0,386.0,-2.0,-58.0,-5.0,0.0
3.0,-31.0,-24.0,51.0,-96.0,3.0,436.0,-18.0,-88.0,-15.0,0.0
3.0,-11.0,-1.0,34.0,-82.0,-27.0,484.0,-28.0,-106.0,-30.0,0.0
11.0,4.0,5.0,-64.0,-76.0,-35.0,506.0,-20.0,-93.0,-26.0,0.0
-10.0,-20.0,-20.0,-255.0,-129.0,-35.0,541.0,-19.0,-82.0,-36.0,0.0
-42.0,-40.0,-6.0,-186.0,-119.0,-26.0,587.0,-19.0,-22.0,-53.0,0.0
-26.0,-16.0,33.0,11.0,-32.0,0.0,660.0,-2.0,79.0,-53.0,0.0
-8.0,-17.0,17.0,40.0,-14.0,30.0,713.0,-11.0,46.0,-47.0,0.0
-14.0,-59.0,-18.0,160.0,-43.0,47.0,759.0,-14.0,-23.0,-32.0,0.0
-6.0,-68.0,-72.0,256.0,-31.0,59.0,802.0,-6.0,-9.0,-30.0,0.0
4.0,-38.0,-76.0,52.0,-13.0,58.0,820.0,-13.0,-44.0,-40.0,0.0
9.0,-25.0,48.0,-92.0,15.0,34.0,846.0,-24.0,-77.0,-60.0,0.0
28.0,-31.0,90.0,-191.0,3.0,9.0,883.0,-6.0,-48.0,-31.0,0.0
56.0,-18.0,65.0,-235.0,-43.0,13.0,934.0,42.0,35.0,16.0,0.0
58.0,-39.0,-85.0,-202.0,-22.0,45.0,960.0,94.0,114.0,34.0,0.0
12.0,-101.0,-276.0,-19.0,12.0,32.0,964.0,93.0,135.0,12.0,0.0
1.0,-114.0,-205.0,75.0,-15.0,27.0,959.0,92.0,179.0,20.0,0.0
36.0,-121.0,-61.0,38.0,-106.0,10.0,959.0,98.0,185.0,63.0,0.0
30.0,-156.0,49.0,99.0,-97.0,17.0,911.0,74.0,96.0,60.0,0.0
-1.0,-223.0,82.0,-17.0,-4.0,9.0,866.0,27.0,-6.0,9.0,0.0
-27.0,-245.0,35.0,-262.0,17.0,-13.0,824.0,-8.0,-68.0,-38.0,0.0
7.0,-51.0,87.0,-261.0,42.0,-4.0,805.0,-4.0,-18.0,-43.0,0.0
23.0,232.0,186.0,-161.0,98.0,9.0,796.0,-10.0,6.0,-52.0,0.0
-14.0,165.0,162.0,-136.0,125.0,21.0,771.0,-22.0,-35.0,-66.0,0.0
-37.0,51.0,103.0,-49.0,97.0,20.0,775.0,-29.0,-55.0,-71.0,0.0
-8.0,204.0,186.0,158.0,45.0,-3.0,781.0,-41.0,-65.0,-63.0,0.0
28.0,323.0,231.0,226.0,19.0,-14.0,788.0,-35.0,-63.0,-50.0,0.0
35.0,239.0,96.0,203.0,17.0,19.0,792.0,15.0,-28.0,-33.0,0.0
44.0,161.0,21.0,174.0,6.0,33.0,802.0,43.0,55.0,-8.0,0.0
34.0,131.0,59.0,151.0,-3.0,11.0,805.0,14.0,64.0,-13.0,0.0
11.0,74.0,56.0,117.0,0.0,-1.0,792.0,-11.0,14.0,-33.0,0.0
9.0,81.0,40.0,88.0,-9.0,-22.0,782.0,-4.0,36.0,-55.0,0.0
27.0,105.0,68.0,88.0,-17.0,-13.0,770.0,2.0,58.0,-76.0,0.0
27.0,85.0,71.0,78.0,-12.0,11.0,787.0,22.0,69.0,-66.0,0.0
8.0,27.0,70.0,73.0,-17.0,17.0,805.0,48.0,17.0,-72.0,0.0
-30.0,-5.0,151.0,122.0,6.0,9.0,796.0,12.0,-70.0,-117.0,0.0
-43.0,43.0,375.0,181.0,32.0,-6.0,780.0,-40.0,-123.0,-155.0,0.0
-35.0,134.0,448.0,210.0,61.0,-26.0,783.0,-58.0,-72.0,-161.0,0.0
-34.0,86.0,233.0,167.0,62.0,-36.0,802.0,-50.0,12.0,-118.0,0.0
-41.0,-46.0,-112.0,72.0,18.0,-41.0,797.0,-43.0,17.0,-56.0,0.0
-7.0,-123.0,-423.0,-77.0,-24.0,-11.0,842.0,0.0,3.0,-11.0,0.0
78.0,-96.0,-454.0,-189.0,-73.0,23.0,922.0,74.0,36.0,62.0,0.0
108.0,-40.0,-436.0,-190.0,-69.0,24.0,978.0,89.0,39.0,72.0,0.0
83.0,12.0,-332.0,-144.0,-49.0,5.0,1004.0,71.0,14.0,62.0,0.0
62.0,-1.0,-182.0,-100.0,-17.0,-6.0,1028.0,58.0,-3.0,30.0,0.0
46.0,8.0,-77.0,-82.0,0.0,-17.0,1043.0,22.0,-44.0,-6.0,0.0
36.0,33.0,3.0,-44.0,31.0,-5.0,1076.0,-4.0,-69.0,-30.0,0.0
21.0,6.0,6.0,4.0,57.0,17.0,1132.0,-15.0,-57.0,-26.0,0.0
25.0,1.0,-28.0,58.0,44.0,11.0,1181.0,-10.0,-31.0,0.0,0.0
14.0,11.0,6.0,113.0,27.0,1.0,1217.0,-7.0,-7.0,10.0,0.0
-8.0,5.0,16.0,67.0,-7.0,-6.0,1199.0,-1.0,0.0,12.0,0.0
-1.0,-15.0,24.0,-60.0,-71.0,-19.0,1190.0,-8.0,-15.0,17.0,0.0
-3.0,-32.0,14.0,-155.0,-117.0,-37.0,1176.0,-2.0,-21.0,1.0,0.0
-6.0,9.0,8.0,-138.0,-83.0,-48.0,1163.0,-9.0,-37.0,-14.0,0.0
-19.0,43.0,45.0,-75.0,-14.0,-47.0,1174.0,-23.0,-44.0,-23.0,0.0
-17.0,17.0,73.0,-7.0,37.0,-42.0,1199.0,-25.0,-44.0,-20.0,0.0
10.0,-4.0,86.0,72.0,77.0,-27.0,1245.0,-50.0,-65.0,-25.0,0.0
-1.0,-23.0,48.0,122.0,89.0,-6.0,1277.0,-49.0,-72.0,-29.0,0.0
-13.0,-28.0,66.0,150.0,77.0,6.0,1324.0,-33.0,-26.0,-48.0,0.0
-37.0,-36.0,80.0,145.0,54.0,30.0,1373.0,-24.0,-20.0,-65.0,0.0
-30.0,-21.0,71.0,89.0,4.0,20.0,1449.0,-17.0,-14.0,-58.0,0.0
-6.0,-1.0,46.0,-37.0,-72.0,-12.0,1514.0,-13.0,4.0,-38.0,0.0
-17.0,-21.0,14.0,-161.0,-87.0,-22.0,1561.0,-15.0,7.0,-36.0,0.0
-21.0,-36.0,-3.0,-160.0,-67.0,-14.0,1627.0,-12.0,2.0,-33.0,0.0
-16.0,-28.0,15.0,-52.0,2.0,-5.0,1690.0,-16.0,-19.0,-27.0,0.0
-28.0,-41.0,28.0,19.0,37.0,-7.0,1738.0,-27.0,-23.0,-18.0,0.0
-43.0,-62.0,37.0,55.0,58.0,14.0,1752.0,-21.0,-50.0,-26.0,0.0
-67.0,-74.0,69.0,139.0,65.0,20.0,1760.0,-17.0,-65.0,-40.0,0.0
-58.0,-65.0,95.0,205.0,81.0,-10.0,1788.0,-29.0,-55.0,-38.0,0.0
-42.0,-36.0,69.0,158.0,97.0,-11.0,1839.0,-39.0,-48.0,-21.0,0.0
-8.0,3.0,33.0,64.0,68.0,5.0,1881.0,-32.0,-25.0,15.0,0.0
25.0,30.0,-17.0,-90.0,-16.0,10.0,1923.0,-17.0,26.0,68.0,0.0
47.0,15.0,-57.0,-217.0,-96.0,-5.0,1963.0,-24.0,59.0,86.0,0.0
32.0,-3.0,-34.0,-190.0,-163.0,-15.0,2010.0,-34.0,33.0,70.0,0.0
20.0,-19.0,-9.0,6.0,-81.0,0.0,2055.0,-13.0,13.0,50.0,0.0
12.0,-8.0,39.0,384.0,27.0,32.0,2083.0,28.0,21.0,44.0,0.0
-2.0,-2.0,67.0,421.0,82.0,43.0,2083.0,60.0,-6.0,20.0,0.0
-23.0,-12.0,2.0,110.0,64.0,12.0,2085.0,76.0,-42.0,0.0,0.0
-45.0,-22.0,-120.0,-135.0,50.0,11.0,2117.0,49.0,-50.0,-10.0,0.0
-31.0,-36.0,-202.0,-366.0,4.0,11.0,2190.0,26.0,-35.0,4.0,0.0
9.0,-36.0,-208.0,-463.0,-48.0,13.0,2236.0,47.0,6.0,29.0,0.0
52.0,-34.0,-180.0,-253.0,-65.0,6.0,2263.0,80.0,70.0,65.0,0.0
57.0,-23.0,-62.0,-25.0,-62.0,-10.0,2290.0,64.0,91.0,91.0,0.0
28.0,-31.0,3.0,8.0,-65.0,-10.0,2277.0,44.0,88.0,84.0,0.0
0.0,-53.0,-44.0,-21.0,-58.0,0.0,2258.0,42.0,76.0,55.0,0.0
-26.0,-71.0,-44.0,69.0,-3.0,16.0,2234.0,30.0,51.0,21.0,0.0
-7.0,-32.0,17.0,169.0,26.0,24.0,2229.0,21.0,30.0,6.0,0.0
0.0,-7.0,61.0,108.0,39.0,17.0,2217.0,19.0,11.0,-8.0,0.0
-15.0,-28.0,83.0,86.0,95.0,21.0,2198.0,20.0,2.0,-29.0,0.0
-20.0,-31.0,149.0,101.0,92.0,26.0,2182.0,20.0,-11.0,-27.0,0.0
-29.0,-39.0,156.0,46.0,33.0,2.0,2176.0,-2.0,-44.0,-30.0,0.0
-18.0,-47.0,124.0,1.0,4.0,-10.0,2205.0,-16.0,-43.0,-39.0,0.0
-24.0,-73.0,14.0,5.0,29.0,8.0,2233.0,-8.0,-29.0,-51.0,0.0
-18.0,9.0,27.0,18.0,40.0,15.0,2254.0,-27.0,-16.0,-52.0,0.0
-2.0,203.0,159.0,82.0,59.0,13.0,2272.0,-40.0,-12.0,-58.0,0.0
-33.0,198.0,117.0,136.0,84.0,43.0,2291.0,-19.0,12.0,-58.0,0.0
-22.0,88.0,22.0,90.0,50.0,43.0,2273.0,8.0,33.0,-35.0,0.0
14.0,50.0,-56.0,21.0,-16.0,18.0,2270.0,25.0,51.0,-3.0,0.0
34.0,35.0,-51.0,-48.0,-27.0,16.0,2278.0,40.0,52.0,21.0,0.0
31.0,-15.0,-121.0,-77.0,-9.0,26.0,2233.0,38.0,38.0,31.0,0.0
28.0,-56.0,-135.0,-118.0,-54.0,23.0,2185.0,45.0,41.0,40.0,0.0
60.0,-36.0,-112.0,-148.0,-89.0,26.0,2164.0,45.0,24.0,44.0,0.0
67.0,31.0,-89.0,-145.0,-99.0,21.0,2127.0,29.0,0.0,71.0,0.0
67.0,83.0,-45.0,-109.0,-70.0,14.0,2100.0,9.0,-10.0,119.0,0.0
62.0,52.0,-58.0,-99.0,-39.0,22.0,2089.0,14.0,14.0,187.0,0.0
52.0,13.0,-94.0,-88.0,-19.0,56.0,2074.0,31.0,51.0,253.0,0.0
27.0,-14.0,-96.0,-61.0,-1.0,53.0,2066.0,35.0,93.0,289.0,0.0
21.0,-3.0,-44.0,-2.0,9.0,30.0,2071.0,1.0,72.0,304.0,0.0
0.0,-9.0,-23.0,14.0,53.0,38.0,2030.0,-2.0,36.0,332.0,0.0
-17.0,-36.0,-28.0,-28.0,58.0,36.0,1978.0,12.0,27.0,361.0,0.0
-14.0,-31.0,-9.0,-66.0,18.0,37.0,1932.0,23.0,6.0,391.0,0.0
15.0,21.0,51.0,-78.0,-38.0,35.0,1898.0,27.0,-8.0,420.0,0.0
47.0,75.0,235.0,-94.0,-72.0,40.0,1882.0,40.0,13.0,460.0,0.0
54.0,72.0,326.0,-103.0,-67.0,35.0,1872.0,43.0,39.0,480.0,0.0
1.0,12.0,148.0,3.0,-3.0,53.0,1837.0,3.0,-14.0,452.0,0.0
-55.0,-35.0,-169.0,31.0,38.0,31.0,1810.0,-36.0,-68.0,432.0,0.0
-59.0,-49.0,-364.0,-15.0,75.0,28.0,1793.0,-39.0,-49.0,446.0,0.0
-22.0,-13.0,-230.0,-6.0,106.0,61.0,1771.0,-14.0,-8.0,491.0,0.0
-5.0,1.0,-67.0,22.0,109.0,64.0,1734.0,-8.0,14.0,501.0,0.0
-4.0,-19.0,-24.0,31.0,43.0,45.0,1684.0,-1.0,16.0,479.0,0.0
-8.0,-21.0,-31.0,28.0,-32.0,34.0,1612.0,8.0,22.0,476.0,0.0
1.0,3.0,-28.0,60.0,9.0,40.0,1569.0,4.0,-2.0,462.0,0.0
-2.0,-9.0,-107.0,68.0,147.0,73.0,1543.0,7.0,-8.0,438.0,0.0
-22.0,-28.0,-99.0,-23.0,165.0,56.0,1496.0,-3.0,-42.0,412.0,0.0
-28.0,-7.0,5.0,-59.0,114.0,50.0,1470.0,-21.0,-68.0,378.0,0.0
-28.0,6.0,106.0,101.0,93.0,32.0,1408.0,-34.0,-73.0,350.0,0.0
-11.0,25.0,160.0,221.0,25.0,-27.0,1352.0,-56.0,-69.0,358.0,0.0
-3.0,56.0,181.0,117.0,-79.0,-52.0,1305.0,-56.0,-37.0,370.0,0.0
-7.0,45.0,151.0,-14.0,-137.0,-54.0,1259.0,-41.0,-4.0,360.0,0.0
6.0,11.0,73.0,-74.0,-156.0,-36.0,1222.0,-4.0,29.0,367.0,0.0
16.0,-30.0,-39.0,-50.0,-107.0,-16.0,1174.0,25.0,28.0,371.0,0.0
17.0,-52.0,-159.0,44.0,-19.0,5.0,1125.0,36.0,37.0,378.0,0.0
36.0,-73.0,-194.0,75.0,28.0,36.0,1074.0,33.0,41.0,374.0,0.0
55.0,-92.0,-132.0,1.0,7.0,20.0,1011.0,39.0,41.0,366.0,0.0
61.0,-116.0,-131.0,-43.0,-13.0,12.0,945.0,34.0,17.0,348.0,0.0
18.0,-116.0,-4.0,0.0,-2.0,15.0,834.0,-7.0,-33.0,324.0,0.0
-11.0,-139.0,75.0,35.0,30.0,-11.0,755.0,-40.0,-53.0,290.0,0.0
5.0,-98.0,-4.0,30.0,50.0,-32.0,680.0,-48.0,-41.0,270.0,0.0
31.0,20.0,-142.0,30.0,30.0,-43.0,612.0,-52.0,-19.0,255.0,0.0
27.0,-12.0,-191.0,10.0,16.0,-21.0,556.0,-35.0,1.0,261.0,0.0
23.0,-51.0,-92.0,-31.0,13.0,9.0,522.0,-2.0,38.0,254.0,0.0
52.0,105.0,15.0,-57.0,-41.0,7.0,479.0,11.0,44.0,264.0,0.0
49.0,225.0,36.0,3.0,-19.0,11.0,422.0,9.0,34.0,275.0,0.0
24.0,174.0,43.0,83.0,42.0,21.0,359.0,-7.0,20.0,234.0,0.0
-5.0,90.0,69.0,140.0,94.0,-6.0,266.0,-29.0,-11.0,214.0,0.0
-37.0,45.0,89.0,115.0,84.0,-35.0,201.0,-43.0,-62.0,189.0,0.0
-49.0,18.0,68.0,40.0,60.0,-24.0,161.0,-30.0,-69.0,208.0,0.0
-27.0,-7.0,-28.0,-23.0,26.0,-2.0,123.0,-5.0,-40.0,239.0,0.0
-24.0,-24.0,-148.0,-68.0,-29.0,-13.0,74.0,2.0,-29.0,242.0,0.0
-1.0,11.0,-73.0,-81.0,-84.0,-16.0,14.0,6.0,-12.0,260.0,0.0
28.0,50.0,48.0,-81.0,-108.0,-6.0,-20.0,13.0,37.0,284.0,0.0
30.0,54.0,52.0,-40.0,-102.0,0.0,-45.0,13.0,66.0,285.0,0.0
10.0,44.0,40.0,166.0,-60.0,5.0,-82.0,3.0,57.0,260.0,0.0
0.0,46.0,47.0,340.0,-26.0,13.0,-136.0,-22.0,20.0,230.0,0.0
-11.0,52.0,38.0,97.0,-30.0,-15.0,-218.0,-53.0,-8.0,229.0,0.0
-31.0,29.0,20.0,-102.0,4.0,-33.0,-305.0,-74.0,-18.0,251.0,0.0
-23.0,5.0,-22.0,-191.0,61.0,-28.0,-391.0,-62.0,-12.0,268.0,0.0
7.0,9.0,-55.0,-276.0,66.0,-35.0,-416.0,-33.0,16.0,301.0,0.0
26.0,24.0,-44.0,-253.0,38.0,-30.0,-421.0,-16.0,14.0,327.0,0.0
27.0,18.0,-43.0,-174.0,41.0,-27.0,-413.0,5.0,-15.0,326.0,0.0
20.0,18.0,-111.0,-159.0,30.0,-40.0,-436.0,32.0,-19.0,307.0,0.0
-2.0,8.0,-54.0,-198.0,-15.0,-57.0,-481.0,59.0,-16.0,296.0,0.0
1.0,-3.0,-68.0,-198.0,-29.0,-36.0,-515.0,55.0,31.0,321.0,0.0
6.0,-26.0,-136.0,-104.0,-15.0,-17.0,-514.0,11.0,35.0,325.0,0.0
-22.0,-4.0,12.0,182.0,35.0,-17.0,-530.0,-35.0,-1.0,264.0,0.0
-37.0,19.0,56.0,332.0,53.0,-28.0,-538.0,-37.0,-8.0,246.0,0.0
-47.0,20.0,59.0,357.0,77.0,-24.0,-520.0,-23.0,-4.0,238.0,0.0
-80.0,-4.0,99.0,309.0,117.0,-11.0,-557.0,-31.0,-20.0,223.0,0.0
-107.0,-15.0,170.0,201.0,112.0,-32.0,-612.0,-57.0,-50.0,218.0,0.0
-107.0,11.0,139.0,80.0,50.0,-48.0,-633.0,-60.0,-64.0,212.0,0.0
-77.0,22.0,82.0,23.0,28.0,-31.0,-634.0,-37.0,-54.0,212.0,0.0
-1.0,57.0,-44.0,-23.0,25.0,21.0,-606.0,-7.0,-11.0,247.0,0.0
30.0,87.0,-46.0,17.0,1.0,28.0,-571.0,12.0,2.0,281.0,0.0
-5.0,42.0,-36.0,74.0,6.0,35.0,-537.0,10.0,-25.0,263.0,0.0
-40.0,0.0,1.0,45.0,20.0,38.0,-510.0,0.0,-21.0,230.0,0.0
-51.0,-24.0,-4.0,-41.0,11.0,20.0,-501.0,6.0,-1.0,230.0,0.0
-54.0,-42.0,-20.0,-107.0,-14.0,-2.0,-474.0,7.0,15.0,248.0,0.0
-37.0,-20.0,2.0,-107.0,-39.0,-13.0,-450.0,4.0,44.0,239.0,0.0
-10.0,3.0,21.0,-82.0,-46.0,-12.0,-442.0,1.0,59.0,215.0,0.0
-3.0,18.0,3.0,-79.0,-44.0,-7.0,-408.0,6.0,53.0,193.0,0.0
-21.0,4.0,25.0,-85.0,-56.0,-4.0,-379.0,5.0,27.0,168.0,0.0
-33.0,0.0,61.0,-67.0,-69.0,-12.0,-378.0,9.0,0.0,124.0,0.0
-27.0,3.0,24.0,-22.0,-69.0,-27.0,-380.0,-22.0,-20.0,77.0,0.0
-34.0,-13.0,43.0,0.0,-27.0,-24.0,-385.0,-41.0,-43.0,30.0,0.0
-27.0,-27.0,49.0,-38.0,40.0,-17.0,-375.0,-38.0,-50.0,15.0,0.0
14.0,-16.0,83.0,-67.0,57.0,-27.0,-361.0,-21.0,-40.0,40.0,0.0
46.0,3.0,275.0,-8.0,72.0,-17.0,-352.0,-7.0,-16.0,60.0,0.0
35.0,29.0,354.0,53.0,139.0,10.0,-343.0,-1.0,-3.0,55.0,0.0
22.0,32.0,186.0,-8.0,127.0,31.0,-329.0,12.0,25.0,43.0,0.0
-1.0,-41.0,-174.0,-115.0,51.0,12.0,-320.0,9.0,41.0,12.0,0.0
-19.0,-113.0,-382.0,-93.0,49.0,-2.0,-288.0,3.0,40.0,-14.0,0.0
-10.0,-118.0,-330.0,-7.0,54.0,3.0,-252.0,13.0,56.0,-14.0,0.0
33.0,-48.0,-173.0,79.0,43.0,0.0,-201.0,16.0,53.0,10.0,0.0
45.0,16.0,-40.0,111.0,41.0,-24.0,-180.0,-4.0,13.0,-5.0,0.0
27.0,-11.0,-72.0,92.0,72.0,-13.0,-155.0,-10.0,-39.0,-19.0,0.0
23.0,-21.0,-160.0,178.0,116.0,12.0,-118.0,7.0,-24.0,-2.0,0.0
26.0,-5.0,-58.0,212.0,63.0,5.0,-80.0,23.0,-5.0,14.0,0.0
23.0,30.0,57.0,86.0,-73.0,-22.0,-61.0,27.0,14.0,46.0,0.0
1.0,17.0,57.0,-11.0,-115.0,-60.0,-50.0,12.0,10.0,26.0,0.0
-1.0,6.0,-7.0,-108.0,-129.0,-76.0,-32.0,-10.0,-14.0,10.0,0.0
0.0,25.0,4.0,-157.0,-174.0,-76.0,-11.0,-12.0,9.0,20.0,0.0
23.0,35.0,-12.0,-159.0,-183.0,-50.0,11.0,4.0,50.0,58.0,0.0
23.0,25.0,-18.0,-131.0,-123.0,-11.0,12.0,14.0,40.0,59.0,0.0
4.0,5.0,3.0,-85.0,-69.0,-5.0,-3.0,-4.0,5.0,52.0,0.0
13.0,-3.0,29.0,-62.0,-88.0,-23.0,-5.0,-14.0,-3.0,68.0,0.0
27.0,-17.0,15.0,-73.0,-75.0,-6.0,-9.0,-8.0,1.0,80.0,0.0
41.0,-54.0,-32.0,-108.0,-60.0,-3.0,2.0,21.0,9.0,87.0,0.0
30.0,-77.0,-31.0,-66.0,-32.0,-8.0,36.0,15.0,-15.0,77.0,0.0
12.0,-80.0,-30.0,-29.0,-7.0,1.0,43.0,-9.0,-45.0,48.0,0.0
0.0,-108.0,-37.0,-21.0,5.0,13.0,62.0,3.0,-41.0,37.0,0.0
-7.0,-130.0,-41.0,-35.0,0.0,18.0,80.0,17.0,-41.0,34.0,0.0
18.0,-12.0,-29.0,-57.0,-38.0,8.0,103.0,12.0,-14.0,47.0,0.0
36.0,188.0,59.0,-57.0,-37.0,12.0,133.0,-2.0,20.0,42.0,0.0
23.0,205.0,82.0,-39.0,-20.0,10.0,138.0,6.0,44.0,47.0,0.0
24.0,130.0,12.0,-21.0,-29.0,3.0,147.0,21.0,69.0,60.0,0.0
17.0,52.0,-115.0,198.0,-28.0,1.0,115.0,18.0,59.0,63.0,0.0
-5.0,15.0,-135.0,405.0,15.0,1.0,97.0,0.0,27.0,50.0,0.0
-28.0,13.0,-116.0,231.0,55.0,-3.0,67.0,-32.0,7.0,16.0,0.0
-56.0,-16.0,-89.0,44.0,64.0,-14.0,7.0,-57.0,-41.0,-14.0,0.0
-46.0,-31.0,-19.0,-65.0,63.0,8.0,-39.0,-32.0,-48.0,-7.0,0.0
-19.0,-38.0,75.0,-186.0,46.0,37.0,-61.0,2.0,-31.0,18.0,0.0
-12.0,-59.0,46.0,-251.0,5.0,27.0,-85.0,22.0,-30.0,20.0,0.0
-18.0,-59.0,-35.0,-215.0,-19.0,34.0,-105.0,18.0,-34.0,12.0,0.0
-2.0,-4.0,-71.0,-145.0,-21.0,31.0,-115.0,7.0,-38.0,14.0,0.0
20.0,15.0,-50.0,-108.0,-36.0,23.0,-97.0,18.0,-15.0,35.0,0.0
29.0,13.0,2.0,-45.0,-17.0,11.0,-74.0,16.0,0.0,32.0,0.0
-6.0,37.0,72.0,37.0,27.0,13.0,-71.0,-8.0,-9.0,-24.0,0.0
-62.0,0.0,43.0,81.0,73.0,30.0,-86.0,-28.0,-20.0,-70.0,0.0
-98.0,-12.0,99.0,80.0,59.0,9.0,-115.0,-62.0,-57.0,-125.0,0.0
-80.0,-9.0,182.0,39.0,-1.0,-46.0,-112.0,-79.0,-84.0,-145.0,0.0
-41.0,-18.0,122.0,4.0,-34.0,-54.0,-93.0,-54.0,-75.0,-124.0,0.0
-2.0,-44.0,-21.0,-90.0,-32.0,-30.0,-77.0,-9.0,-36.0,-100.0,0.0
8.0,-131.0,-99.0,-145.0,-22.0,-6.0,-110.0,15.0,-19.0,-125.0,0.0
19.0,-167.0,-133.0,-158.0,-29.0,-17.0,-136.0,34.0,-3.0,-126.0,0.0
17.0,-169.0,-180.0,-115.0,-28.0,-23.0,-180.0,34.0,11.0,-144.0,0.0
9.0,-192.0,-151.0,-8.0,-5.0,-8.0,-208.0,42.0,30.0,-167.0,0.0
6.0,-185.0,-38.0,44.0,-17.0,9.0,-207.0,48.0,57.0,-185.0,0.0
10.0,-23.0,55.0,8.0,-51.0,-3.0,-220.0,45.0,59.0,-214.0,0.0
32.0,250.0,54.0,-1.0,-60.0,10.0,-242.0,48.0,45.0,-230.0,0.0
-5.0,291.0,99.0,11.0,-75.0,-21.0,-257.0,-16.0,-24.0,-290.0,0.0
-45.0,206.0,243.0,30.0,-58.0,-74.0,-275.0,-89.0,-98.0,-358.0,0.0
-36.0,100.0,162.0,32.0,-2.0,-35.0,-278.0,-52.0,-86.0,-332.0,0.0
14.0,27.0,-17.0,-36.0,20.0,-6.0,-243.0,0.0,-44.0,-264.0,0.0
43.0,34.0,-53.0,-69.0,20.0,-5.0,-251.0,15.0,-59.0,-238.0,0.0
29.0,38.0,-17.0,-70.0,-33.0,-6.0,-270.0,23.0,-53.0,-237.0,0.0
9.0,12.0,-83.0,-47.0,-64.0,-22.0,-293.0,11.0,-51.0,-241.0,0.0
-8.0,9.0,0.0,15.0,-2.0,-31.0,-285.0,-7.0,-61.0,-274.0,0.0
-20.0,17.0,29.0,58.0,42.0,-13.0,-282.0,-14.0,-52.0,-301.0,0.0
-3.0,9.0,-39.0,17.0,39.0,6.0,-280.0,-2.0,-5.0,-287.0,0.0
-26.0,-7.0,11.0,7.0,49.0,7.0,-296.0,-3.0,7.0,-295.0,0.0
-58.0,-3.0,31.0,64.0,82.0,-1.0,-322.0,-2.0,-12.0,-318.0,0.0
-37.0,-6.0,41.0,31.0,47.0,0.0,-350.0,9.0,-4.0,-314.0,0.0
-23.0,-20.0,33.0,44.0,5.0,-4.0,-366.0,13.0,12.0,-296.0,0.0
-33.0,-25.0,72.0,206.0,22.0,-5.0,-413.0,0.0,-16.0,-306.0,0.0
-56.0,-34.0,129.0,226.0,34.0,0.0,-464.0,-17.0,-64.0,-324.0,0.0
-78.0,-57.0,196.0,118.0,46.0,18.0,-493.0,-29.0,-80.0,-346.0,0.0
-63.0,-65.0,168.0,-18.0,32.0,19.0,-483.0,-33.0,-81.0,-343.0,0.0
-38.0,-52.0,73.0,-154.0,-14.0,-12.0,-466.0,-32.0,-61.0,-328.0,0.0
-13.0,-36.0,-223.0,-254.0,-69.0,-28.0,-463.0,-7.0,-10.0,-295.0,0.0
36.0,-16.0,-299.0,-265.0,-80.0,11.0,-434.0,31.0,69.0,-256.0,0.0
72.0,-6.0,-211.0,-216.0,-47.0,40.0,-433.0,53.0,117.0,-238.0,0.0
64.0,-24.0,-142.0,-132.0,-5.0,24.0,-454.0,34.0,88.0,-261.0,0.0
19.0,-42.0,-107.0,-91.0,-9.0,-9.0,-463.0,1.0,37.0,-296.0,0.0
-1.0,-56.0,-92.0,-99.0,-9.0,-29.0,-472.0,-10.0,8.0,-308.0,0.0
3.0,-62.0,-55.0,-35.0,39.0,-18.0,-500.0,3.0,3.0,-291.0,0.0
19.0,-42.0,5.0,94.0,78.0,-7.0,-535.0,11.0,7.0,-274.0,0.0
7.0,-20.0,27.0,83.0,67.0,-3.0,-559.0,4.0,9.0,-295.0,0.0
-34.0,-35.0,16.0,20.0,43.0,-10.0,-580.0,-11.0,-26.0,-326.0,0.0
-21.0,-50.0,-3.0,-24.0,1.0,-24.0,-588.0,-9.0,-27.0,-327.0,0.0
-13.0,-50.0,2.0,-38.0,-26.0,-24.0,-604.0,5.0,6.0,-317.0,0.0
-7.0,-26.0,51.0,93.0,6.0,-20.0,-607.0,10.0,33.0,-308.0,0.0
11.0,5.0,105.0,166.0,17.0,-5.0,-592.0,13.0,61.0,-301.0,0.0
14.0,-9.0,77.0,116.0,12.0,-8.0,-597.0,8.0,33.0,-299.0,0.0
14.0,-8.0,57.0,86.0,25.0,-10.0,-603.0,1.0,8.0,-308.0,0.0
8.0,11.0,44.0,75.0,35.0,4.0,-585.0,-7.0,-14.0,-314.0,0.0
12.0,26.0,-40.0,74.0,35.0,-2.0,-587.0,-18.0,-35.0,-319.0,0.0
-2.0,-1.0,-135.0,73.0,35.0,-20.0,-576.0,-14.0,-42.0,-313.0,0.0
-14.0,-40.0,-133.0,56.0,25.0,-27.0,-570.0,-15.0,-51.0,-292.0,0.0
-1.0,-34.0,6.0,64.0,24.0,-32.0,-522.0,-20.0,-60.0,-286.0,0.0
-5.0,0.0,102.0,80.0,61.0,-33.0,-470.0,-51.0,-75.0,-287.0,0.0
-31.0,31.0,135.0,76.0,58.0,-38.0,-437.0,-59.0,-60.0,-276.0,0.0
-32.0,12.0,120.0,68.0,34.0,-43.0,-441.0,-45.0,-34.0,-248.0,0.0
-16.0,-6.0,75.0,40.0,20.0,-27.0,-419.0,-19.0,9.0,-227.0,0.0
-3.0,-15.0,26.0,22.0,13.0,-21.0,-392.0,-4.0,34.0,-213.0,0.0
-17.0,-24.0,-39.0,54.0,28.0,-14.0,-394.0,-10.0,21.0,-207.0,0.0
-31.0,11.0,-40.0,80.0,52.0,3.0,-414.0,-20.0,-7.0,-207.0,0.0
-29.0,55.0,-25.0,73.0,42.0,12.0,-456.0,-12.0,-35.0,-200.0,0.0
-29.0,40.0,-4.0,49.0,30.0,-5.0,-463.0,-7.0,-39.0,-181.0,0.0
-16.0,6.0,52.0,9.0,24.0,-3.0,-455.0,-6.0,-31.0,-155.0,0.0
12.0,-6.0,1.0,-34.0,16.0,14.0,-404.0,9.0,-13.0,-120.0,0.0
32.0,-10.0,-31.0,-55.0,39.0,12.0,-362.0,27.0,-12.0,-88.0,0.0
27.0,-15.0,3.0,-50.0,57.0,7.0,-328.0,19.0,-27.0,-104.0,0.0
14.0,-22.0,22.0,-43.0,47.0,17.0,-305.0,14.0,-15.0,-120.0,0.0
-2.0,-30.0,6.0,-44.0,3.0,2.0,-287.0,14.0,18.0,-108.0,0.0
2.0,-19.0,25.0,-3.0,-50.0,-19.0,-253.0,8.0,40.0,-95.0,0.0
-20.0,-2.0,50.0,56.0,-52.0,-26.0,-206.0,-5.0,35.0,-109.0,0.0
-42.0,-6.0,73.0,89.0,1.0,-19.0,-194.0,-13.0,36.0,-110.0,0.0
-44.0,-18.0,25.0,114.0,55.0,-8.0,-183.0,1.0,40.0,-91.0,0.0
-36.0,-41.0,18.0,270.0,125.0,2.0,-197.0,3.0,-2.0,-106.0,0.0
-31.0,-36.0,100.0,452.0,181.0,11.0,-205.0,0.0,-25.0,-120.0,0.0
-32.0,-43.0,111.0,384.0,147.0,22.0,-183.0,0.0,-29.0,-103.0,0.0
-12.0,-58.0,25.0,84.0,-2.0,13.0,-188.0,10.0,-83.0,-71.0,0.0
-11.0,-87.0,5.0,-198.0,-124.0,-32.0,-222.0,9.0,-226.0,-63.0,0.0
-9.0,-21.0,32.0,-236.0,-127.0,8.0,-178.0,10.0,-58.0,-60.0,0.0
-12.0,-26.0,-88.0,-227.0,-116.0,14.0,-174.0,13.0,-2.0,-67.0,0.0
-31.0,-61.0,-146.0,-293.0,-145.0,-3.0,-178.0,11.0,3.0,-67.0,0.0
-27.0,-69.0,-64.0,-345.0,-163.0,-28.0,-119.0,-1.0,9.0,-71.0,0.0
1.0,-47.0,28.0,-178.0,-145.0,-45.0,-64.0,-20.0,-15.0,-70.0,0.0
21.0,-16.0,155.0,229.0,-106.0,-52.0,-46.0,-27.0,-18.0,-62.0,0.0
31.0,39.0,186.0,288.0,-66.0,-38.0,-32.0,-46.0,1.0,-59.0,0.0
30.0,181.0,128.0,14.0,-29.0,-31.0,-11.0,-62.0,1.0,-55.0,0.0
27.0,215.0,22.0,-211.0,-46.0,-55.0,26.0,-49.0,18.0,-31.0,0.0
69.0,174.0,-26.0,-395.0,-133.0,-69.0,69.0,-5.0,61.0,16.0,0.0
76.0,108.0,2.0,-507.0,-173.0,-54.0,60.0,17.0,77.0,50.0,0.0
22.0,16.0,-39.0,-486.0,-110.0,-30.0,31.0,18.0,56.0,43.0,0.0
-36.0,-86.0,-65.0,-247.0,-30.0,-27.0,27.0,-4.0,17.0,4.0,0.0
-12.0,-120.0,-22.0,95.0,28.0,12.0,32.0,13.0,12.0,11.0,0.0
76.0,-105.0,-128.0,128.0,53.0,82.0,52.0,78.0,77.0,91.0,0.0
108.0,-134.0,-301.0,-99.0,19.0,79.0,38.0,104.0,123.0,141.0,0.0
47.0,-207.0,-242.0,-164.0,24.0,37.0,14.0,57.0,80.0,86.0,0.0
-24.0,-298.0,-191.0,-139.0,54.0,31.0,-1.0,22.0,41.0,30.0,0.0
-35.0,-342.0,-229.0,-39.0,44.0,25.0,-9.0,11.0,50.0,20.0,0.0
-12.0,-257.0,-112.0,264.0,44.0,13.0,7.0,-5.0,42.0,19.0,0.0
31.0,109.0,136.0,515.0,52.0,0.0,79.0,-25.0,37.0,35.0,0.0
59.0,425.0,217.0,436.0,23.0,-22.0,131.0,-50.0,14.0,26.0,0.0
29.0,396.0,217.0,216.0,31.0,-22.0,140.0,-64.0,-24.0,2.0,0.0
-6.0,190.0,140.0,61.0,95.0,-15.0,151.0,-62.0,-24.0,-10.0,0.0
-6.0,73.0,81.0,-56.0,116.0,13.0,188.0,-27.0,12.0,20.0,0.0
-2.0,13.0,2.0,-148.0,65.0,40.0,232.0,12.0,30.0,39.0,0.0
1.0,8.0,-14.0,-168.0,8.0,43.0,260.0,11.0,32.0,27.0,0.0
15.0,110.0,55.0,-176.0,-55.0,-3.0,280.0,-25.0,1.0,1.0,0.0
12.0,144.0,75.0,-110.0,-37.0,-7.0,295.0,-32.0,-26.0,-41.0,0.0
4.0,88.0,55.0,-43.0,-5.0,22.0,310.0,-22.0,-18.0,-62.0,0.0
2.0,54.0,52.0,-12.0,-6.0,15.0,325.0,-25.0,1.0,-71.0,0.0
-3.0,36.0,51.0,7.0,3.0,-2.0,313.0,-21.0,21.0,-76.0,0.0
0.0,19.0,42.0,3.0,-3.0,-11.0,310.0,-25.0,23.0,-85.0,0.0
-16.0,2.0,51.0,16.0,0.0,0.0,302.0,-15.0,14.0,-90.0,0.0
-11.0,-9.0,47.0,21.0,12.0,3.0,292.0,-14.0,21.0,-79.0,0.0
-5.0,-20.0,115.0,34.0,13.0,9.0,281.0,-15.0,0.0,-68.0,0.0
-30.0,-10.0,312.0,90.0,19.0,13.0,279.0,-44.0,-26.0,-84.0,0.0
-53.0,15.0,335.0,119.0,34.0,32.0,282.0,-51.0,-46.0,-101.0,0.0
-49.0,20.0,217.0,110.0,27.0,31.0,287.0,-53.0,-55.0,-103.0,0.0
-37.0,-8.0,-13.0,73.0,26.0,15.0,293.0,-64.0,-53.0,-111.0,0.0
-54.0,-20.0,-121.0,46.0,44.0,28.0,310.0,-63.0,-52.0,-95.0,0.0
-30.0,-8.0,-80.0,18.0,44.0,42.0,343.0,-38.0,-15.0,-65.0,0.0
-5.0,-24.0,-84.0,3.0,13.0,36.0,353.0,-15.0,30.0,-40.0,0.0
0.0,-39.0,-119.0,-17.0,-25.0,29.0,346.0,-6.0,60.0,-35.0,0.0
31.0,-24.0,-175.0,-27.0,-56.0,14.0,338.0,3.0,49.0,-21.0,0.0
76.0,-33.0,-265.0,-66.0,-70.0,35.0,321.0,44.0,66.0,21.0,0.0
84.0,-52.0,-255.0,-105.0,-81.0,31.0,305.0,64.0,70.0,23.0,0.0
58.0,-31.0,-159.0,-66.0,-71.0,6.0,249.0,34.0,39.0,-3.0,0.0
30.0,-26.0,-87.0,-27.0,-47.0,-7.0,181.0,8.0,10.0,-24.0,0.0
25.0,-47.0,-41.0,-9.0,-34.0,-7.0,125.0,-2.0,-16.0,-13.0,0.0
23.0,-70.0,-52.0,-13.0,-40.0,-1.0,86.0,0.0,-33.0,0.0,0.0
8.0,-78.0,-59.0,-23.0,-36.0,-5.0,73.0,-2.0,-24.0,7.0,0.0
22.0,-39.0,-16.0,-12.0,-19.0,-16.0,77.0,-10.0,-23.0,-17.0,0.0
38.0,50.0,103.0,-5.0,0.0,-17.0,95.0,-32.0,-16.0,-32.0,0.0
54.0,110.0,139.0,-40.0,9.0,-2.0,117.0,-34.0,12.0,-20.0,0.0
33.0,71.0,113.0,-83.0,-5.0,13.0,101.0,-31.0,10.0,-47.0,0.0
9.0,32.0,91.0,-121.0,-35.0,16.0,83.0,-37.0,-11.0,-67.0,0.0
-1.0,-1.0,66.0,-160.0,-45.0,3.0,60.0,-37.0,-21.0,-44.0,0.0
-17.0,-45.0,52.0,-199.0,-52.0,-15.0,60.0,-29.0,-24.0,-36.0,0.0
-24.0,-75.0,-9.0,-212.0,-19.0,-16.0,78.0,-13.0,-19.0,-39.0,0.0
-24.0,-83.0,-33.0,-130.0,5.0,-23.0,99.0,9.0,0.0,-19.0,0.0
-18.0,-66.0,-21.0,106.0,-1.0,-2.0,115.0,44.0,36.0,13.0,0.0
5.0,-87.0,-59.0,348.0,79.0,93.0,146.0,92.0,82.0,46.0,0.0
-14.0,-120.0,-63.0,302.0,140.0,114.0,121.0,72.0,80.0,40.0,0.0
-43.0,-96.0,0.0,181.0,141.0,70.0,79.0,26.0,66.0,9.0,0.0
-37.0,-63.0,29.0,136.0,125.0,62.0,69.0,12.0,70.0,5.0,0.0
-17.0,-84.0,18.0,139.0,117.0,37.0,45.0,17.0,81.0,14.0,0.0
-16.0,-140.0,-31.0,140.0,103.0,43.0,8.0,42.0,99.0,11.0,0.0
-16.0,-131.0,-103.0,144.0,56.0,38.0,-1.0,39.0,58.0,-6.0,0.0
38.0,69.0,-151.0,177.0,-1.0,30.0,1.0,25.0,5.0,-22.0,0.0
55.0,231.0,-35.0,151.0,-44.0,-1.0,11.0,10.0,-36.0,-13.0,0.0
28.0,200.0,25.0,6.0,-79.0,-31.0,19.0,-16.0,-56.0,-23.0,0.0
23.0,115.0,-19.0,-176.0,-118.0,-43.0,1.0,-9.0,-31.0,-23.0,0.0
7.0,51.0,-16.0,-206.0,-122.0,-34.0,-5.0,0.0,-32.0,-39.0,0.0
-25.0,25.0,51.0,-45.0,-104.0,-41.0,5.0,-33.0,-70.0,-67.0,0.0
-16.0,43.0,101.0,20.0,-98.0,-31.0,41.0,-32.0,-55.0,-58.0,0.0
-2.0,68.0,87.0,-24.0,-110.0,-31.0,76.0,-29.0,-25.0,-31.0,0.0
-3.0,80.0,114.0,19.0,-58.0,-22.0,98.0,-35.0,-4.0,-18.0,0.0
-2.0,71.0,117.0,75.0,-11.0,-9.0,72.0,-27.0,7.0,-18.0,0.0
-13.0,22.0,62.0,76.0,1.0,-4.0,33.0,-23.0,-8.0,-16.0,0.0
-27.0,-28.0,6.0,53.0,-2.0,-14.0,-9.0,-17.0,-4.0,-11.0,0.0
-43.0,-63.0,-29.0,-9.0,-17.0,-22.0,-68.0,-21.0,-15.0,-12.0,0.0
-39.0,-94.0,-27.0,-68.0,-39.0,-38.0,-85.0,-25.0,-36.0,-14.0,0.0
-23.0,-96.0,-23.0,-102.0,-10.0,-40.0,-114.0,-24.0,-39.0,-16.0,0.0
-1.0,-70.0,-15.0,-57.0,42.0,-13.0,-151.0,-45.0,-80.0,-34.0,0.0
-6.0,-23.0,44.0,33.0,74.0,-5.0,-156.0,-49.0,-85.0,-61.0,0.0
-25.0,12.0,107.0,112.0,83.0,0.0,-140.0,-34.0,-79.0,-70.0,0.0
-5.0,56.0,103.0,118.0,24.0,2.0,-114.0,-13.0,-46.0,-50.0,0.0
14.0,113.0,84.0,23.0,-50.0,2.0,-86.0,1.0,-12.0,-18.0,0.0
21.0,87.0,54.0,-89.0,-88.0,-12.0,-61.0,-7.0,-4.0,-23.0,0.0
23.0,34.0,-32.0,-125.0,-89.0,-32.0,-75.0,-11.0,-1.0,-27.0,0.0
12.0,0.0,-62.0,-88.0,-61.0,-17.0,-77.0,17.0,10.0,-34.0,0.0
-4.0,-5.0,15.0,-53.0,-30.0,-3.0,-68.0,29.0,-20.0,-40.0,0.0
-2.0,-2.0,29.0,-34.0,-9.0,-5.0,-45.0,26.0,-44.0,-33.0,0.0
4.0,1.0,3.0,-51.0,-18.0,-6.0,-58.0,31.0,-37.0,-25.0,0.0
3.0,-19.0,-33.0,-47.0,-39.0,-4.0,-54.0,31.0,-29.0,-17.0,0.0
-1.0,-49.0,-69.0,-37.0,-26.0,-10.0,-50.0,34.0,-17.0,-12.0,0.0
-10.0,-43.0,-89.0,129.0,-1.0,-14.0,-87.0,25.0,-11.0,-12.0,0.0
-9.0,-20.0,-54.0,382.0,29.0,-10.0,-85.0,21.0,-9.0,-15.0,0.0
-31.0,-43.0,-51.0,223.0,20.0,-2.0,-95.0,11.0,-16.0,-26.0,0.0
-51.0,-61.0,-59.0,43.0,31.0,-3.0,-114.0,3.0,6.0,-28.0,0.0
-50.0,-51.0,-22.0,19.0,91.0,26.0,-109.0,5.0,32.0,-19.0,0.0
-31.0,-29.0,-12.0,-48.0,113.0,32.0,-82.0,18.0,60.0,3.0,0.0
-11.0,-9.0,-32.0,-121.0,84.0,28.0,-35.0,26.0,56.0,21.0,0.0
-24.0,-22.0,-40.0,-88.0,78.0,25.0,-13.0,15.0,22.0,2.0,0.0
-30.0,-29.0,-37.0,-110.0,63.0,8.0,14.0,21.0,0.0,-11.0,0.0
-20.0,-7.0,-38.0,-163.0,20.0,-20.0,44.0,9.0,-21.0,-19.0,0.0
-22.0,12.0,-59.0,-222.0,-11.0,-18.0,75.0,8.0,-32.0,-4.0,0.0
-1.0,30.0,-54.0,-248.0,-54.0,0.0,128.0,40.0,-12.0,31.0,0.0
2.0,57.0,28.0,-91.0,-34.0,-13.0,183.0,28.0,-23.0,23.0,0.0
7.0,108.0,216.0,75.0,-16.0,-34.0,222.0,-15.0,-55.0,-1.0,0.0
-5.0,100.0,251.0,86.0,-10.0,-32.0,256.0,-32.0,-29.0,11.0,0.0
-6.0,87.0,129.0,9.0,-22.0,-19.0,285.0,-10.0,18.0,53.0,0.0
11.0,50.0,10.0,-45.0,-29.0,-5.0,319.0,-8.0,54.0,92.0,0.0
18.0,-2.0,-118.0,-56.0,-22.0,12.0,353.0,7.0,53.0,136.0,0.0
30.0,-40.0,-245.0,-60.0,-13.0,28.0,356.0,28.0,68.0,190.0,0.0
44.0,-82.0,-228.0,-50.0,10.0,32.0,329.0,48.0,75.0,230.0,0.0
47.0,-111.0,-134.0,-48.0,5.0,14.0,316.0,33.0,51.0,240.0,0.0
48.0,-34.0,-18.0,-18.0,6.0,-14.0,311.0,-12.0,10.0,222.0,0.0
40.0,129.0,246.0,60.0,29.0,-26.0,311.0,-54.0,-48.0,201.0,0.0
12.0,199.0,412.0,124.0,65.0,-22.0,316.0,-68.0,-65.0,192.0,0.0
-28.0,107.0,319.0,193.0,107.0,0.0,342.0,-50.0,-45.0,198.0,0.0
-57.0,43.0,113.0,247.0,149.0,15.0,364.0,-37.0,-1.0,201.0,0.0
-55.0,0.0,-79.0,228.0,143.0,17.0,366.0,-45.0,2.0,208.0,0.0
-41.0,-9.0,-76.0,194.0,112.0,20.0,379.0,-38.0,0.0,229.0,0.0
-55.0,-36.0,-56.0,122.0,79.0,3.0,385.0,-36.0,-17.0,236.0,0.0
-50.0,-62.0,-156.0,-15.0,10.0,-12.0,364.0,-32.0,-22.0,285.0,0.0
38.0,1.0,-190.0,-126.0,-70.0,-41.0,350.0,-23.0,11.0,328.0,0.0
118.0,85.0,-96.0,-150.0,-112.0,-55.0,343.0,0.0,39.0,379.0,0.0
107.0,94.0,-32.0,-134.0,-93.0,-40.0,350.0,18.0,27.0,403.0,0.0
75.0,50.0,-51.0,-142.0,-76.0,-25.0,301.0,12.0,19.0,381.0,0.0
14.0,-5.0,-113.0,-138.0,-43.0,-12.0,243.0,6.0,7.0,376.0,0.0
12.0,-18.0,-162.0,-172.0,-5.0,4.0,223.0,26.0,25.0,399.0,0.0
36.0,4.0,-134.0,-168.0,9.0,31.0,197.0,27.0,27.0,382.0,0.0
56.0,39.0,-86.0,-160.0,-5.0,38.0,181.0,21.0,36.0,373.0,0.0
58.0,47.0,-49.0,-134.0,-8.0,36.0,200.0,26.0,61.0,378.0,0.0
36.0,41.0,-42.0,-97.0,-23.0,26.0,209.0,21.0,63.0,363.0,0.0
0.0,21.0,-13.0,-84.0,-44.0,4.0,228.0,-2.0,50.0,338.0,0.0
-25.0,-23.0,-25.0,-43.0,-14.0,2.0,250.0,-16.0,24.0,310.0,0.0
-33.0,-66.0,-116.0,2.0,20.0,37.0,264.0,6.0,12.0,312.0,0.0
-39.0,-88.0,-174.0,30.0,35.0,57.0,264.0,30.0,14.0,331.0,0.0
-39.0,-85.0,-106.0,117.0,56.0,56.0,287.0,16.0,-4.0,316.0,0.0
-11.0,-52.0,-100.0,99.0,16.0,43.0,333.0,-3.0,-12.0,317.0,0.0
-2.0,-19.0,-77.0,23.0,-23.0,25.0,364.0,-6.0,-13.0,301.0,0.0
-23.0,-7.0,-15.0,19.0,-10.0,23.0,353.0,-13.0,-16.0,293.0,0.0
-35.0,16.0,-53.0,14.0,-6.0,26.0,381.0,-8.0,-11.0,304.0,0.0
-39.0,66.0,45.0,-8.0,-28.0,30.0,407.0,-1.0,21.0,314.0,0.0
-20.0,129.0,98.0,-27.0,-66.0,18.0,420.0,-10.0,63.0,315.0,0.0
0.0,119.0,104.0,-5.0,-72.0,2.0,431.0,-7.0,40.0,286.0,0.0
-11.0,60.0,93.0,16.0,-44.0,1.0,434.0,2.0,23.0,264.0,0.0
-26.0,12.0,59.0,28.0,-14.0,11.0,437.0,10.0,19.0,248.0,0.0
-31.0,-22.0,58.0,31.0,-11.0,17.0,450.0,13.0,1.0,229.0,0.0
-41.0,-36.0,67.0,32.0,-9.0,14.0,491.0,4.0,-18.0,205.0,0.0
-47.0,-13.0,97.0,60.0,-8.0,11.0,534.0,-7.0,-38.0,177.0,0.0
-50.0,-11.0,130.0,59.0,-8.0,-1.0,577.0,-18.0,-45.0,158.0,0.0
-55.0,-16.0,173.0,35.0,-24.0,-21.0,608.0,-22.0,-47.0,130.0,0.0
-39.0,-7.0,133.0,22.0,-34.0,-33.0,631.0,-27.0,-29.0,111.0,0.0
-19.0,-4.0,43.0,18.0,-20.0,-30.0,644.0,-27.0,0.0,93.0,0.0
-9.0,14.0,-13.0,23.0,-3.0,-5.0,640.0,-21.0,19.0,86.0,0.0
-6.0,19.0,-26.0,42.0,-11.0,-6.0,648.0,-17.0,21.0,75.0,0.0
-18.0,0.0,-29.0,35.0,-17.0,-7.0,640.0,-11.0,4.0,67.0,0.0
-24.0,-9.0,-6.0,38.0,-13.0,-16.0,615.0,-7.0,2.0,46.0,0.0
-37.0,-4.0,28.0,43.0,1.0,-18.0,589.0,-11.0,3.0,49.0,0.0
-47.0,-26.0,12.0,21.0,-8.0,-14.0,539.0,-5.0,-6.0,50.0,0.0
-33.0,-33.0,-42.0,-29.0,-26.0,-6.0,469.0,7.0,-6.0,50.0,0.0
-39.0,-42.0,-57.0,-61.0,-25.0,-11.0,419.0,0.0,-3.0,29.0,0.0
-53.0,-43.0,-49.0,-75.0,-11.0,-4.0,361.0,-3.0,-14.0,17.0,0.0
-44.0,-14.0,-34.0,-57.0,15.0,6.0,327.0,17.0,-9.0,11.0,0.0
-25.0,11.0,-21.0,14.0,73.0,18.0,328.0,24.0,18.0,-10.0,0.0
-26.0,25.0,4.0,179.0,123.0,30.0,317.0,14.0,37.0,-55.0,0.0
-22.0,49.0,67.0,280.0,135.0,31.0,308.0,-6.0,34.0,-78.0,0.0
-8.0,53.0,85.0,188.0,108.0,25.0,290.0,4.0,34.0,-76.0,0.0
-29.0,0.0,48.0,62.0,60.0,21.0,258.0,23.0,12.0,-66.0,0.0
-20.0,-27.0,29.0,-101.0,-3.0,21.0,254.0,37.0,7.0,-40.0,0.0
33.0,-29.0,-22.0,-299.0,-70.0,15.0,260.0,60.0,38.0,0.0,0.0
50.0,-30.0,-72.0,-396.0,-130.0,-18.0,280.0,44.0,30.0,15.0,0.0
37.0,-36.0,-77.0,-280.0,-103.0,-50.0,277.0,20.0,-3.0,0.0,0.0
45.0,-27.0,-32.0,-92.0,-60.0,-61.0,277.0,12.0,-25.0,-6.0,0.0
32.0,-18.0,-26.0,27.0,-25.0,-60.0,271.0,8.0,-16.0,-3.0,0.0
0.0,-18.0,-54.0,58.0,0.0,-59.0,243.0,-15.0,-4.0,-36.0,0.0
-17.0,-4.0,-25.0,42.0,-20.0,-79.0,227.0,-34.0,2.0,-57.0,0.0
-15.0,35.0,40.0,5.0,-58.0,-69.0,212.0,-45.0,2.0,-50.0,0.0
1.0,56.0,40.0,138.0,-48.0,-41.0,193.0,-21.0,3.0,-40.0,0.0
5.0,37.0,0.0,206.0,-35.0,-19.0,189.0,-7.0,7.0,-43.0,0.0
-10.0,-5.0,-30.0,87.0,-39.0,-21.0,192.0,-19.0,-8.0,-50.0,0.0
-19.0,-20.0,38.0,33.0,-27.0,-26.0,210.0,-28.0,-43.0,-50.0,0.0
-9.0,-13.0,139.0,51.0,10.0,-27.0,229.0,-59.0,-65.0,-72.0,0.0
-22.0,29.0,374.0,84.0,55.0,-21.0,255.0,-52.0,-43.0,-88.0,0.0
-33.0,26.0,527.0,97.0,69.0,-2.0,271.0,-29.0,-5.0,-70.0,0.0
-41.0,-15.0,366.0,122.0,15.0,-21.0,264.0,-38.0,-44.0,-64.0,0.0
-48.0,-31.0,129.0,104.0,-28.0,-68.0,263.0,-60.0,-51.0,-73.0,0.0
-53.0,-50.0,-162.0,25.0,-31.0,-66.0,297.0,-33.0,1.0,-56.0,0.0
-1.0,-8.0,-271.0,-23.0,0.0,-1.0,353.0,32.0,62.0,-10.0,0.0
53.0,13.0,-296.0,-66.0,12.0,34.0,361.0,90.0,106.0,9.0,0.0
37.0,-33.0,-289.0,-93.0,18.0,46.0,336.0,100.0,105.0,-12.0,0.0
-2.0,-77.0,-219.0,-60.0,17.0,31.0,291.0,66.0,60.0,-40.0,0.0
-26.0,-51.0,-130.0,-3.0,10.0,5.0,280.0,29.0,2.0,-81.0,0.0
-8.0,22.0,-37.0,37.0,-9.0,-14.0,246.0,0.0,-42.0,-105.0,0.0
1.0,18.0,-25.0,43.0,-11.0,-1.0,213.0,-3.0,-44.0,-108.0,0.0
-4.0,-34.0,-63.0,11.0,-1.0,20.0,168.0,5.0,-26.0,-105.0,0.0
-18.0,-52.0,-55.0,-9.0,6.0,38.0,144.0,11.0,-5.0,-100.0,0.0
-13.0,-29.0,0.0,6.0,6.0,23.0,127.0,6.0,23.0,-112.0,0.0
6.0,-16.0,35.0,9.0,1.0,28.0,135.0,11.0,71.0,-113.0,0.0
-1.0,-13.0,66.0,1.0,-10.0,35.0,150.0,15.0,58.0,-125.0,0.0
-9.0,-2.0,123.0,8.0,-27.0,19.0,148.0,3.0,39.0,-155.0,0.0
-10.0,-20.0,116.0,15.0,-38.0,3.0,137.0,11.0,38.0,-164.0,0.0
-26.0,-51.0,83.0,23.0,-38.0,-3.0,135.0,26.0,29.0,-169.0,0.0
-46.0,-97.0,70.0,22.0,-20.0,-6.0,135.0,17.0,4.0,-186.0,0.0
-50.0,-147.0,25.0,6.0,-20.0,-28.0,139.0,13.0,-17.0,-200.0,0.0
6.0,-55.0,-17.0,-42.0,-58.0,-24.0,192.0,9.0,-18.0,-179.0,0.0
58.0,118.0,-79.0,-106.0,-74.0,-5.0,214.0,30.0,-3.0,-156.0,0.0
77.0,144.0,-116.0,-117.0,-71.0,7.0,199.0,34.0,-10.0,-148.0,0.0
69.0,79.0,-66.0,-62.0,-54.0,4.0,197.0,14.0,-16.0,-142.0,0.0
43.0,15.0,-43.0,24.0,-6.0,11.0,186.0,-2.0,-4.0,-150.0,0.0
22.0,-18.0,-21.0,108.0,68.0,32.0,167.0,7.0,18.0,-155.0,0.0
1.0,-1.0,-33.0,143.0,145.0,40.0,133.0,-2.0,11.0,-177.0,0.0
-16.0,96.0,-86.0,98.0,117.0,10.0,119.0,-35.0,-31.0,-204.0,0.0
-35.0,99.0,-26.0,71.0,49.0,-19.0,106.0,-39.0,-46.0,-210.0,0.0
-13.0,34.0,19.0,34.0,17.0,0.0,133.0,-2.0,-32.0,-190.0,0.0
27.0,20.0,-29.0,-78.0,-74.0,12.0,177.0,31.0,-12.0,-157.0,0.0
38.0,25.0,13.0,-146.0,-155.0,-2.0,225.0,24.0,-5.0,-168.0,0.0
31.0,13.0,65.0,-124.0,-140.0,-15.0,273.0,15.0,-20.0,-195.0,0.0
14.0,-17.0,70.0,-59.0,-63.0,-4.0,289.0,21.0,-29.0,-206.0,0.0
9.0,-55.0,41.0,-28.0,-14.0,8.0,306.0,20.0,-19.0,-223.0,0.0
20.0,-68.0,29.0,-10.0,-1.0,27.0,367.0,8.0,4.0,-235.0,0.0
52.0,0.0,32.0,-6.0,-27.0,13.0,426.0,5.0,8.0,-232.0,0.0
74.0,176.0,76.0,-13.0,-49.0,-30.0,473.0,-10.0,36.0,-237.0,0.0
49.0,179.0,86.0,8.0,-43.0,-39.0,478.0,-11.0,12.0,-226.0,0.0
22.0,70.0,75.0,11.0,-14.0,-17.0,469.0,-10.0,-15.0,-226.0,0.0
20.0,3.0,67.0,-5.0,-2.0,8.0,441.0,-6.0,-19.0,-218.0,0.0
12.0,-28.0,23.0,-26.0,2.0,16.0,412.0,4.0,-19.0,-220.0,0.0
20.0,-35.0,-16.0,-54.0,-8.0,4.0,385.0,11.0,-34.0,-214.0,0.0
41.0,-27.0,-32.0,-81.0,-24.0,-3.0,390.0,6.0,-22.0,-203.0,0.0
45.0,-35.0,-40.0,-91.0,-18.0,-1.0,378.0,3.0,-12.0,-194.0,0.0
35.0,-26.0,-29.0,-59.0,-15.0,-2.0,362.0,3.0,-10.0,-194.0,0.0
26.0,-8.0,2.0,-24.0,12.0,2.0,387.0,0.0,0.0,-201.0,0.0
19.0,0.0,15.0,-10.0,13.0,8.0,396.0,3.0,24.0,-190.0,0.0
28.0,5.0,-29.0,10.0,-1.0,0.0,419.0,6.0,39.0,-185.0,0.0
45.0,1.0,23.0,4.0,-5.0,-2.0,411.0,6.0,39.0,-178.0,0.0
34.0,-12.0,49.0,24.0,14.0,5.0,396.0,-2.0,28.0,-169.0,0.0
11.0,-23.0,-7.0,100.0,48.0,26.0,384.0,-1.0,14.0,-170.0,0.0
12.0,-37.0,-1.0,97.0,50.0,28.0,372.0,-3.0,-22.0,-179.0,0.0
5.0,-62.0,-19.0,27.0,39.0,23.0,364.0,5.0,-23.0,-178.0,0.0
5.0,-73.0,-79.0,-16.0,37.0,21.0,335.0,14.0,-7.0,-163.0,0.0
5.0,-55.0,-50.0,-11.0,44.0,0.0,311.0,-2.0,-28.0,-146.0,0.0
-14.0,-42.0,25.0,30.0,57.0,0.0,286.0,-33.0,-56.0,-148.0,0.0
-46.0,-37.0,97.0,90.0,75.0,13.0,248.0,-27.0,-46.0,-164.0,0.0
-61.0,-29.0,177.0,201.0,87.0,15.0,203.0,-27.0,-33.0,-164.0,0.0
-56.0,17.0,295.0,333.0,77.0,4.0,195.0,-32.0,-9.0,-157.0,0.0
-38.0,49.0,231.0,270.0,44.0,-5.0,172.0,-32.0,20.0,-138.0,0.0
1.0,54.0,15.0,63.0,1.0,-1.0,134.0,-4.0,57.0,-109.0,0.0
51.0,55.0,-103.0,-105.0,-40.0,8.0,129.0,24.0,72.0,-87.0,0.0
68.0,17.0,-161.0,-213.0,-66.0,-1.0,150.0,21.0,37.0,-78.0,0.0
75.0,10.0,-165.0,-227.0,-68.0,-4.0,144.0,15.0,30.0,-70.0,0.0
68.0,17.0,-155.0,-170.0,-40.0,22.0,140.0,28.0,32.0,-70.0,0.0
37.0,-12.0,-106.0,-116.0,-5.0,29.0,140.0,32.0,20.0,-94.0,0.0
2.0,-51.0,43.0,-34.0,21.0,32.0,109.0,15.0,-1.0,-129.0,0.0
-28.0,-61.0,288.0,55.0,25.0,9.0,121.0,6.0,-19.0,-168.0,0.0
-38.0,-33.0,360.0,87.0,-8.0,-1.0,138.0,-1.0,5.0,-168.0,0.0
-30.0,-9.0,163.0,3.0,-68.0,-12.0,133.0,9.0,39.0,-155.0,0.0
-8.0,-36.0,-178.0,-124.0,-109.0,-13.0,128.0,27.0,55.0,-133.0,0.0
12.0,-29.0,-304.0,-136.0,-78.0,-10.0,130.0,16.0,42.0,-134.0,0.0
18.0,8.0,-201.0,0.0,42.0,7.0,122.0,-9.0,13.0,-154.0,0.0
-7.0,14.0,-81.0,101.0,161.0,32.0,74.0,-26.0,-43.0,-196.0,0.0
-26.0,-36.0,-100.0,157.0,205.0,38.0,-7.0,-28.0,-61.0,-220.0,0.0
-33.0,-76.0,-132.0,245.0,159.0,49.0,-67.0,-15.0,-47.0,-227.0,0.0
-29.0,-83.0,-102.0,364.0,81.0,38.0,-93.0,-4.0,-37.0,-205.0,0.0
4.0,-25.0,-35.0,251.0,0.0,14.0,-98.0,16.0,-20.0,-157.0,0.0
47.0,80.0,-5.0,-117.0,-137.0,-40.0,-78.0,10.0,6.0,-122.0,0.0
36.0,105.0,-27.0,-351.0,-217.0,-70.0,-62.0,-16.0,21.0,-121.0,0.0
14.0,31.0,-94.0,-322.0,-162.0,-54.0,-52.0,-12.0,55.0,-129.0,0.0
21.0,-21.0,-181.0,-78.0,-58.0,8.0,-39.0,18.0,75.0,-114.0,0.0
17.0,-22.0,-113.0,61.0,-25.0,47.0,-46.0,42.0,75.0,-100.0,0.0
19.0,-2.0,-42.0,-27.0,-65.0,25.0,-50.0,34.0,60.0,-82.0,0.0
15.0,0.0,-12.0,-115.0,-105.0,-1.0,-42.0,15.0,39.0,-38.0,0.0
12.0,3.0,19.0,-93.0,-78.0,-15.0,-53.0,2.0,45.0,-72.0,0.0
17.0,0.0,14.0,-115.0,-63.0,-16.0,-55.0,-2.0,22.0,-96.0,0.0
22.0,-1.0,3.0,-150.0,-60.0,-7.0,-70.0,5.0,2.0,-86.0,0.0
13.0,11.0,13.0,-102.0,-46.0,-4.0,-93.0,5.0,-16.0,-102.0,0.0
-3.0,20.0,37.0,-7.0,-2.0,-10.0,-115.0,0.0,-27.0,-121.0,0.0
-14.0,-4.0,61.0,71.0,30.0,-16.0,-134.0,-5.0,-37.0,-143.0,0.0
-12.0,-22.0,43.0,107.0,49.0,-6.0,-164.0,-20.0,-39.0,-150.0,0.0
-23.0,-25.0,-67.0,40.0,48.0,3.0,-175.0,-20.0,-7.0,-137.0,0.0
-31.0,-50.0,-179.0,-30.0,33.0,5.0,-171.0,-11.0,19.0,-122.0,0.0
-43.0,-69.0,-139.0,-33.0,15.0,21.0,-200.0,-2.0,26.0,-120.0,0.0
-38.0,-44.0,19.0,-3.0,-13.0,19.0,-181.0,-8.0,15.0,-126.0,0.0
-34.0,2.0,127.0,-15.0,-47.0,27.0,-156.0,-15.0,4.0,-120.0,0.0
-15.0,3.0,42.0,-63.0,-88.0,25.0,-142.0,-8.0,0.0,-87.0,0.0
13.0,17.0,-66.0,-69.0,-61.0,19.0,-138.0,5.0,-8.0,-68.0,0.0
18.0,31.0,-38.0,-55.0,-11.0,15.0,-143.0,14.0,-6.0,-60.0,0.0
12.0,12.0,-48.0,6.0,-10.0,-1.0,-148.0,-3.0,-30.0,-75.0,0.0
0.0,-22.0,-5.0,51.0,3.0,2.0,-121.0,-14.0,-36.0,-94.0,0.0
-22.0,-77.0,-54.0,81.0,27.0,35.0,-101.0,7.0,-12.0,-83.0,0.0
-32.0,-96.0,-89.0,84.0,46.0,58.0,-93.0,25.0,23.0,-53.0,0.0
-18.0,-84.0,-86.0,47.0,40.0,59.0,-70.0,26.0,56.0,-30.0,0.0
2.0,-82.0,-91.0,11.0,47.0,49.0,-72.0,30.0,62.0,-42.0,0.0
-20.0,-105.0,-80.0,19.0,60.0,53.0,-102.0,19.0,39.0,-72.0,0.0
-43.0,-105.0,-5.0,10.0,53.0,22.0,-140.0,1.0,22.0,-98.0,0.0
-47.0,-60.0,145.0,15.0,29.0,0.0,-183.0,-21.0,-5.0,-124.0,0.0
-37.0,5.0,109.0,12.0,20.0,-17.0,-226.0,-42.0,-57.0,-152.0,0.0
-5.0,154.0,56.0,15.0,31.0,-21.0,-237.0,-50.0,-92.0,-161.0,0.0
2.0,245.0,47.0,42.0,41.0,-15.0,-234.0,-54.0,-98.0,-143.0,0.0
-23.0,152.0,-45.0,19.0,40.0,-17.0,-204.0,-34.0,-91.0,-145.0,0.0
-27.0,70.0,-143.0,-36.0,21.0,-11.0,-169.0,-12.0,-74.0,-131.0,0.0
-11.0,18.0,-183.0,-79.0,2.0,-5.0,-142.0,15.0,-38.0,-101.0,0.0
16.0,-2.0,-190.0,-87.0,10.0,1.0,-117.0,38.0,22.0,-74.0,0.0
36.0,21.0,-116.0,-113.0,-11.0,3.0,-93.0,48.0,69.0,-59.0,0.0
40.0,30.0,-1.0,-109.0,-43.0,-21.0,-90.0,25.0,40.0,-62.0,0.0
39.0,52.0,54.0,-55.0,-29.0,-11.0,-80.0,1.0,38.0,-71.0,0.0
27.0,54.0,71.0,-37.0,-11.0,9.0,-98.0,3.0,38.0,-82.0,0.0
17.0,34.0,71.0,-34.0,-4.0,22.0,-111.0,3.0,3.0,-80.0,0.0
18.0,21.0,75.0,-9.0,19.0,17.0,-103.0,2.0,-14.0,-82.0,0.0
8.0,8.0,78.0,-16.0,25.0,28.0,-116.0,6.0,-19.0,-87.0,0.0
10.0,0.0,89.0,-20.0,14.0,18.0,-158.0,-3.0,-25.0,-80.0,0.0
2.0,15.0,69.0,-17.0,11.0,2.0,-172.0,-17.0,-44.0,-88.0,0.0
-3.0,37.0,60.0,-8.0,16.0,7.0,-173.0,-18.0,-36.0,-98.0,0.0
-22.0,16.0,82.0,4.0,15.0,8.0,-174.0,-17.0,-25.0,-106.0,0.0
-36.0,8.0,47.0,17.0,-3.0,4.0,-160.0,-24.0,-23.0,-110.0,0.0
-39.0,16.0,-48.0,18.0,0.0,10.0,-147.0,-29.0,-6.0,-117.0,0.0
-32.0,10.0,-64.0,15.0,-8.0,22.0,-135.0,-16.0,23.0,-107.0,0.0
-25.0,0.0,38.0,7.0,-29.0,11.0,-105.0,8.0,41.0,-90.0,0.0
-12.0,-8.0,76.0,62.0,-1.0,4.0,-100.0,12.0,20.0,-106.0,0.0
-19.0,-7.0,73.0,137.0,53.0,2.0,-113.0,8.0,-7.0,-109.0,0.0
-29.0,-19.0,23.0,120.0,50.0,4.0,-110.0,2.0,-19.0,-104.0,0.0
-29.0,-25.0,40.0,69.0,34.0,0.0,-78.0,-6.0,-25.0,-133.0,0.0
-24.0,-16.0,68.0,54.0,26.0,-18.0,-87.0,-22.0,-50.0,-180.0,0.0
-10.0,7.0,24.0,36.0,14.0,-17.0,-131.0,-38.0,-67.0,-188.0,0.0
4.0,23.0,34.0,-4.0,-14.0,-17.0,-142.0,-14.0,-47.0,-163.0,0.0
3.0,22.0,58.0,-42.0,-40.0,-19.0,-150.0,12.0,-17.0,-147.0,0.0
-16.0,26.0,72.0,-9.0,3.0,-17.0,-156.0,12.0,5.0,-165.0,0.0
-23.0,40.0,115.0,23.0,35.0,-16.0,-206.0,10.0,43.0,-182.0,0.0
-14.0,34.0,108.0,22.0,27.0,0.0,-266.0,8.0,43.0,-183.0,0.0
-7.0,18.0,35.0,5.0,20.0,14.0,-305.0,21.0,37.0,-173.0,0.0
-14.0,8.0,18.0,-2.0,9.0,11.0,-341.0,23.0,23.0,-156.0,0.0
-10.0,-5.0,34.0,2.0,5.0,-5.0,-373.0,15.0,8.0,-149.0,0.0
-2.0,13.0,56.0,21.0,1.0,1.0,-397.0,17.0,-3.0,-169.0,0.0
-8.0,11.0,64.0,9.0,-11.0,14.0,-411.0,14.0,-18.0,-183.0,0.0
-26.0,-7.0,103.0,6.0,-25.0,-8.0,-429.0,-14.0,-48.0,-190.0,0.0
-43.0,-14.0,222.0,62.0,-15.0,-31.0,-439.0,-38.0,-61.0,-196.0,0.0
-47.0,-16.0,347.0,104.0,2.0,-42.0,-447.0,-44.0,-52.0,-194.0,0.0
-58.0,-24.0,301.0,123.0,10.0,-57.0,-435.0,-63.0,-41.0,-124.0,0.0
-47.0,-11.0,-24.0,112.0,41.0,-46.0,-402.0,-55.0,-7.0,-10.0,0.0
-10.0,41.0,-185.0,65.0,38.0,-22.0,-359.0,-20.0,33.0,18.0,0.0
39.0,27.0,-314.0,-42.0,-12.0,10.0,-351.0,28.0,79.0,7.0,0.0
48.0,-58.0,-391.0,-124.0,-26.0,20.0,-377.0,62.0,87.0,18.0,0.0
39.0,-84.0,-193.0,-86.0,4.0,0.0,-428.0,45.0,48.0,3.0,0.0
17.0,-58.0,41.0,-22.0,25.0,-22.0,-473.0,8.0,-11.0,-13.0,0.0
12.0,47.0,29.0,-33.0,13.0,-56.0,-494.0,-26.0,-63.0,-40.0,0.0
1.0,130.0,-58.0,-89.0,-18.0,-72.0,-526.0,-42.0,-70.0,-45.0,0.0
10.0,76.0,-167.0,-102.0,-9.0,-59.0,-520.0,-14.0,-42.0,-10.0,0.0
31.0,-6.0,-229.0,5.0,94.0,33.0,-492.0,50.0,20.0,17.0,0.0
71.0,-36.0,-214.0,-16.0,103.0,82.0,-434.0,76.0,81.0,16.0,0.0
78.0,-4.0,-126.0,-59.0,79.0,56.0,-358.0,56.0,94.0,3.0,0.0
53.0,83.0,-15.0,63.0,119.0,30.0,-303.0,35.0,72.0,-29.0,0.0
40.0,113.0,91.0,233.0,122.0,10.0,-296.0,9.0,47.0,-40.0,0.0
27.0,90.0,107.0,191.0,81.0,-13.0,-320.0,-14.0,0.0,-46.0,0.0
5.0,52.0,46.0,19.0,-7.0,-40.0,-310.0,-7.0,-39.0,-43.0,0.0
0.0,5.0,-18.0,-70.0,-74.0,-48.0,-270.0,-9.0,-31.0,-24.0,0.0
8.0,-16.0,-34.0,0.0,-89.0,-7.0,-214.0,25.0,-13.0,-2.0,0.0
21.0,-27.0,-44.0,-90.0,-138.0,7.0,-176.0,63.0,19.0,35.0,0.0
27.0,-54.0,-118.0,-289.0,-218.0,-5.0,-160.0,76.0,34.0,39.0,0.0
24.0,-65.0,-125.0,-329.0,-200.0,-9.0,-132.0,78.0,46.0,38.0,0.0
2.0,-91.0,-63.0,-173.0,-105.0,6.0,-118.0,59.0,59.0,20.0,0.0
-13.0,-125.0,-34.0,-49.0,-24.0,36.0,-99.0,54.0,79.0,7.0,0.0
-37.0,-115.0,15.0,29.0,-6.0,30.0,-95.0,13.0,41.0,-37.0,0.0
-64.0,-91.0,124.0,50.0,-29.0,-6.0,-118.0,-46.0,-28.0,-86.0,0.0
-50.0,6.0,157.0,46.0,-41.0,-21.0,-121.0,-67.0,-56.0,-89.0,0.0
-42.0,180.0,174.0,42.0,-34.0,-18.0,-112.0,-55.0,-56.0,-68.0,0.0
-38.0,186.0,149.0,8.0,-23.0,-8.0,-99.0,-23.0,-39.0,-49.0,0.0
-26.0,89.0,50.0,-51.0,-37.0,-14.0,-77.0,-26.0,-31.0,-44.0,0.0
-11.0,49.0,61.0,-59.0,-69.0,-39.0,-52.0,-38.0,-54.0,-44.0,0.0
-7.0,94.0,124.0,-8.0,-40.0,-57.0,-25.0,-48.0,-80.0,-37.0,0.0
2.0,105.0,159.0,25.0,-3.0,-41.0,-13.0,-51.0,-73.0,-27.0,0.0
29.0,72.0,150.0,49.0,54.0,-16.0,0.0,-33.0,-47.0,-12.0,0.0
29.0,43.0,104.0,48.0,77.0,2.0,20.0,-11.0,-17.0,3.0,0.0
34.0,13.0,26.0,17.0,40.0,11.0,45.0,6.0,22.0,21.0,0.0
29.0,13.0,-40.0,-12.0,24.0,28.0,63.0,14.0,61.0,50.0,0.0
13.0,18.0,-15.0,16.0,22.0,27.0,42.0,10.0,50.0,31.0,0.0
0.0,11.0,61.0,41.0,42.0,15.0,-1.0,4.0,16.0,2.0,0.0
5.0,21.0,77.0,45.0,50.0,6.0,-58.0,-7.0,18.0,-11.0,0.0
8.0,4.0,21.0,24.0,30.0,-4.0,-93.0,-10.0,-10.0,0.0,0.0
29.0,-32.0,-93.0,-22.0,18.0,10.0,-125.0,4.0,-17.0,20.0,0.0
52.0,-43.0,-94.0,-45.0,11.0,26.0,-141.0,5.0,-10.0,19.0,0.0
53.0,-50.0,-80.0,-25.0,34.0,24.0,-151.0,4.0,1.0,3.0,0.0
32.0,-51.0,-102.0,-10.0,44.0,36.0,-157.0,13.0,13.0,-16.0,0.0
14.0,-56.0,-78.0,-6.0,35.0,43.0,-162.0,23.0,18.0,-43.0,0.0
2.0,-60.0,-27.0,5.0,24.0,41.0,-143.0,32.0,26.0,-47.0,0.0
18.0,-25.0,2.0,16.0,14.0,13.0,-133.0,17.0,49.0,-32.0,0.0
17.0,-14.0,1.0,19.0,18.0,12.0,-134.0,7.0,67.0,-26.0,0.0
8.0,-19.0,-11.0,11.0,30.0,30.0,-156.0,11.0,46.0,-20.0,0.0
0.0,-26.0,-8.0,68.0,15.0,34.0,-183.0,9.0,17.0,-18.0,0.0
-13.0,-36.0,8.0,167.0,22.0,37.0,-181.0,9.0,-5.0,-23.0,0.0
-9.0,0.0,9.0,53.0,28.0,23.0,-180.0,-22.0,-38.0,-69.0,0.0
-28.0,15.0,-7.0,-98.0,39.0,10.0,-186.0,-52.0,-74.0,-98.0,0.0
-30.0,-21.0,-1.0,-153.0,49.0,-2.0,-190.0,-44.0,-69.0,-101.0,0.0
8.0,-19.0,15.0,-150.0,22.0,-3.0,-188.0,-9.0,-32.0,-73.0,0.0
19.0,14.0,67.0,-53.0,7.0,0.0,-204.0,-4.0,-18.0,-59.0,0.0
33.0,66.0,101.0,-8.0,-48.0,-40.0,-199.0,-18.0,0.0,-46.0,0.0
37.0,100.0,114.0,0.0,-59.0,-54.0,-193.0,-12.0,29.0,-39.0,0.0
22.0,88.0,124.0,144.0,45.0,-18.0,-197.0,-21.0,46.0,-45.0,0.0
18.0,41.0,81.0,246.0,104.0,20.0,-196.0,-9.0,49.0,-22.0,0.0
5.0,-13.0,24.0,204.0,73.0,27.0,-176.0,0.0,50.0,-13.0,0.0
-13.0,-54.0,-29.0,170.0,46.0,19.0,-164.0,-4.0,42.0,-19.0,0.0
-15.0,-78.0,-64.0,119.0,31.0,1.0,-150.0,-10.0,7.0,-38.0,0.0
-11.0,-37.0,-7.0,6.0,-23.0,-34.0,-135.0,-18.0,-27.0,-43.0,0.0
-9.0,73.0,17.0,-91.0,-70.0,-72.0,-112.0,-23.0,-55.0,-51.0,0.0
-18.0,116.0,31.0,-73.0,-58.0,-57.0,-66.0,-28.0,-48.0,-58.0,0.0
-19.0,70.0,33.0,-39.0,-38.0,-34.0,-49.0,-13.0,-29.0,-51.0,0.0
-1.0,35.0,14.0,-47.0,-35.0,-10.0,-34.0,6.0,-4.0,-45.0,0.0
13.0,23.0,14.0,-79.0,-63.0,-1.0,-21.0,35.0,44.0,-31.0,0.0
12.0,27.0,64.0,-59.0,-70.0,-19.0,0.0,25.0,72.0,-51.0,0.0
10.0,18.0,77.0,-21.0,-68.0,-20.0,9.0,10.0,40.0,-80.0,0.0
-7.0,-2.0,16.0,17.0,-28.0,-16.0,-16.0,6.0,32.0,-90.0,0.0
-15.0,-4.0,20.0,35.0,26.0,-6.0,-54.0,-3.0,7.0,-89.0,0.0
-14.0,-9.0,31.0,12.0,51.0,-7.0,-90.0,-15.0,-26.0,-88.0,0.0
-14.0,-13.0,31.0,0.0,20.0,-19.0,-135.0,-25.0,-53.0,-89.0,0.0
-18.0,-22.0,-29.0,-18.0,22.0,-8.0,-160.0,-3.0,-34.0,-79.0,0.0
-11.0,-34.0,-110.0,-16.0,57.0,24.0,-178.0,26.0,-12.0,-55.0,0.0
-9.0,-32.0,-68.0,7.0,48.0,35.0,-200.0,21.0,-22.0,-54.0,0.0
-15.0,-28.0,-23.0,46.0,12.0,7.0,-202.0,-10.0,-32.0,-65.0,0.0
0.0,0.0,-23.0,12.0,-19.0,-3.0,-182.0,-4.0,5.0,-29.0,0.0
27.0,33.0,-30.0,-41.0,-73.0,6.0,-165.0,13.0,15.0,-10.0,0.0
14.0,17.0,20.0,-29.0,-52.0,10.0,-156.0,15.0,21.0,-21.0,0.0
1.0,4.0,183.0,33.0,-15.0,14.0,-165.0,6.0,25.0,-18.0,0.0
0.0,1.0,123.0,53.0,-2.0,16.0,-177.0,2.0,5.0,-8.0,0.0
8.0,9.0,-52.0,43.0,5.0,2.0,-179.0,5.0,-29.0,-3.0,0.0
2.0,-21.0,-334.0,-12.0,-4.0,-7.0,-201.0,2.0,-37.0,0.0,0.0
-2.0,-71.0,-489.0,-58.0,0.0,1.0,-247.0,14.0,-23.0,18.0,0.0
2.0,-99.0,-394.0,-46.0,20.0,15.0,-283.0,33.0,-13.0,28.0,0.0
-1.0,-131.0,-238.0,-8.0,42.0,12.0,-321.0,39.0,-21.0,18.0,0.0
-9.0,-144.0,-140.0,3.0,33.0,11.0,-364.0,31.0,-31.0,7.0,0.0
-31.0,-149.0,-42.0,33.0,37.0,7.0,-379.0,28.0,-19.0,23.0,0.0
-17.0,-167.0,-3.0,93.0,61.0,17.0,-381.0,24.0,10.0,41.0,0.0
-7.0,-154.0,2.0,79.0,67.0,43.0,-397.0,18.0,27.0,36.0,0.0
6.0,-75.0,10.0,-1.0,57.0,64.0,-412.0,26.0,60.0,29.0,0.0
20.0,44.0,37.0,-77.0,31.0,47.0,-404.0,25.0,50.0,29.0,0.0
23.0,141.0,48.0,-46.0,26.0,47.0,-393.0,34.0,22.0,26.0,0.0
13.0,111.0,29.0,-25.0,17.0,31.0,-390.0,34.0,2.0,7.0,0.0
-15.0,83.0,74.0,-42.0,-11.0,-8.0,-412.0,-19.0,-55.0,-43.0,0.0
-57.0,100.0,238.0,54.0,77.0,-37.0,-412.0,-74.0,-131.0,-106.0,0.0
-83.0,243.0,453.0,260.0,165.0,-38.0,-385.0,-103.0,-173.0,-141.0,0.0
-69.0,288.0,513.0,695.0,180.0,-51.0,-357.0,-101.0,-159.0,-149.0,0.0
-63.0,146.0,435.0,809.0,143.0,-46.0,-350.0,-77.0,-127.0,-152.0,0.0
-40.0,38.0,218.0,446.0,61.0,-15.0,-378.0,-35.0,-80.0,-114.0,0.0
30.0,29.0,-94.0,-142.0,-110.0,-29.0,-356.0,10.0,25.0,-46.0,0.0
85.0,42.0,-172.0,-647.0,-316.0,-66.0,-347.0,44.0,97.0,14.0,0.0
77.0,51.0,-22.0,-708.0,-327.0,-73.0,-363.0,42.0,105.0,1.0,0.0
57.0,48.0,9.0,-493.0,-224.0,-46.0,-395.0,37.0,97.0,-17.0,0.0
85.0,24.0,-14.0,-229.0,-185.0,-9.0,-432.0,59.0,87.0,-2.0,0.0
83.0,-7.0,-32.0,-45.0,-139.0,18.0,-450.0,66.0,64.0,-7.0,0.0
45.0,-37.0,-103.0,-90.0,-78.0,29.0,-477.0,58.0,41.0,-47.0,0.0
47.0,-50.0,-230.0,-210.0,-46.0,51.0,-481.0,56.0,45.0,-53.0,0.0
56.0,-72.0,-258.0,-248.0,-36.0,42.0,-441.0,42.0,32.0,-73.0,0.0
28.0,-86.0,-184.0,-205.0,-48.0,23.0,-437.0,26.0,2.0,-108.0,0.0
15.0,-57.0,-126.0,-129.0,-42.0,6.0,-444.0,17.0,-11.0,-138.0,0.0
40.0,-29.0,-61.0,-75.0,12.0,0.0,-414.0,16.0,1.0,-133.0,0.0
52.0,-16.0,-29.0,-55.0,52.0,4.0,-382.0,1.0,11.0,-127.0,0.0
55.0,14.0,27.0,-57.0,52.0,7.0,-347.0,2.0,34.0,-121.0,0.0
30.0,56.0,53.0,-38.0,21.0,15.0,-331.0,10.0,53.0,-129.0,0.0
28.0,62.0,49.0,2.0,10.0,25.0,-349.0,16.0,45.0,-123.0,0.0
14.0,8.0,21.0,122.0,5.0,38.0,-385.0,7.0,1.0,-115.0,0.0
7.0,-29.0,-5.0,275.0,4.0,35.0,-404.0,5.0,-1.0,-111.0,0.0
1.0,-44.0,-9.0,144.0,-27.0,4.0,-439.0,3.0,-2.0,-102.0,0.0
-10.0,-56.0,-17.0,-82.0,-67.0,-11.0,-477.0,7.0,-27.0,-100.0,0.0
-23.0,-58.0,-3.0,-133.0,-39.0,-1.0,-517.0,-11.0,-50.0,-102.0,0.0
-19.0,-43.0,-4.0,-111.0,8.0,20.0,-531.0,-17.0,-55.0,-98.0,0.0
-5.0,-32.0,-9.0,-147.0,21.0,35.0,-518.0,-2.0,-40.0,-94.0,0.0
-2.0,-30.0,-21.0,-167.0,-2.0,38.0,-485.0,10.0,-9.0,-96.0,0.0
4.0,-19.0,13.0,-93.0,0.0,25.0,-450.0,2.0,6.0,-109.0,0.0
2.0,-27.0,20.0,-24.0,14.0,16.0,-409.0,-15.0,24.0,-121.0,0.0
0.0,-24.0,-3.0,-1.0,11.0,17.0,-386.0,-15.0,40.0,-115.0,0.0
-8.0,-27.0,10.0,50.0,-1.0,13.0,-383.0,-10.0,34.0,-131.0,0.0
-6.0,-20.0,33.0,60.0,-3.0,18.0,-372.0,-9.0,21.0,-142.0,0.0
7.0,-13.0,35.0,45.0,3.0,17.0,-340.0,-29.0,-13.0,-145.0,0.0
6.0,-13.0,18.0,76.0,21.0,26.0,-291.0,-27.0,-25.0,-158.0,0.0
-5.0,-29.0,-53.0,93.0,33.0,32.0,-252.0,-18.0,-20.0,-160.0,0.0
-12.0,-48.0,-17.0,60.0,49.0,23.0,-221.0,-12.0,-34.0,-176.0,0.0
-17.0,-62.0,-5.0,41.0,53.0,23.0,-185.0,-11.0,-40.0,-188.0,0.0
-21.0,-88.0,-8.0,28.0,44.0,18.0,-163.0,5.0,-39.0,-189.0,0.0
-16.0,-95.0,-74.0,14.0,20.0,27.0,-160.0,8.0,-21.0,-196.0,0.0
1.0,-57.0,-54.0,-6.0,-10.0,22.0,-145.0,1.0,-5.0,-203.0,0.0
11.0,-23.0,33.0,-9.0,-18.0,9.0,-132.0,10.0,10.0,-206.0,0.0
0.0,-47.0,68.0,31.0,11.0,19.0,-130.0,4.0,22.0,-204.0,0.0
-22.0,-78.0,60.0,55.0,41.0,25.0,-116.0,5.0,48.0,-212.0,0.0
-23.0,-101.0,52.0,76.0,76.0,29.0,-74.0,-1.0,2.0,-224.0,0.0
-3.0,-15.0,50.0,84.0,101.0,10.0,-9.0,-22.0,-35.0,-236.0,0.0
7.0,131.0,48.0,81.0,105.0,21.0,23.0,-18.0,-32.0,-223.0,0.0
3.0,148.0,70.0,86.0,71.0,19.0,29.0,-19.0,-25.0,-200.0,0.0
2.0,127.0,84.0,86.0,45.0,23.0,73.0,-21.0,-27.0,-183.0,0.0
-4.0,71.0,101.0,94.0,33.0,-4.0,121.0,-32.0,-39.0,-168.0,0.0
-36.0,-10.0,112.0,103.0,14.0,-28.0,156.0,-48.0,-72.0,-180.0,0.0
-54.0,-19.0,119.0,83.0,21.0,-36.0,194.0,-68.0,-96.0,-198.0,0.0
-24.0,-1.0,27.0,-17.0,0.0,-38.0,249.0,-57.0,-84.0,-178.0,0.0
21.0,-14.0,-101.0,-155.0,-46.0,-25.0,297.0,-22.0,-16.0,-126.0,0.0
39.0,-17.0,-141.0,-163.0,-63.0,-8.0,355.0,-2.0,42.0,-106.0,0.0
50.0,0.0,-79.0,-51.0,-43.0,15.0,388.0,17.0,90.0,-90.0,0.0
86.0,17.0,-14.0,20.0,-63.0,15.0,416.0,38.0,109.0,-57.0,0.0
68.0,-12.0,96.0,14.0,-67.0,1.0,442.0,33.0,92.0,-58.0,0.0
18.0,-86.0,252.0,50.0,-5.0,-17.0,432.0,20.0,56.0,-104.0,0.0
15.0,-107.0,279.0,106.0,25.0,-22.0,453.0,-8.0,17.0,-143.0,0.0
32.0,-34.0,179.0,128.0,27.0,-27.0,483.0,-39.0,-26.0,-167.0,0.0
27.0,90.0,-53.0,22.0,3.0,-39.0,520.0,-56.0,-59.0,-181.0,0.0
37.0,182.0,-205.0,-106.0,-31.0,-25.0,555.0,-33.0,-41.0,-147.0,0.0
76.0,158.0,-186.0,-41.0,-37.0,-7.0,598.0,-4.0,-18.0,-121.0,0.0
94.0,93.0,-121.0,11.0,-48.0,-5.0,636.0,17.0,21.0,-119.0,0.0
94.0,54.0,-121.0,-95.0,-95.0,-6.0,684.0,37.0,75.0,-106.0,0.0
76.0,52.0,-107.0,-194.0,-136.0,3.0,738.0,46.0,109.0,-98.0,0.0
49.0,55.0,-74.0,-149.0,-118.0,-22.0,792.0,29.0,80.0,-117.0,0.0
46.0,40.0,-70.0,-94.0,-87.0,-41.0,833.0,1.0,38.0,-116.0,0.0
15.0,0.0,-119.0,-70.0,-48.0,-38.0,822.0,-8.0,19.0,-120.0,0.0
0.0,-39.0,-131.0,-30.0,-1.0,-5.0,836.0,-11.0,22.0,-117.0,0.0
0.0,-32.0,-59.0,10.0,-7.0,0.0,848.0,-14.0,10.0,-126.0,0.0
-11.0,-1.0,3.0,17.0,-37.0,-8.0,829.0,-24.0,-15.0,-128.0,0.0
-16.0,8.0,20.0,2.0,-32.0,-9.0,792.0,-33.0,-35.0,-115.0,0.0
19.0,24.0,35.0,10.0,-20.0,-7.0,757.0,-17.0,-16.0,-101.0,0.0
16.0,6.0,30.0,19.0,-21.0,-7.0,719.0,-15.0,-22.0,-107.0,0.0
-16.0,-19.0,53.0,40.0,-1.0,3.0,676.0,0.0,0.0,-124.0,0.0
-23.0,-26.0,71.0,53.0,11.0,15.0,686.0,15.0,33.0,-123.0,0.0
-17.0,-15.0,26.0,46.0,14.0,20.0,712.0,16.0,48.0,-109.0,0.0
-22.0,-44.0,-29.0,-11.0,16.0,29.0,726.0,16.0,37.0,-117.0,0.0
-31.0,-89.0,-60.0,82.0,41.0,30.0,732.0,14.0,37.0,-131.0,0.0
-39.0,-108.0,-54.0,441.0,95.0,38.0,731.0,18.0,28.0,-123.0,0.0
-27.0,-105.0,-37.0,436.0,107.0,21.0,739.0,11.0,1.0,-112.0,0.0
-45.0,-100.0,-30.0,173.0,73.0,12.0,733.0,-9.0,-26.0,-99.0,0.0
-47.0,-81.0,3.0,57.0,21.0,-12.0,722.0,-32.0,-37.0,-98.0,0.0
-13.0,-14.0,61.0,-32.0,-14.0,-23.0,723.0,-34.0,-35.0,-99.0,0.0
8.0,10.0,25.0,-247.0,-68.0,-22.0,690.0,-10.0,-33.0,-72.0,0.0
12.0,2.0,-41.0,-387.0,-120.0,-26.0,658.0,0.0,-25.0,-53.0,0.0
0.0,35.0,2.0,-288.0,-87.0,-15.0,599.0,-4.0,-17.0,-68.0,0.0
-13.0,53.0,0.0,-129.0,-23.0,4.0,536.0,-8.0,-16.0,-66.0,0.0
-24.0,-4.0,-88.0,-17.0,17.0,3.0,491.0,-5.0,-22.0,-69.0,0.0
-38.0,-40.0,-19.0,47.0,19.0,-14.0,418.0,-19.0,-11.0,-88.0,0.0
-48.0,-45.0,87.0,55.0,9.0,-30.0,342.0,-37.0,-19.0,-90.0,0.0
-38.0,-55.0,75.0,-30.0,-17.0,-42.0,290.0,-42.0,-30.0,-79.0,0.0
-29.0,-70.0,73.0,-93.0,-16.0,-29.0,261.0,-27.0,-29.0,-61.0,0.0
-38.0,-77.0,113.0,-40.0,29.0,-22.0,242.0,-26.0,-33.0,-75.0,0.0
-82.0,-96.0,157.0,33.0,49.0,-33.0,219.0,-36.0,-48.0,-103.0,0.0
-86.0,-64.0,190.0,73.0,69.0,-43.0,171.0,-36.0,-68.0,-114.0,0.0
-49.0,-24.0,144.0,102.0,98.0,-34.0,149.0,-35.0,-53.0,-115.0,0.0
-21.0,-16.0,38.0,148.0,126.0,5.0,135.0,-15.0,-39.0,-86.0,0.0
-4.0,16.0,-25.0,87.0,108.0,48.0,133.0,28.0,-6.0,-33.0,0.0
50.0,62.0,-19.0,-67.0,19.0,45.0,138.0,52.0,31.0,-16.0,0.0
73.0,31.0,-159.0,-223.0,-83.0,12.0,143.0,63.0,69.0,-10.0,0.0
69.0,-21.0,-230.0,-295.0,-132.0,-2.0,123.0,65.0,112.0,-13.0,0.0
51.0,-44.0,-219.0,-238.0,-99.0,0.0,89.0,55.0,115.0,-32.0,0.0
47.0,-68.0,-306.0,-241.0,-86.0,5.0,49.0,52.0,112.0,-40.0,0.0
43.0,-103.0,-292.0,-239.0,-63.0,9.0,-24.0,39.0,95.0,-74.0,0.0
22.0,-105.0,-179.0,-146.0,-39.0,-1.0,-89.0,17.0,75.0,-86.0,0.0
31.0,-53.0,-85.0,0.0,-34.0,3.0,-121.0,15.0,68.0,-86.0,0.0
46.0,12.0,17.0,109.0,-16.0,15.0,-123.0,41.0,67.0,-95.0,0.0
43.0,12.0,34.0,79.0,5.0,16.0,-148.0,32.0,50.0,-111.0,0.0
38.0,-26.0,-43.0,46.0,12.0,19.0,-157.0,11.0,19.0,-130.0,0.0
33.0,-40.0,-98.0,37.0,10.0,13.0,-157.0,6.0,-7.0,-136.0,0.0
18.0,-48.0,-10.0,31.0,16.0,3.0,-152.0,5.0,-13.0,-141.0,0.0
12.0,-58.0,4.0,23.0,22.0,-7.0,-168.0,-5.0,-26.0,-130.0,0.0
11.0,-65.0,20.0,36.0,26.0,0.0,-173.0,-6.0,-35.0,-129.0,0.0
16.0,-56.0,-51.0,21.0,24.0,-9.0,-145.0,-5.0,-31.0,-132.0,0.0
14.0,-26.0,-100.0,1.0,9.0,-27.0,-108.0,-16.0,-19.0,-137.0,0.0
1.0,-30.0,-95.0,-1.0,5.0,-23.0,-100.0,-8.0,14.0,-151.0,0.0
-4.0,-41.0,-47.0,0.0,14.0,-5.0,-92.0,-1.0,32.0,-144.0,0.0
-20.0,-60.0,13.0,-6.0,22.0,-3.0,-98.0,25.0,45.0,-159.0,0.0
-23.0,-42.0,39.0,9.0,33.0,3.0,-129.0,41.0,34.0,-160.0,0.0
-5.0,11.0,86.0,28.0,45.0,6.0,-156.0,11.0,15.0,-196.0,0.0
3.0,35.0,76.0,39.0,33.0,2.0,-185.0,-1.0,2.0,-214.0,0.0
-12.0,14.0,57.0,34.0,23.0,0.0,-201.0,1.0,-29.0,-223.0,0.0
-3.0,14.0,64.0,37.0,30.0,-14.0,-205.0,6.0,-52.0,-224.0,0.0
6.0,14.0,46.0,31.0,39.0,-22.0,-204.0,2.0,-61.0,-209.0,0.0
16.0,2.0,36.0,26.0,46.0,-12.0,-188.0,9.0,-50.0,-187.0,0.0
15.0,-15.0,36.0,41.0,45.0,17.0,-155.0,23.0,-30.0,-170.0,0.0
1.0,-46.0,3.0,48.0,44.0,22.0,-120.0,28.0,3.0,-160.0,0.0
-16.0,-90.0,-61.0,19.0,33.0,22.0,-104.0,37.0,30.0,-150.0,0.0
-22.0,-145.0,-135.0,-53.0,-1.0,-7.0,-145.0,21.0,-124.0,-150.0,0.0
-26.0,-115.0,-40.0,-91.0,-10.0,-23.0,-133.0,-3.0,-135.0,-167.0,0.0
-26.0,-83.0,0.0,-76.0,29.0,-4.0,-71.0,11.0,-7.0,-199.0,0.0
-32.0,-119.0,-37.0,-59.0,62.0,13.0,-54.0,22.0,-5.0,-192.0,0.0
-43.0,-148.0,-103.0,-44.0,33.0,8.0,-36.0,5.0,-20.0,-181.0,0.0
-24.0,-99.0,-11.0,-45.0,-15.0,-24.0,-22.0,-31.0,-42.0,-218.0,0.0
-2.0,60.0,72.0,-67.0,-72.0,-48.0,-3.0,-59.0,-44.0,-208.0,0.0
11.0,258.0,175.0,-38.0,-146.0,-60.0,-1.0,-68.0,-49.0,-215.0,0.0
10.0,395.0,402.0,144.0,-116.0,-42.0,-3.0,-80.0,-41.0,-213.0,0.0
18.0,365.0,608.0,234.0,-58.0,-26.0,-2.0,-72.0,-8.0,-175.0,0.0
12.0,234.0,556.0,218.0,-1.0,-9.0,-25.0,-57.0,3.0,-173.0,0.0
-16.0,133.0,405.0,171.0,59.0,6.0,-22.0,-52.0,-17.0,-163.0,0.0
-41.0,54.0,36.0,132.0,129.0,14.0,-15.0,-45.0,-33.0,-180.0,0.0
-46.0,23.0,-107.0,307.0,180.0,8.0,-18.0,-44.0,-42.0,-183.0,0.0
-36.0,48.0,20.0,435.0,160.0,-10.0,7.0,-48.0,-46.0,-178.0,0.0
-64.0,59.0,201.0,428.0,144.0,-32.0,19.0,-63.0,-68.0,-198.0,0.0
-112.0,29.0,202.0,383.0,174.0,-44.0,27.0,-73.0,-74.0,-239.0,0.0
-157.0,-15.0,166.0,360.0,217.0,-60.0,55.0,-109.0,-118.0,-296.0,0.0
-151.0,-14.0,94.0,280.0,228.0,-52.0,73.0,-108.0,-111.0,-307.0,0.0
-56.0,-17.0,-87.0,37.0,150.0,-19.0,144.0,-27.0,-18.0,-227.0,0.0
85.0,-17.0,-297.0,-232.0,0.0,-1.0,236.0,67.0,68.0,-87.0,0.0
157.0,-6.0,-398.0,-379.0,-98.0,0.0,283.0,108.0,92.0,-20.0,0.0
134.0,-13.0,-414.0,-375.0,-139.0,0.0,287.0,107.0,91.0,-11.0,0.0
110.0,-38.0,-463.0,-402.0,-175.0,18.0,301.0,130.0,111.0,-5.0,0.0
92.0,-59.0,-493.0,-471.0,-229.0,21.0,306.0,128.0,113.0,-36.0,0.0
67.0,-68.0,-362.0,-449.0,-242.0,12.0,294.0,107.0,97.0,-46.0,0.0
48.0,-70.0,-214.0,-381.0,-203.0,-1.0,288.0,90.0,92.0,-38.0,0.0
28.0,-51.0,-129.0,-246.0,-123.0,-15.0,283.0,62.0,65.0,-59.0,0.0
32.0,-27.0,-82.0,-159.0,-65.0,-19.0,277.0,38.0,29.0,-65.0,0.0
17.0,-6.0,-41.0,-82.0,13.0,-5.0,273.0,26.0,17.0,-46.0,0.0
-6.0,-13.0,-16.0,-42.0,47.0,11.0,287.0,32.0,7.0,-30.0,0.0
-6.0,-13.0,-15.0,-39.0,-3.0,4.0,305.0,30.0,-6.0,-28.0,0.0
-7.0,-8.0,18.0,-32.0,-25.0,-1.0,305.0,4.0,-15.0,-28.0,0.0
-22.0,-17.0,20.0,-15.0,-10.0,0.0,311.0,1.0,-16.0,-37.0,0.0
-31.0,-24.0,25.0,-9.0,-11.0,-4.0,318.0,0.0,-20.0,-41.0,0.0
-27.0,-17.0,44.0,-7.0,-13.0,-5.0,359.0,-14.0,-35.0,-40.0,0.0
-29.0,-23.0,68.0,7.0,-11.0,-1.0,386.0,-24.0,-13.0,-44.0,0.0
-46.0,-40.0,45.0,22.0,-7.0,2.0,409.0,-7.0,29.0,-46.0,0.0
-39.0,-43.0,43.0,39.0,17.0,13.0,436.0,8.0,62.0,-38.0,0.0
-22.0,-34.0,51.0,58.0,29.0,12.0,443.0,3.0,59.0,-47.0,0.0
-20.0,9.0,28.0,51.0,29.0,6.0,421.0,-1.0,33.0,-40.0,0.0
-7.0,61.0,37.0,45.0,20.0,-4.0,393.0,-3.0,14.0,-23.0,0.0
-16.0,60.0,58.0,46.0,-1.0,-18.0,361.0,-17.0,-12.0,-28.0,0.0
-24.0,16.0,73.0,59.0,3.0,-12.0,337.0,-31.0,-36.0,-20.0,0.0
-22.0,28.0,108.0,67.0,12.0,2.0,337.0,-47.0,-40.0,-21.0,0.0
-46.0,52.0,127.0,57.0,8.0,16.0,335.0,-55.0,-47.0,-21.0,0.0
-43.0,27.0,100.0,46.0,9.0,25.0,342.0,-32.0,-48.0,-7.0,0.0
-19.0,8.0,60.0,24.0,10.0,35.0,364.0,-17.0,-32.0,2.0,0.0
-28.0,-6.0,12.0,6.0,-4.0,22.0,399.0,-17.0,-19.0,9.0,0.0
-43.0,-9.0,3.0,31.0,4.0,25.0,414.0,-11.0,9.0,18.0,0.0
-44.0,5.0,18.0,52.0,11.0,21.0,419.0,-16.0,34.0,31.0,0.0
-23.0,8.0,25.0,49.0,10.0,18.0,428.0,-8.0,28.0,28.0,0.0
-14.0,8.0,-5.0,50.0,1.0,10.0,450.0,0.0,15.0,27.0,0.0
-41.0,0.0,-17.0,26.0,-4.0,15.0,449.0,-14.0,13.0,22.0,0.0
-61.0,-13.0,-9.0,17.0,-7.0,24.0,455.0,-21.0,3.0,12.0,0.0
-43.0,-34.0,-3.0,26.0,20.0,34.0,437.0,-12.0,-1.0,-1.0,0.0
-22.0,-42.0,-9.0,24.0,71.0,22.0,416.0,-12.0,-20.0,-33.0,0.0
-8.0,-46.0,-24.0,38.0,97.0,19.0,398.0,-10.0,-37.0,-42.0,0.0
-14.0,-48.0,-30.0,50.0,84.0,9.0,361.0,-14.0,-48.0,-36.0,0.0
-13.0,-12.0,-13.0,83.0,59.0,-9.0,348.0,-28.0,-44.0,-40.0,0.0
-9.0,28.0,42.0,138.0,54.0,7.0,366.0,-31.0,-23.0,-21.0,0.0
0.0,56.0,115.0,137.0,35.0,16.0,382.0,-9.0,12.0,22.0,0.0
-12.0,63.0,138.0,103.0,-36.0,8.0,395.0,-22.0,15.0,45.0,0.0
-25.0,37.0,120.0,72.0,-39.0,12.0,397.0,-37.0,-10.0,-2.0,0.0
-22.0,22.0,99.0,53.0,0.0,34.0,412.0,-23.0,-24.0,-17.0,0.0
-30.0,4.0,60.0,17.0,39.0,60.0,435.0,-14.0,-16.0,-15.0,0.0
11.0,-15.0,2.0,-55.0,9.0,59.0,451.0,-3.0,11.0,11.0,0.0
55.0,-10.0,-36.0,-129.0,-59.0,10.0,474.0,7.0,15.0,33.0,0.0
45.0,-27.0,-55.0,-105.0,-71.0,-23.0,466.0,15.0,14.0,56.0,0.0
18.0,-52.0,-42.0,-35.0,-31.0,-40.0,468.0,14.0,21.0,75.0,0.0
3.0,-62.0,2.0,11.0,9.0,-54.0,504.0,5.0,14.0,28.0,0.0
3.0,-15.0,84.0,64.0,32.0,-54.0,522.0,11.0,43.0,48.0,0.0
14.0,24.0,170.0,66.0,30.0,-23.0,554.0,33.0,62.0,27.0,0.0
-5.0,47.0,358.0,62.0,27.0,-1.0,535.0,15.0,48.0,-11.0,0.0
-44.0,64.0,425.0,-22.0,-1.0,-26.0,474.0,-30.0,0.0,-75.0,0.0
-90.0,25.0,243.0,-91.0,-43.0,-75.0,415.0,-76.0,-60.0,-128.0,0.0
-93.0,-45.0,-222.0,-176.0,-90.0,-98.0,383.0,-70.0,-60.0,-102.0,0.0
-43.0,-76.0,-530.0,-156.0,-107.0,-61.0,391.0,-15.0,-29.0,-15.0,0.0
39.0,-42.0,-385.0,27.0,-89.0,-9.0,400.0,52.0,21.0,53.0,0.0
75.0,-28.0,-272.0,38.0,-66.0,19.0,397.0,81.0,54.0,105.0,0.0
65.0,-30.0,-284.0,-36.0,-56.0,19.0,418.0,66.0,44.0,127.0,0.0
84.0,0.0,-279.0,-32.0,-30.0,21.0,421.0,63.0,37.0,143.0,0.0
58.0,-5.0,-166.0,-17.0,-4.0,24.0,410.0,44.0,29.0,126.0,0.0
29.0,-25.0,-123.0,13.0,5.0,24.0,376.0,19.0,29.0,88.0,0.0
23.0,-21.0,-109.0,32.0,1.0,11.0,343.0,19.0,33.0,41.0,0.0
34.0,7.0,-70.0,34.0,-16.0,-13.0,340.0,9.0,26.0,55.0,0.0
47.0,49.0,-8.0,44.0,-15.0,-24.0,349.0,-8.0,9.0,90.0,0.0
49.0,60.0,-38.0,19.0,-2.0,-8.0,324.0,-13.0,-9.0,106.0,0.0
16.0,30.0,-165.0,-18.0,15.0,19.0,267.0,-7.0,-11.0,94.0,0.0
3.0,14.0,-100.0,-25.0,15.0,5.0,184.0,-7.0,-17.0,64.0,0.0
10.0,30.0,31.0,-39.0,-6.0,-15.0,150.0,-11.0,-34.0,32.0,0.0
24.0,43.0,37.0,-48.0,-20.0,-24.0,131.0,-13.0,-54.0,38.0,0.0
24.0,24.0,41.0,-22.0,-7.0,-22.0,71.0,-11.0,-48.0,63.0,0.0
11.0,-4.0,45.0,-5.0,10.0,-15.0,0.0,-7.0,-35.0,76.0,0.0
8.0,-4.0,53.0,7.0,36.0,-1.0,-35.0,0.0,4.0,76.0,0.0
0.0,7.0,48.0,16.0,32.0,4.0,-51.0,-6.0,41.0,85.0,0.0
-5.0,15.0,45.0,18.0,26.0,11.0,-41.0,-11.0,66.0,91.0,0.0
-15.0,-11.0,15.0,24.0,19.0,8.0,-60.0,-17.0,32.0,77.0,0.0
-1.0,-28.0,-81.0,27.0,21.0,9.0,-61.0,-18.0,8.0,60.0,0.0
2.0,-45.0,-53.0,20.0,25.0,8.0,-67.0,-8.0,-10.0,48.0,0.0
-11.0,-25.0,34.0,12.0,15.0,-2.0,-87.0,0.0,-35.0,43.0,0.0
-2.0,34.0,49.0,23.0,15.0,-17.0,-73.0,-5.0,-37.0,38.0,0.0
-8.0,25.0,44.0,34.0,26.0,-23.0,-79.0,-1.0,-33.0,22.0,0.0
-24.0,-27.0,26.0,31.0,27.0,-12.0,-77.0,0.0,-45.0,-22.0,0.0
-29.0,-29.0,-12.0,39.0,25.0,-2.0,-60.0,-11.0,-31.0,-24.0,0.0
-14.0,4.0,-117.0,41.0,6.0,-6.0,-56.0,-14.0,-28.0,-14.0,0.0
-18.0,34.0,-100.0,63.0,24.0,-2.0,-85.0,-7.0,-20.0,-57.0,0.0
-29.0,-4.0,25.0,123.0,82.0,8.0,-109.0,-2.0,5.0,-59.0,0.0
-47.0,-70.0,60.0,129.0,116.0,34.0,-154.0,4.0,-3.0,-77.0,0.0
-58.0,-67.0,79.0,123.0,114.0,39.0,-175.0,-13.0,-27.0,-74.0,0.0
-67.0,-32.0,30.0,212.0,87.0,-4.0,-213.0,-34.0,-82.0,-98.0,0.0
-74.0,-27.0,32.0,339.0,71.0,-26.0,-204.0,-50.0,-121.0,-114.0,0.0
-74.0,-47.0,87.0,323.0,113.0,-21.0,-176.0,-42.0,-107.0,-118.0,0.0
-72.0,-88.0,78.0,245.0,112.0,12.0,-156.0,-25.0,-78.0,-103.0,0.0
-48.0,-140.0,23.0,180.0,72.0,35.0,-127.0,-2.0,-41.0,-74.0,0.0
-15.0,-153.0,11.0,-25.0,5.0,49.0,-116.0,38.0,-17.0,-48.0,0.0
12.0,-12.0,111.0,-256.0,-112.0,18.0,-106.0,38.0,-25.0,-12.0,0.0
28.0,218.0,259.0,-392.0,-185.0,-38.0,-59.0,-1.0,-12.0,-21.0,0.0
33.0,242.0,239.0,-419.0,-232.0,-76.0,-17.0,-6.0,10.0,15.0,0.0
24.0,129.0,123.0,-301.0,-181.0,-45.0,35.0,13.0,36.0,-9.0,0.0
37.0,29.0,-55.0,-160.0,-74.0,8.0,79.0,28.0,60.0,9.0,0.0
55.0,43.0,-189.0,-131.0,-53.0,7.0,100.0,36.0,62.0,2.0,0.0
46.0,137.0,-157.0,76.0,-56.0,-5.0,119.0,28.0,47.0,-3.0,0.0
3.0,114.0,-64.0,329.0,-2.0,5.0,109.0,11.0,15.0,-25.0,0.0
-26.0,32.0,-75.0,204.0,51.0,15.0,96.0,6.0,-10.0,-15.0,0.0
-17.0,6.0,-102.0,58.0,40.0,-4.0,62.0,-8.0,-46.0,-23.0,0.0
-11.0,18.0,-24.0,-17.0,-5.0,-23.0,42.0,-15.0,-54.0,-23.0,0.0
-11.0,34.0,54.0,-185.0,-74.0,-17.0,43.0,-5.0,-46.0,-31.0,0.0
-32.0,23.0,87.0,-322.0,-93.0,-5.0,39.0,1.0,-35.0,-44.0,0.0
-36.0,19.0,78.0,-313.0,-65.0,3.0,45.0,13.0,-16.0,-37.0,0.0
-23.0,28.0,-40.0,-285.0,-97.0,5.0,55.0,24.0,23.0,-18.0,0.0
-5.0,46.0,-110.0,-198.0,-124.0,-23.0,94.0,-1.0,31.0,-26.0,0.0
6.0,40.0,-43.0,-70.0,-82.0,-37.0,116.0,-19.0,28.0,-46.0,0.0
6.0,11.0,-64.0,-48.0,-41.0,-23.0,112.0,3.0,35.0,-51.0,0.0
-1.0,-27.0,-117.0,-76.0,-55.0,-11.0,107.0,30.0,60.0,-37.0,0.0
-13.0,-43.0,-113.0,-85.0,-63.0,0.0,98.0,40.0,45.0,-14.0,0.0
0.0,-12.0,-54.0,-56.0,-53.0,-17.0,89.0,27.0,12.0,9.0,0.0
4.0,-1.0,-29.0,-38.0,-49.0,-7.0,83.0,15.0,-14.0,2.0,0.0
-16.0,-8.0,-83.0,-96.0,-48.0,-9.0,57.0,8.0,-25.0,34.0,0.0
-25.0,-32.0,-109.0,-147.0,-20.0,-7.0,45.0,-1.0,-38.0,46.0,0.0
-19.0,-38.0,-75.0,-143.0,-8.0,-14.0,20.0,-5.0,-39.0,67.0,0.0
-15.0,-24.0,-19.0,-82.0,-13.0,-5.0,15.0,-3.0,-6.0,88.0,0.0
-8.0,-21.0,-11.0,-18.0,-27.0,2.0,10.0,6.0,23.0,96.0,0.0
-18.0,-17.0,0.0,34.0,-22.0,12.0,-11.0,12.0,23.0,56.0,0.0
-33.0,-26.0,-20.0,64.0,-23.0,11.0,-21.0,6.0,21.0,8.0,0.0
-43.0,-19.0,-79.0,92.0,1.0,11.0,-11.0,5.0,9.0,15.0,0.0
-50.0,-6.0,54.0,183.0,41.0,-12.0,0.0,-16.0,-20.0,-24.0,0.0
-36.0,10.0,61.0,209.0,53.0,-25.0,-22.0,-21.0,-35.0,-9.0,0.0
-29.0,20.0,99.0,179.0,46.0,-25.0,-34.0,-4.0,-40.0,-12.0,0.0
-12.0,17.0,119.0,152.0,37.0,-23.0,-30.0,-1.0,-34.0,21.0,0.0
28.0,11.0,20.0,91.0,37.0,-3.0,-21.0,27.0,-6.0,55.0,0.0
40.0,0.0,-68.0,2.0,15.0,19.0,-11.0,44.0,37.0,36.0,0.0
25.0,-25.0,-48.0,-42.0,-24.0,17.0,6.0,35.0,14.0,22.0,0.0
15.0,-50.0,-8.0,-24.0,2.0,28.0,2.0,25.0,0.0,46.0,0.0
0.0,-56.0,-86.0,10.0,28.0,23.0,-20.0,16.0,16.0,9.0,0.0
-1.0,-26.0,-56.0,34.0,25.0,9.0,-42.0,5.0,32.0,-21.0,0.0
1.0,41.0,71.0,49.0,30.0,21.0,-55.0,1.0,51.0,-5.0,0.0
0.0,51.0,94.0,67.0,56.0,32.0,-61.0,2.0,37.0,-18.0,0.0
-17.0,0.0,49.0,94.0,80.0,26.0,-81.0,-4.0,20.0,1.0,0.0
-34.0,-52.0,63.0,115.0,80.0,22.0,-130.0,-4.0,-4.0,-21.0,0.0
-44.0,-60.0,251.0,164.0,90.0,22.0,-150.0,-15.0,-31.0,-15.0,0.0
-36.0,-15.0,441.0,199.0,75.0,25.0,-179.0,-28.0,-66.0,-34.0,0.0
-21.0,42.0,426.0,220.0,85.0,25.0,-183.0,-37.0,-96.0,-29.0,0.0
-14.0,57.0,197.0,168.0,92.0,23.0,-171.0,-43.0,-86.0,-29.0,0.0
-10.0,6.0,-83.0,21.0,74.0,24.0,-182.0,-25.0,-51.0,16.0,0.0
-9.0,-31.0,-151.0,-62.0,61.0,6.0,-189.0,-5.0,-14.0,11.0,0.0
-1.0,-30.0,-142.0,-114.0,-6.0,-47.0,-203.0,-21.0,-3.0,37.0,0.0
18.0,3.0,-186.0,-197.0,-82.0,-84.0,-195.0,-28.0,4.0,75.0,0.0
78.0,49.0,-269.0,-277.0,-113.0,-69.0,-121.0,11.0,62.0,124.0,0.0
104.0,57.0,-245.0,-142.0,-45.0,-20.0,-73.0,46.0,91.0,139.0,0.0
77.0,19.0,-160.0,80.0,47.0,8.0,-56.0,43.0,58.0,119.0,0.0
52.0,-13.0,-101.0,111.0,34.0,1.0,-35.0,37.0,34.0,145.0,0.0
79.0,11.0,-34.0,43.0,-19.0,6.0,-55.0,23.0,19.0,185.0,0.0
71.0,42.0,-10.0,-94.0,-94.0,-5.0,-90.0,13.0,-5.0,185.0,0.0
51.0,55.0,21.0,-183.0,-158.0,-22.0,-148.0,2.0,-18.0,183.0,0.0
41.0,58.0,71.0,-185.0,-128.0,-2.0,-158.0,-1.0,3.0,170.0,0.0
14.0,43.0,25.0,-149.0,-84.0,0.0,-166.0,-15.0,-15.0,136.0,0.0
-13.0,18.0,-59.0,-88.0,-58.0,-2.0,-159.0,-36.0,-42.0,95.0,0.0
-13.0,1.0,-62.0,-78.0,-39.0,-3.0,-133.0,-36.0,3.0,114.0,0.0
-18.0,-20.0,-10.0,-41.0,-28.0,-3.0,-119.0,-30.0,38.0,103.0,0.0
-14.0,0.0,28.0,101.0,2.0,5.0,-103.0,-24.0,48.0,112.0,0.0
19.0,39.0,-22.0,132.0,-18.0,0.0,-86.0,-5.0,59.0,102.0,0.0
20.0,19.0,-59.0,42.0,-27.0,-3.0,-76.0,13.0,64.0,106.0,0.0
11.0,6.0,-2.0,-10.0,-13.0,-2.0,-66.0,6.0,53.0,102.0,0.0
1.0,6.0,30.0,-5.0,-14.0,-7.0,-46.0,-11.0,2.0,81.0,0.0
-13.0,2.0,56.0,11.0,-18.0,-7.0,0.0,-19.0,-25.0,65.0,0.0
-26.0,5.0,71.0,14.0,-18.0,-30.0,13.0,-28.0,-36.0,11.0,0.0
-27.0,16.0,93.0,27.0,-9.0,-34.0,-6.0,-36.0,-55.0,23.0,0.0
-6.0,0.0,76.0,9.0,5.0,-18.0,19.0,-23.0,-60.0,41.0,0.0
8.0,-21.0,23.0,-19.0,10.0,6.0,35.0,-9.0,-47.0,12.0,0.0
5.0,-11.0,12.0,-15.0,3.0,5.0,33.0,-4.0,0.0,-14.0,0.0
12.0,13.0,14.0,-9.0,-6.0,10.0,26.0,0.0,52.0,5.0,0.0
-4.0,13.0,41.0,0.0,-9.0,21.0,41.0,-4.0,56.0,1.0,0.0
-12.0,12.0,46.0,20.0,14.0,47.0,21.0,0.0,46.0,1.0,0.0
-13.0,-3.0,26.0,10.0,14.0,50.0,23.0,-1.0,38.0,-9.0,0.0
-16.0,-29.0,15.0,16.0,22.0,55.0,11.0,-5.0,13.0,-34.0,0.0
-11.0,-67.0,-30.0,18.0,31.0,48.0,40.0,5.0,0.0,-30.0,0.0
-2.0,-76.0,-8.0,8.0,18.0,44.0,80.0,11.0,2.0,-13.0,0.0
10.0,-66.0,63.0,44.0,31.0,28.0,105.0,10.0,-8.0,-20.0,0.0
0.0,-2.0,186.0,103.0,42.0,9.0,111.0,-6.0,-36.0,-40.0,0.0
-25.0,37.0,226.0,139.0,17.0,-10.0,110.0,-28.0,-46.0,-46.0,0.0
-40.0,32.0,171.0,147.0,8.0,-7.0,139.0,-14.0,-46.0,-36.0,0.0
-31.0,39.0,34.0,109.0,34.0,6.0,171.0,-18.0,-36.0,-32.0,0.0
-28.0,31.0,-82.0,71.0,35.0,8.0,195.0,-29.0,-25.0,-27.0,0.0
-18.0,0.0,-145.0,130.0,7.0,9.0,215.0,-15.0,17.0,-20.0,0.0
17.0,-16.0,-162.0,73.0,-14.0,1.0,224.0,-4.0,33.0,-12.0,0.0
21.0,-13.0,-99.0,9.0,-35.0,-15.0,230.0,2.0,16.0,-23.0,0.0
9.0,-23.0,-34.0,5.0,-19.0,-7.0,209.0,-3.0,8.0,-30.0,0.0
13.0,-18.0,3.0,69.0,32.0,0.0,167.0,2.0,-11.0,-19.0,0.0
33.0,-20.0,20.0,99.0,100.0,20.0,153.0,4.0,-24.0,-8.0,0.0
37.0,-41.0,0.0,17.0,125.0,30.0,142.0,0.0,-29.0,-6.0,0.0
11.0,-57.0,-13.0,-41.0,75.0,26.0,113.0,-4.0,-39.0,-6.0,0.0
1.0,-55.0,-14.0,-17.0,7.0,24.0,122.0,-1.0,-35.0,-10.0,0.0
23.0,16.0,-19.0,-61.0,-41.0,13.0,159.0,7.0,-12.0,-3.0,0.0
51.0,83.0,-84.0,-161.0,-72.0,12.0,188.0,24.0,37.0,18.0,0.0
45.0,49.0,-89.0,-226.0,-115.0,-15.0,191.0,20.0,36.0,46.0,0.0
37.0,-14.0,-20.0,-260.0,-147.0,-35.0,215.0,9.0,45.0,58.0,0.0
14.0,-52.0,-7.0,-183.0,-120.0,-11.0,225.0,16.0,84.0,30.0,0.0
3.0,-69.0,41.0,-108.0,-75.0,14.0,228.0,16.0,63.0,6.0,0.0
1.0,-67.0,80.0,-60.0,-40.0,10.0,252.0,1.0,21.0,23.0,0.0
5.0,-81.0,61.0,-45.0,-38.0,-6.0,262.0,-2.0,0.0,57.0,0.0
6.0,-51.0,17.0,-40.0,-26.0,-22.0,242.0,-6.0,-11.0,48.0,0.0
17.0,99.0,30.0,-35.0,-4.0,-24.0,200.0,-20.0,-17.0,48.0,0.0
18.0,181.0,24.0,-29.0,5.0,-27.0,140.0,-20.0,-33.0,79.0,0.0
11.0,131.0,-4.0,-23.0,38.0,-5.0,114.0,-6.0,-22.0,48.0,0.0
-9.0,56.0,-16.0,-5.0,62.0,18.0,90.0,-6.0,-37.0,39.0,0.0
-16.0,26.0,-13.0,-1.0,73.0,28.0,75.0,-2.0,-50.0,50.0,0.0
-28.0,15.0,-36.0,-33.0,56.0,38.0,74.0,6.0,-42.0,52.0,0.0
-38.0,11.0,-12.0,-32.0,35.0,32.0,88.0,5.0,-36.0,69.0,0.0
-39.0,15.0,25.0,-24.0,29.0,17.0,86.0,3.0,-24.0,55.0,0.0
-30.0,1.0,-35.0,-81.0,8.0,5.0,81.0,-3.0,-14.0,76.0,0.0
-25.0,-7.0,-120.0,-78.0,-18.0,0.0,106.0,0.0,-4.0,82.0,0.0
-22.0,-37.0,-147.0,291.0,26.0,20.0,101.0,3.0,20.0,94.0,0.0
-6.0,-47.0,-51.0,529.0,98.0,33.0,88.0,1.0,31.0,89.0,0.0
-23.0,-43.0,19.0,279.0,115.0,45.0,54.0,-6.0,-3.0,70.0,0.0
-58.0,-49.0,17.0,83.0,129.0,24.0,16.0,-29.0,-47.0,60.0,0.0
-47.0,-29.0,-42.0,-27.0,110.0,12.0,3.0,-25.0,-42.0,65.0,0.0
1.0,3.0,5.0,-246.0,-42.0,-12.0,-10.0,4.0,-38.0,91.0,0.0
18.0,8.0,114.0,-297.0,-153.0,-48.0,-32.0,9.0,-31.0,91.0,0.0
7.0,-2.0,218.0,-50.0,-131.0,-74.0,-47.0,-22.0,-35.0,74.0,0.0
35.0,97.0,270.0,22.0,-72.0,-77.0,-89.0,-61.0,-58.0,65.0,0.0
58.0,188.0,179.0,-60.0,-64.0,-67.0,-117.0,-54.0,-57.0,75.0,0.0
42.0,117.0,98.0,61.0,-35.0,-41.0,-116.0,-34.0,-32.0,68.0,0.0
23.0,64.0,42.0,274.0,19.0,0.0,-114.0,-8.0,14.0,71.0,0.0
41.0,50.0,-65.0,168.0,7.0,36.0,-104.0,25.0,78.0,96.0,0.0
43.0,40.0,-113.0,-46.0,-41.0,19.0,-101.0,25.0,80.0,107.0,0.0
13.0,15.0,11.0,-147.0,-62.0,1.0,-120.0,11.0,28.0,98.0,0.0
-17.0,13.0,251.0,-61.0,-17.0,16.0,-155.0,-12.0,-24.0,87.0,0.0
-24.0,9.0,239.0,75.0,15.0,34.0,-176.0,-29.0,-32.0,79.0,0.0
-30.0,3.0,42.0,95.0,27.0,22.0,-194.0,-40.0,-42.0,68.0,0.0
-27.0,-13.0,-124.0,33.0,28.0,-2.0,-217.0,-38.0,-44.0,57.0,0.0
-1.0,-15.0,-251.0,3.0,52.0,0.0,-215.0,-26.0,-29.0,65.0,0.0
24.0,-9.0,-247.0,-2.0,75.0,7.0,-176.0,-18.0,-6.0,77.0,0.0
39.0,1.0,-208.0,-42.0,50.0,5.0,-155.0,-8.0,23.0,77.0,0.0
34.0,-1.0,-211.0,-118.0,15.0,14.0,-163.0,16.0,62.0,95.0,0.0
47.0,18.0,-224.0,-150.0,6.0,20.0,-166.0,33.0,105.0,111.0,0.0
41.0,34.0,-101.0,-100.0,21.0,24.0,-207.0,24.0,72.0,114.0,0.0
9.0,39.0,-38.0,-77.0,40.0,17.0,-256.0,7.0,36.0,100.0,0.0
-25.0,23.0,23.0,-51.0,33.0,7.0,-301.0,-16.0,0.0,68.0,0.0
-44.0,2.0,74.0,-62.0,24.0,-3.0,-339.0,-36.0,-30.0,49.0,0.0
-74.0,8.0,127.0,-30.0,19.0,-17.0,-380.0,-45.0,-55.0,45.0,0.0
-103.0,4.0,181.0,142.0,52.0,-21.0,-414.0,-58.0,-87.0,49.0,0.0
-69.0,2.0,227.0,309.0,95.0,-6.0,-389.0,-52.0,-85.0,93.0,0.0
-37.0,-3.0,152.0,225.0,80.0,5.0,-355.0,-28.0,-39.0,147.0,0.0
-27.0,-4.0,65.0,129.0,36.0,12.0,-329.0,-14.0,11.0,180.0,0.0
-20.0,-25.0,-39.0,72.0,25.0,18.0,-309.0,18.0,69.0,216.0,0.0
-16.0,-46.0,-114.0,-36.0,-19.0,-10.0,-301.0,33.0,71.0,255.0,0.0
-28.0,-59.0,-60.0,-65.0,-53.0,-23.0,-278.0,17.0,28.0,254.0,0.0
-31.0,-46.0,-55.0,-62.0,-34.0,-11.0,-261.0,14.0,10.0,241.0,0.0
-10.0,-39.0,-108.0,-134.0,-63.0,-5.0,-236.0,34.0,15.0,248.0,0.0
-8.0,-37.0,-112.0,-171.0,-80.0,-21.0,-235.0,34.0,3.0,225.0,0.0
-21.0,-27.0,2.0,-124.0,-76.0,-41.0,-256.0,16.0,-22.0,190.0,0.0
-21.0,0.0,118.0,-67.0,-63.0,-31.0,-281.0,9.0,-31.0,182.0,0.0
-14.0,-7.0,-2.0,-41.0,-24.0,6.0,-290.0,14.0,-18.0,201.0,0.0
-15.0,-29.0,-165.0,-45.0,-1.0,7.0,-290.0,21.0,4.0,209.0,0.0
-23.0,-37.0,-164.0,-51.0,2.0,15.0,-290.0,20.0,27.0,209.0,0.0
-23.0,-40.0,-150.0,-66.0,22.0,34.0,-262.0,23.0,43.0,205.0,0.0
-13.0,-53.0,-167.0,-99.0,63.0,60.0,-261.0,31.0,60.0,192.0,0.0
-8.0,-71.0,-138.0,-128.0,38.0,44.0,-240.0,35.0,61.0,183.0,0.0
-5.0,-54.0,-171.0,-90.0,5.0,22.0,-216.0,35.0,61.0,187.0,0.0
-11.0,-41.0,-135.0,55.0,5.0,0.0,-204.0,22.0,24.0,180.0,0.0
-34.0,-61.0,38.0,180.0,44.0,0.0,-184.0,13.0,-11.0,167.0,0.0
-24.0,-78.0,53.0,185.0,72.0,9.0,-164.0,17.0,-27.0,168.0,0.0
32.0,-40.0,35.0,83.0,36.0,0.0,-152.0,13.0,-30.0,170.0,0.0
60.0,31.0,-27.0,27.0,1.0,-11.0,-108.0,12.0,-44.0,171.0,0.0
47.0,32.0,-111.0,39.0,21.0,-11.0,-57.0,9.0,-47.0,184.0,0.0
25.0,-27.0,-64.0,43.0,70.0,-2.0,-17.0,24.0,-6.0,187.0,0.0
9.0,-22.0,-5.0,65.0,96.0,8.0,-20.0,21.0,27.0,156.0,0.0
11.0,11.0,-30.0,112.0,109.0,7.0,-18.0,3.0,23.0,124.0,0.0
13.0,20.0,7.0,191.0,109.0,10.0,-30.0,-4.0,20.0,118.0,0.0
16.0,14.0,98.0,163.0,85.0,25.0,-62.0,5.0,32.0,132.0,0.0
3.0,41.0,163.0,81.0,23.0,-2.0,-80.0,-8.0,-14.0,104.0,0.0
-19.0,42.0,201.0,74.0,4.0,-10.0,-90.0,-22.0,-50.0,74.0,0.0
-41.0,23.0,171.0,74.0,22.0,3.0,-107.0,-16.0,-49.0,66.0,0.0
-28.0,14.0,117.0,-8.0,3.0,14.0,-126.0,-10.0,-41.0,78.0,0.0
-29.0,2.0,41.0,-105.0,-26.0,7.0,-104.0,-6.0,-43.0,114.0,0.0
-33.0,-26.0,-6.0,-97.0,-31.0,-7.0,-69.0,-12.0,-57.0,123.0,0.0
-45.0,-46.0,5.0,83.0,2.0,-16.0,-41.0,-22.0,-59.0,128.0,0.0
-54.0,-74.0,4.0,184.0,26.0,-13.0,-28.0,-16.0,-37.0,128.0,0.0
-28.0,-114.0,-26.0,77.0,20.0,-6.0,-9.0,-1.0,15.0,141.0,0.0
-15.0,-133.0,-61.0,-43.0,3.0,-18.0,6.0,19.0,36.0,148.0,0.0
-10.0,-100.0,-8.0,-96.0,-23.0,-22.0,38.0,20.0,30.0,155.0,0.0
18.0,-72.0,-11.0,-165.0,-57.0,-29.0,64.0,25.0,37.0,182.0,0.0
34.0,-55.0,-36.0,-249.0,-83.0,-35.0,48.0,30.0,53.0,207.0,0.0
25.0,85.0,14.0,-221.0,-76.0,-48.0,30.0,7.0,31.0,200.0,0.0
8.0,237.0,92.0,-99.0,-33.0,-56.0,-13.0,-27.0,-9.0,158.0,0.0
-22.0,221.0,114.0,10.0,48.0,-48.0,-65.0,-50.0,-10.0,142.0,0.0
-51.0,142.0,109.0,82.0,106.0,-30.0,-113.0,-37.0,-11.0,148.0,0.0
-58.0,63.0,70.0,84.0,106.0,-17.0,-118.0,-3.0,-14.0,158.0,0.0
-56.0,9.0,-13.0,55.0,60.0,-4.0,-111.0,2.0,-24.0,180.0,0.0
-38.0,14.0,15.0,17.0,-5.0,6.0,-110.0,14.0,-1.0,220.0,0.0
-5.0,35.0,27.0,-103.0,-117.0,12.0,-90.0,28.0,28.0,254.0,0.0
11.0,57.0,68.0,-196.0,-172.0,9.0,-74.0,25.0,57.0,271.0,0.0
11.0,54.0,115.0,-206.0,-174.0,2.0,-59.0,23.0,72.0,278.0,0.0
3.0,35.0,114.0,-102.0,-76.0,20.0,-62.0,17.0,48.0,259.0,0.0
-4.0,52.0,108.0,-10.0,12.0,28.0,-68.0,7.0,15.0,243.0,0.0
-15.0,71.0,104.0,40.0,32.0,27.0,-77.0,-7.0,-7.0,239.0,0.0
-39.0,48.0,168.0,80.0,38.0,30.0,-52.0,-8.0,-16.0,235.0,0.0
-63.0,-8.0,230.0,91.0,89.0,12.0,-3.0,-4.0,-39.0,215.0,0.0
-65.0,-37.0,205.0,3.0,80.0,0.0,10.0,-7.0,-61.0,206.0,0.0
-55.0,-36.0,50.0,-150.0,-11.0,-9.0,9.0,-13.0,-62.0,225.0,0.0
-37.0,-45.0,-201.0,-226.0,-84.0,-7.0,14.0,-1.0,-37.0,250.0,0.0
-23.0,-28.0,-283.0,-41.0,-57.0,28.0,39.0,16.0,9.0,267.0,0.0
-18.0,-15.0,-341.0,61.0,-63.0,48.0,56.0,24.0,54.0,261.0,0.0
-17.0,-26.0,-258.0,2.0,-89.0,21.0,52.0,20.0,73.0,223.0,0.0
-23.0,-30.0,-82.0,-111.0,-136.0,-4.0,26.0,2.0,61.0,175.0,0.0
-24.0,-29.0,-6.0,-95.0,-171.0,-48.0,7.0,-30.0,27.0,141.0,0.0
-4.0,-63.0,-32.0,212.0,-132.0,-75.0,1.0,-35.0,1.0,118.0,0.0
-1.0,-80.0,-78.0,315.0,-49.0,-55.0,31.0,-19.0,9.0,101.0,0.0
2.0,-58.0,-27.0,165.0,11.0,-32.0,48.0,-18.0,-13.0,73.0,0.0
14.0,10.0,-17.0,60.0,27.0,-23.0,58.0,-20.0,-37.0,44.0,0.0
-6.0,27.0,9.0,-23.0,42.0,-21.0,82.0,-10.0,-39.0,39.0,0.0
0.0,3.0,-8.0,-127.0,50.0,-8.0,116.0,10.0,-41.0,59.0,0.0
22.0,13.0,-5.0,-128.0,43.0,-5.0,154.0,10.0,-41.0,52.0,0.0
22.0,32.0,-8.0,-68.0,0.0,-18.0,164.0,-16.0,-48.0,41.0,0.0
18.0,36.0,26.0,-93.0,-50.0,-9.0,189.0,-6.0,-33.0,49.0,0.0
20.0,44.0,100.0,-87.0,-62.0,-9.0,216.0,-18.0,-31.0,30.0,0.0
-5.0,29.0,83.0,-71.0,-58.0,-15.0,195.0,-37.0,-40.0,-12.0,0.0
-31.0,10.0,61.0,-33.0,-41.0,-13.0,151.0,-52.0,-24.0,-30.0,0.0
-39.0,5.0,98.0,2.0,-36.0,-22.0,125.0,-50.0,-5.0,-22.0,0.0
-16.0,12.0,18.0,-22.0,-28.0,4.0,114.0,-15.0,32.0,1.0,0.0
21.0,9.0,-58.0,-74.0,16.0,30.0,74.0,5.0,52.0,30.0,0.0
60.0,17.0,-49.0,-76.0,54.0,47.0,35.0,21.0,55.0,41.0,0.0
66.0,3.0,-86.0,-40.0,77.0,85.0,0.0,42.0,69.0,40.0,0.0
44.0,-15.0,-104.0,-26.0,47.0,74.0,-47.0,31.0,23.0,31.0,0.0
27.0,-24.0,-91.0,-49.0,13.0,37.0,-61.0,0.0,-35.0,11.0,0.0
16.0,-42.0,-86.0,-53.0,-6.0,-3.0,-46.0,-24.0,-53.0,-28.0,0.0
5.0,-35.0,-8.0,58.0,3.0,-13.0,-32.0,-35.0,-49.0,-44.0,0.0
1.0,-16.0,48.0,218.0,36.0,13.0,-33.0,-12.0,-21.0,-40.0,0.0
7.0,-33.0,44.0,197.0,-4.0,28.0,-33.0,18.0,10.0,-30.0,0.0
3.0,-31.0,17.0,78.0,-22.0,15.0,-27.0,25.0,19.0,-44.0,0.0
17.0,-10.0,-2.0,40.0,-3.0,-10.0,-17.0,21.0,12.0,-49.0,0.0
41.0,-10.0,-3.0,23.0,-5.0,-14.0,-36.0,19.0,14.0,-50.0,0.0
34.0,1.0,-35.0,78.0,-13.0,-20.0,-68.0,12.0,24.0,-57.0,0.0
23.0,37.0,-2.0,133.0,-5.0,-15.0,-78.0,2.0,18.0,-69.0,0.0
24.0,48.0,65.0,191.0,11.0,-19.0,-109.0,-15.0,-8.0,-64.0,0.0
20.0,9.0,55.0,226.0,24.0,-15.0,-155.0,-8.0,-21.0,-44.0,0.0
18.0,-2.0,43.0,138.0,9.0,-14.0,-206.0,-3.0,-6.0,-16.0,0.0
20.0,5.0,37.0,2.0,12.0,-7.0,-242.0,-6.0,3.0,14.0,0.0
-9.0,-3.0,61.0,-67.0,48.0,12.0,-265.0,-15.0,-5.0,19.0,0.0
-45.0,-31.0,126.0,-53.0,48.0,15.0,-294.0,-14.0,-40.0,14.0,0.0
-48.0,-16.0,87.0,-3.0,18.0,9.0,-314.0,-19.0,-73.0,26.0,0.0
-18.0,4.0,-25.0,-15.0,-6.0,-1.0,-288.0,-11.0,-66.0,57.0,0.0
4.0,-34.0,-105.0,-84.0,-4.0,20.0,-259.0,23.0,-19.0,101.0,0.0
13.0,-65.0,-133.0,-111.0,-11.0,29.0,-231.0,45.0,27.0,136.0,0.0
21.0,-49.0,-128.0,-75.0,-16.0,12.0,-191.0,39.0,64.0,155.0,0.0
17.0,-55.0,-151.0,-33.0,-10.0,12.0,-184.0,44.0,80.0,155.0,0.0
-2.0,-85.0,-19.0,24.0,24.0,13.0,-187.0,41.0,57.0,156.0,0.0
-24.0,-127.0,44.0,97.0,61.0,14.0,-152.0,31.0,44.0,138.0,0.0
-34.0,-149.0,50.0,88.0,45.0,-5.0,-121.0,29.0,49.0,121.0,0.0
-7.0,-86.0,29.0,27.0,-9.0,-26.0,-124.0,16.0,48.0,130.0,0.0
17.0,59.0,5.0,-17.0,-49.0,-35.0,-116.0,0.0,38.0,117.0,0.0
26.0,57.0,-31.0,-49.0,-71.0,-27.0,-108.0,19.0,21.0,101.0,0.0
23.0,-61.0,-76.0,-61.0,-42.0,9.0,-119.0,29.0,25.0,72.0,0.0
16.0,-136.0,-120.0,-86.0,-29.0,14.0,-133.0,31.0,21.0,34.0,0.0
18.0,-148.0,-110.0,-66.0,-25.0,-4.0,-156.0,17.0,11.0,-2.0,0.0
28.0,33.0,23.0,-48.0,-45.0,-31.0,-148.0,-15.0,-48.0,-55.0,0.0
37.0,278.0,142.0,-18.0,-62.0,-43.0,-151.0,-52.0,-102.0,-95.0,0.0
34.0,298.0,147.0,20.0,-23.0,-25.0,-146.0,-52.0,-84.0,-109.0,0.0
24.0,194.0,101.0,45.0,11.0,-9.0,-120.0,-40.0,-43.0,-108.0,0.0
17.0,110.0,67.0,81.0,26.0,-15.0,-62.0,-33.0,-2.0,-104.0,0.0
23.0,86.0,15.0,232.0,80.0,-21.0,-30.0,-26.0,16.0,-103.0,0.0
29.0,82.0,27.0,225.0,75.0,-10.0,-18.0,-12.0,29.0,-97.0,0.0
24.0,63.0,23.0,77.0,11.0,-21.0,-7.0,0.0,48.0,-90.0,0.0
24.0,29.0,0.0,-24.0,-34.0,-28.0,5.0,11.0,40.0,-88.0,0.0
8.0,-27.0,11.0,-55.0,-28.0,-5.0,25.0,20.0,7.0,-88.0,0.0
-9.0,-50.0,15.0,-106.0,-16.0,21.0,28.0,33.0,3.0,-88.0,0.0
18.0,-2.0,2.0,-157.0,-2.0,27.0,21.0,21.0,0.0,-84.0,0.0
32.0,83.0,-96.0,-157.0,8.0,25.0,19.0,6.0,-22.0,-85.0,0.0
38.0,100.0,-109.0,-123.0,19.0,25.0,-3.0,11.0,-16.0,-73.0,0.0
20.0,38.0,-29.0,-112.0,8.0,16.0,-23.0,16.0,13.0,-46.0,0.0
6.0,4.0,-24.0,-126.0,-23.0,1.0,-22.0,13.0,39.0,-41.0,0.0
5.0,-3.0,-83.0,-145.0,-44.0,-3.0,-7.0,23.0,50.0,-42.0,0.0
0.0,-11.0,-36.0,-89.0,-60.0,9.0,-5.0,26.0,52.0,-52.0,0.0
5.0,-11.0,76.0,43.0,-49.0,12.0,6.0,32.0,40.0,-63.0,0.0
25.0,0.0,111.0,56.0,-39.0,11.0,30.0,40.0,44.0,-60.0,0.0
8.0,-13.0,89.0,38.0,-14.0,1.0,45.0,22.0,22.0,-73.0,0.0
-1.0,-9.0,74.0,32.0,2.0,-7.0,30.0,4.0,-12.0,-99.0,0.0
-24.0,-11.0,16.0,38.0,9.0,-13.0,51.0,6.0,-25.0,-114.0,0.0
-46.0,-17.0,35.0,59.0,19.0,-5.0,50.0,20.0,-29.0,-119.0,0.0
-43.0,-31.0,72.0,59.0,35.0,0.0,63.0,16.0,-45.0,-130.0,0.0
-28.0,-12.0,56.0,46.0,53.0,2.0,123.0,3.0,-52.0,-127.0,0.0
1.0,26.0,-4.0,18.0,17.0,-4.0,177.0,0.0,-36.0,-131.0,0.0
14.0,26.0,0.0,5.0,7.0,-6.0,198.0,5.0,13.0,-133.0,0.0
5.0,29.0,309.0,104.0,53.0,2.0,227.0,2.0,32.0,-136.0,0.0
11.0,44.0,490.0,195.0,97.0,9.0,236.0,-8.0,19.0,-145.0,0.0
1.0,49.0,392.0,161.0,42.0,-6.0,201.0,-19.0,-1.0,-145.0,0.0
-21.0,23.0,8.0,79.0,-10.0,-26.0,183.0,-34.0,-17.0,-148.0,0.0
-10.0,-4.0,-310.0,38.0,-23.0,-5.0,190.0,-20.0,-10.0,-136.0,0.0
7.0,-20.0,-254.0,-19.0,-13.0,36.0,170.0,8.0,-9.0,-111.0,0.0
14.0,-9.0,-199.0,-157.0,-47.0,19.0,158.0,15.0,-3.0,-86.0,0.0
10.0,-30.0,-200.0,-240.0,-53.0,-3.0,208.0,16.0,5.0,-73.0,0.0
-3.0,-41.0,-174.0,-159.0,-21.0,24.0,246.0,22.0,26.0,-64.0,0.0
-15.0,-25.0,-110.0,-68.0,-8.0,7.0,247.0,14.0,14.0,-52.0,0.0
-26.0,-10.0,-50.0,-2.0,-13.0,-16.0,254.0,0.0,20.0,-57.0,0.0
-13.0,13.0,2.0,34.0,-15.0,-32.0,286.0,-5.0,46.0,-58.0,0.0
-5.0,31.0,23.0,31.0,-26.0,-42.0,317.0,-17.0,29.0,-54.0,0.0
-15.0,22.0,49.0,76.0,-16.0,-47.0,326.0,-31.0,-14.0,-69.0,0.0
-21.0,9.0,108.0,105.0,9.0,-50.0,312.0,-31.0,-29.0,-79.0,0.0
-10.0,3.0,78.0,31.0,25.0,-52.0,306.0,-25.0,-23.0,-73.0,0.0
0.0,-22.0,-92.0,-19.0,50.0,-24.0,301.0,-7.0,-21.0,-34.0,0.0
1.0,-62.0,-207.0,-68.0,55.0,9.0,302.0,29.0,2.0,11.0,0.0
20.0,-71.0,-158.0,-47.0,58.0,41.0,267.0,43.0,10.0,39.0,0.0
30.0,-60.0,-66.0,35.0,37.0,61.0,232.0,62.0,14.0,64.0,0.0
44.0,-13.0,7.0,87.0,3.0,77.0,235.0,70.0,34.0,72.0,0.0
63.0,28.0,9.0,13.0,-8.0,54.0,235.0,66.0,24.0,63.0,0.0
39.0,39.0,24.0,-5.0,41.0,31.0,189.0,30.0,0.0,42.0,0.0
20.0,42.0,48.0,41.0,82.0,24.0,171.0,-10.0,-12.0,26.0,0.0
1.0,10.0,27.0,57.0,78.0,32.0,170.0,-17.0,-26.0,24.0,0.0
-14.0,-7.0,-10.0,37.0,57.0,23.0,176.0,-3.0,-20.0,26.0,0.0
5.0,-7.0,40.0,-96.0,-57.0,4.0,157.0,-8.0,-35.0,9.0,0.0
-9.0,-37.0,54.0,-67.0,-47.0,1.0,156.0,-17.0,-33.0,13.0,0.0
-26.0,-27.0,80.0,-39.0,-44.0,1.0,143.0,-18.0,-18.0,26.0,0.0
-19.0,-25.0,80.0,4.0,-26.0,-4.0,123.0,-32.0,-20.0,28.0,0.0
-1.0,-30.0,118.0,64.0,6.0,1.0,91.0,-38.0,-48.0,22.0,0.0
-11.0,-32.0,172.0,92.0,20.0,3.0,55.0,-35.0,-58.0,13.0,0.0
-7.0,-26.0,13.0,83.0,24.0,13.0,17.0,-23.0,-32.0,17.0,0.0
23.0,21.0,-161.0,46.0,38.0,46.0,6.0,10.0,9.0,57.0,0.0
40.0,122.0,-33.0,36.0,28.0,40.0,21.0,9.0,50.0,68.0,0.0
49.0,118.0,5.0,81.0,31.0,35.0,32.0,9.0,67.0,94.0,0.0
38.0,7.0,-65.0,72.0,53.0,50.0,29.0,28.0,60.0,112.0,0.0
15.0,-70.0,-91.0,8.0,51.0,59.0,33.0,35.0,35.0,107.0,0.0
0.0,-84.0,-45.0,-66.0,2.0,29.0,20.0,27.0,16.0,94.0,0.0
17.0,-80.0,-55.0,-101.0,-21.0,8.0,9.0,32.0,5.0,100.0,0.0
28.0,-107.0,-29.0,-93.0,-9.0,5.0,33.0,37.0,1.0,112.0,0.0
15.0,-125.0,7.0,-83.0,-27.0,-11.0,45.0,17.0,-1.0,88.0,0.0
-15.0,-168.0,-37.0,-22.0,-33.0,-22.0,33.0,7.0,-3.0,54.0,0.0
-42.0,-135.0,-87.0,120.0,5.0,-24.0,29.0,-19.0,-13.0,10.0,0.0
-40.0,146.0,62.0,228.0,44.0,-41.0,13.0,-57.0,-36.0,-13.0,0.0
1.0,363.0,172.0,133.0,49.0,-40.0,10.0,-44.0,-22.0,27.0,0.0
28.0,262.0,49.0,-18.0,35.0,-24.0,25.0,8.0,21.0,104.0,0.0
30.0,109.0,-4.0,-63.0,6.0,-7.0,14.0,37.0,27.0,134.0,0.0
28.0,19.0,-58.0,-59.0,-6.0,5.0,-2.0,38.0,30.0,138.0,0.0
27.0,14.0,-60.0,-52.0,-20.0,3.0,-27.0,36.0,18.0,144.0,0.0
28.0,43.0,-64.0,-52.0,-51.0,7.0,-47.0,32.0,-12.0,158.0,0.0
25.0,24.0,-138.0,-26.0,-29.0,4.0,-65.0,20.0,-22.0,149.0,0.0
26.0,26.0,-131.0,6.0,24.0,3.0,-99.0,8.0,-46.0,143.0,0.0
9.0,20.0,-129.0,0.0,9.0,4.0,-71.0,18.0,-35.0,135.0,0.0
24.0,26.0,-110.0,-27.0,-27.0,1.0,-17.0,17.0,17.0,146.0,0.0
30.0,39.0,-6.0,-17.0,-38.0,3.0,4.0,21.0,82.0,159.0,0.0
24.0,24.0,80.0,11.0,-17.0,19.0,-2.0,27.0,65.0,149.0,0.0
12.0,10.0,105.0,46.0,20.0,23.0,-16.0,27.0,18.0,128.0,0.0
-16.0,-6.0,127.0,142.0,24.0,19.0,-32.0,21.0,5.0,122.0,0.0
-29.0,-16.0,156.0,161.0,31.0,7.0,0.0,28.0,0.0,131.0,0.0
-34.0,-16.0,182.0,114.0,65.0,16.0,20.0,21.0,-23.0,124.0,0.0
-37.0,-26.0,200.0,59.0,56.0,-1.0,8.0,23.0,-39.0,129.0,0.0
-40.0,-26.0,201.0,29.0,19.0,-13.0,0.0,6.0,-44.0,158.0,0.0
-57.0,-18.0,210.0,38.0,-25.0,-27.0,1.0,-12.0,-58.0,168.0,0.0
-54.0,1.0,136.0,-5.0,-62.0,-32.0,12.0,-10.0,-30.0,208.0,0.0
-3.0,-2.0,-8.0,-103.0,-67.0,-16.0,26.0,20.0,37.0,256.0,0.0
16.0,-8.0,-53.0,-191.0,-64.0,-3.0,50.0,16.0,82.0,279.0,0.0
4.0,-21.0,-50.0,-170.0,-55.0,14.0,36.0,19.0,83.0,284.0,0.0
1.0,-24.0,-116.0,-135.0,-30.0,33.0,28.0,22.0,72.0,298.0,0.0
3.0,-28.0,-70.0,-113.0,-24.0,37.0,27.0,20.0,55.0,310.0,0.0
0.0,-34.0,18.0,-48.0,-8.0,28.0,19.0,20.0,22.0,289.0,0.0
-18.0,-18.0,257.0,45.0,22.0,17.0,-5.0,7.0,-12.0,262.0,0.0
-20.0,0.0,406.0,90.0,41.0,2.0,-6.0,-14.0,-43.0,224.0,0.0
-20.0,1.0,298.0,67.0,40.0,-1.0,3.0,-25.0,-59.0,210.0,0.0
-5.0,-29.0,5.0,-25.0,20.0,-4.0,16.0,-34.0,-58.0,229.0,0.0
37.0,-12.0,-224.0,-109.0,5.0,11.0,35.0,-11.0,-17.0,256.0,0.0
56.0,12.0,-241.0,-157.0,-6.0,23.0,53.0,9.0,32.0,273.0,0.0
47.0,21.0,-200.0,-192.0,-37.0,3.0,73.0,10.0,62.0,277.0,0.0
44.0,24.0,-163.0,-178.0,-62.0,-15.0,77.0,-3.0,54.0,281.0,0.0
46.0,28.0,-90.0,-114.0,-48.0,-17.0,36.0,2.0,55.0,299.0,0.0
41.0,29.0,-8.0,22.0,-22.0,-3.0,19.0,20.0,57.0,302.0,0.0
34.0,17.0,46.0,103.0,-1.0,6.0,0.0,33.0,55.0,302.0,0.0
16.0,-8.0,29.0,64.0,15.0,11.0,-25.0,38.0,55.0,293.0,0.0
11.0,-12.0,25.0,38.0,16.0,4.0,-52.0,32.0,37.0,297.0,0.0
-6.0,-11.0,62.0,63.0,29.0,7.0,-105.0,20.0,22.0,296.0,0.0
-13.0,-13.0,84.0,98.0,49.0,34.0,-106.0,7.0,24.0,302.0,0.0
-16.0,-30.0,57.0,94.0,52.0,32.0,-80.0,7.0,39.0,312.0,0.0
-24.0,-56.0,13.0,41.0,24.0,45.0,-78.0,1.0,54.0,283.0,0.0
-26.0,-62.0,-2.0,-18.0,13.0,19.0,-79.0,-15.0,17.0,245.0,0.0
-26.0,-29.0,-12.0,-36.0,27.0,6.0,-65.0,-26.0,-5.0,235.0,0.0
-4.0,40.0,-1.0,-19.0,22.0,5.0,-66.0,-20.0,-34.0,231.0,0.0
-12.0,45.0,-12.0,-3.0,-2.0,8.0,-79.0,-12.0,-50.0,230.0,0.0
0.0,9.0,-33.0,7.0,-28.0,9.0,-57.0,0.0,-44.0,232.0,0.0
8.0,0.0,7.0,1.0,-54.0,13.0,-38.0,-2.0,-45.0,217.0,0.0
-7.0,18.0,35.0,-61.0,-89.0,18.0,-16.0,2.0,-62.0,199.0,0.0
-20.0,23.0,7.0,-105.0,-53.0,29.0,14.0,5.0,-39.0,214.0,0.0
-32.0,24.0,-1.0,-77.0,4.0,6.0,29.0,-12.0,0.0,196.0,0.0
-33.0,4.0,-19.0,-39.0,102.0,-3.0,21.0,-23.0,32.0,168.0,0.0
-12.0,-7.0,-34.0,-74.0,155.0,-9.0,17.0,4.0,55.0,196.0,0.0
-6.0,-31.0,-64.0,-68.0,131.0,-15.0,12.0,11.0,29.0,208.0,0.0
-28.0,-38.0,-123.0,11.0,61.0,-23.0,6.0,0.0,-2.0,179.0,0.0
-53.0,-58.0,-104.0,103.0,6.0,-25.0,7.0,-25.0,-38.0,157.0,0.0
-44.0,-61.0,-34.0,181.0,-33.0,-14.0,26.0,-28.0,-37.0,154.0,0.0
1.0,-17.0,-1.0,193.0,-34.0,7.0,52.0,17.0,5.0,194.0,0.0
55.0,-6.0,-72.0,57.0,-32.0,35.0,111.0,54.0,47.0,248.0,0.0
64.0,-29.0,-75.0,-6.0,-33.0,13.0,136.0,46.0,16.0,251.0,0.0
49.0,-21.0,-6.0,3.0,-25.0,19.0,157.0,32.0,19.0,229.0,0.0
39.0,-26.0,16.0,30.0,-5.0,11.0,176.0,29.0,31.0,213.0,0.0
30.0,-33.0,20.0,46.0,15.0,3.0,197.0,14.0,35.0,197.0,0.0
15.0,-15.0,27.0,25.0,0.0,2.0,218.0,6.0,26.0,180.0,0.0
19.0,13.0,13.0,-4.0,-14.0,25.0,263.0,-2.0,24.0,161.0,0.0
20.0,5.0,3.0,-16.0,-6.0,24.0,278.0,3.0,25.0,167.0,0.0
15.0,-29.0,-16.0,13.0,11.0,42.0,303.0,12.0,21.0,163.0,0.0
16.0,-47.0,-20.0,58.0,40.0,52.0,265.0,6.0,9.0,143.0,0.0
15.0,-35.0,-16.0,67.0,45.0,41.0,227.0,3.0,8.0,142.0,0.0
4.0,-14.0,10.0,67.0,12.0,22.0,214.0,0.0,-20.0,143.0,0.0
0.0,-1.0,14.0,38.0,-5.0,1.0,194.0,-15.0,-30.0,132.0,0.0
-11.0,-34.0,-129.0,6.0,10.0,18.0,200.0,-4.0,2.0,132.0,0.0
-22.0,-52.0,-118.0,-38.0,-19.0,22.0,196.0,3.0,20.0,139.0,0.0
-12.0,-32.0,57.0,-85.0,-72.0,-14.0,192.0,-12.0,25.0,136.0,0.0
2.0,-26.0,121.0,-48.0,-72.0,-26.0,230.0,-28.0,26.0,134.0,0.0
-8.0,-50.0,112.0,-2.0,-39.0,-10.0,251.0,-21.0,22.0,144.0,0.0
-19.0,-54.0,71.0,14.0,-33.0,-3.0,240.0,-17.0,7.0,131.0,0.0
19.0,84.0,71.0,13.0,-37.0,-32.0,244.0,-41.0,-19.0,118.0,0.0
47.0,198.0,83.0,24.0,-14.0,-41.0,274.0,-50.0,-33.0,104.0,0.0
17.0,151.0,49.0,35.0,10.0,-34.0,306.0,-46.0,-41.0,90.0,0.0
-6.0,81.0,26.0,25.0,13.0,-21.0,324.0,-36.0,-41.0,78.0,0.0
-20.0,52.0,40.0,10.0,0.0,-15.0,322.0,-34.0,-34.0,68.0,0.0
4.0,43.0,51.0,3.0,7.0,4.0,305.0,-34.0,23.0,55.0,0.0
10.0,28.0,33.0,6.0,12.0,0.0,291.0,-21.0,51.0,57.0,0.0
-2.0,11.0,6.0,5.0,7.0,-6.0,284.0,-8.0,54.0,47.0,0.0
-19.0,-11.0,-10.0,21.0,11.0,-8.0,241.0,-8.0,45.0,23.0,0.0
-51.0,-44.0,19.0,82.0,33.0,8.0,195.0,-12.0,13.0,1.0,0.0
-56.0,-61.0,29.0,122.0,58.0,7.0,149.0,-23.0,-20.0,-21.0,0.0
-55.0,-69.0,4.0,129.0,84.0,-2.0,134.0,-34.0,-32.0,-40.0,0.0
-73.0,-104.0,-101.0,125.0,109.0,9.0,97.0,-16.0,-49.0,-60.0,0.0
-78.0,-123.0,-112.0,106.0,82.0,37.0,96.0,3.0,-44.0,-68.0,0.0
-63.0,-133.0,-68.0,93.0,40.0,22.0,110.0,0.0,-35.0,-72.0,0.0
-43.0,-158.0,-8.0,108.0,26.0,44.0,132.0,8.0,-21.0,-75.0,0.0
-5.0,-175.0,-12.0,18.0,-37.0,21.0,107.0,15.0,-151.0,-74.0,0.0
2.0,-24.0,47.0,5.0,-39.0,-13.0,122.0,-12.0,-88.0,-116.0,0.0
-10.0,162.0,96.0,104.0,0.0,-15.0,139.0,-48.0,-29.0,-143.0,0.0
11.0,217.0,93.0,112.0,37.0,-41.0,130.0,-53.0,-41.0,-132.0,0.0
22.0,171.0,85.0,173.0,95.0,-35.0,142.0,-47.0,-21.0,-119.0,0.0
39.0,133.0,92.0,190.0,62.0,-20.0,146.0,-30.0,15.0,-84.0,0.0
55.0,117.0,60.0,56.0,19.0,-7.0,116.0,0.0,30.0,-68.0,0.0
59.0,102.0,-90.0,-169.0,-53.0,6.0,81.0,17.0,39.0,-61.0,0.0
68.0,96.0,-101.0,-329.0,-153.0,-27.0,43.0,18.0,41.0,-53.0,0.0
32.0,76.0,78.0,-242.0,-157.0,-58.0,-19.0,-11.0,3.0,-80.0,0.0
21.0,58.0,134.0,-161.0,-135.0,-74.0,-78.0,-38.0,-39.0,-116.0,0.0
20.0,32.0,57.0,-136.0,-123.0,-61.0,-101.0,-28.0,-37.0,-113.0,0.0
28.0,11.0,-16.0,-84.0,-82.0,-49.0,-119.0,-16.0,-30.0,-113.0,0.0
27.0,-1.0,2.0,-25.0,-38.0,-34.0,-125.0,-2.0,-18.0,-127.0,0.0
27.0,-7.0,29.0,-15.0,-11.0,-3.0,-119.0,9.0,8.0,-139.0,0.0
21.0,8.0,7.0,-17.0,29.0,25.0,-101.0,4.0,32.0,-151.0,0.0
19.0,18.0,0.0,-17.0,39.0,37.0,-79.0,3.0,34.0,-130.0,0.0
15.0,12.0,70.0,-7.0,51.0,25.0,-96.0,10.0,22.0,-129.0,0.0
-3.0,9.0,69.0,33.0,60.0,22.0,-103.0,6.0,0.0,-139.0,0.0
8.0,-8.0,21.0,8.0,40.0,18.0,-111.0,23.0,1.0,-132.0,0.0
21.0,1.0,3.0,-21.0,-5.0,14.0,-117.0,29.0,18.0,-130.0,0.0
16.0,-18.0,6.0,-47.0,-37.0,-22.0,-138.0,13.0,-6.0,-146.0,0.0
13.0,-32.0,-8.0,-82.0,-67.0,-32.0,-156.0,5.0,-12.0,-156.0,0.0
17.0,-33.0,-33.0,-92.0,-57.0,-36.0,-171.0,3.0,-22.0,-149.0,0.0
22.0,-44.0,-81.0,-103.0,-37.0,-36.0,-171.0,21.0,-1.0,-130.0,0.0
20.0,-58.0,-118.0,-70.0,-33.0,-22.0,-176.0,24.0,31.0,-105.0,0.0
9.0,-37.0,-146.0,-19.0,-18.0,10.0,-195.0,14.0,38.0,-94.0,0.0
11.0,-21.0,-146.0,6.0,-13.0,29.0,-205.0,6.0,43.0,-90.0,0.0
5.0,-27.0,-171.0,3.0,-7.0,28.0,-229.0,15.0,59.0,-79.0,0.0
-20.0,-68.0,-175.0,0.0,-2.0,32.0,-274.0,34.0,46.0,-80.0,0.0
-18.0,-74.0,-129.0,7.0,11.0,38.0,-279.0,26.0,10.0,-98.0,0.0
-5.0,-24.0,-3.0,19.0,5.0,19.0,-254.0,9.0,-28.0,-118.0,0.0
-16.0,1.0,82.0,14.0,-4.0,14.0,-223.0,2.0,-42.0,-111.0,0.0
-31.0,14.0,143.0,24.0,2.0,10.0,-246.0,4.0,-39.0,-112.0,0.0
-49.0,72.0,329.0,78.0,42.0,23.0,-252.0,0.0,-63.0,-129.0,0.0
-40.0,96.0,541.0,127.0,60.0,16.0,-215.0,-16.0,-67.0,-145.0,0.0
-40.0,73.0,469.0,108.0,45.0,3.0,-151.0,-25.0,-56.0,-134.0,0.0
-40.0,53.0,190.0,42.0,14.0,-31.0,-130.0,-24.0,-33.0,-113.0,0.0
-9.0,35.0,-188.0,-50.0,-13.0,-37.0,-103.0,1.0,-18.0,-85.0,0.0
28.0,25.0,-381.0,-70.0,-12.0,0.0,-99.0,47.0,6.0,-49.0,0.0
30.0,7.0,-352.0,-45.0,0.0,24.0,-94.0,62.0,34.0,-58.0,0.0
20.0,-10.0,-194.0,-15.0,28.0,52.0,-127.0,53.0,40.0,-87.0,0.0
8.0,-30.0,-127.0,19.0,45.0,47.0,-158.0,51.0,17.0,-96.0,0.0
3.0,-32.0,-113.0,27.0,50.0,32.0,-166.0,48.0,20.0,-108.0,0.0
-4.0,-37.0,-97.0,18.0,47.0,29.0,-202.0,32.0,12.0,-125.0,0.0
-3.0,-39.0,15.0,35.0,50.0,20.0,-234.0,20.0,-8.0,-145.0,0.0
12.0,-33.0,53.0,20.0,69.0,45.0,-218.0,24.0,-5.0,-141.0,0.0
23.0,-16.0,14.0,-41.0,69.0,82.0,-167.0,51.0,28.0,-98.0,0.0
18.0,20.0,-5.0,-86.0,50.0,79.0,-135.0,63.0,46.0,-84.0,0.0
-1.0,68.0,54.0,-116.0,13.0,19.0,-124.0,13.0,22.0,-124.0,0.0
-32.0,56.0,41.0,-169.0,-30.0,-28.0,-116.0,-19.0,-5.0,-149.0,0.0
-53.0,9.0,-49.0,-246.0,-89.0,-56.0,-109.0,-28.0,-23.0,-137.0,0.0
-33.0,-21.0,-207.0,-306.0,-142.0,-49.0,-90.0,0.0,4.0,-109.0,0.0
-12.0,-16.0,-182.0,-104.0,-98.0,-28.0,-58.0,33.0,22.0,-87.0,0.0
16.0,21.0,12.0,178.0,-40.0,-23.0,-18.0,31.0,12.0,-76.0,0.0
41.0,37.0,89.0,201.0,-21.0,-17.0,-9.0,29.0,13.0,-70.0,0.0
37.0,17.0,46.0,99.0,24.0,3.0,-54.0,31.0,3.0,-64.0,0.0
21.0,-3.0,4.0,32.0,59.0,7.0,-101.0,30.0,-9.0,-82.0,0.0
-6.0,15.0,75.0,28.0,4.0,-23.0,-117.0,1.0,-30.0,-93.0,0.0
-22.0,30.0,129.0,70.0,-31.0,-35.0,-98.0,-10.0,-18.0,-75.0,0.0
-16.0,40.0,135.0,83.0,-10.0,-30.0,-84.0,-2.0,21.0,-34.0,0.0
-14.0,20.0,78.0,44.0,19.0,-18.0,-73.0,12.0,62.0,2.0,0.0
-13.0,-17.0,26.0,28.0,39.0,-6.0,-54.0,21.0,56.0,21.0,0.0
-9.0,-27.0,39.0,103.0,84.0,9.0,-52.0,6.0,13.0,23.0,0.0
7.0,42.0,57.0,146.0,101.0,17.0,-48.0,-20.0,-15.0,12.0,0.0
27.0,91.0,-25.0,110.0,73.0,22.0,-26.0,-22.0,-23.0,15.0,0.0
45.0,64.0,-83.0,52.0,24.0,22.0,10.0,-5.0,-18.0,40.0,0.0
38.0,32.0,14.0,57.0,-3.0,-1.0,35.0,-4.0,-29.0,46.0,0.0
21.0,22.0,86.0,81.0,2.0,7.0,62.0,-6.0,-44.0,35.0,0.0
23.0,12.0,121.0,29.0,-12.0,5.0,97.0,1.0,-10.0,28.0,0.0
5.0,21.0,123.0,-31.0,-38.0,12.0,141.0,1.0,23.0,9.0,0.0
-25.0,33.0,83.0,-12.0,-22.0,6.0,180.0,0.0,41.0,-2.0,0.0
-38.0,33.0,57.0,10.0,19.0,18.0,164.0,3.0,50.0,6.0,0.0
-47.0,10.0,7.0,13.0,33.0,17.0,150.0,-4.0,6.0,7.0,0.0
-44.0,-1.0,-10.0,9.0,21.0,17.0,143.0,-1.0,-7.0,8.0,0.0
-30.0,-9.0,-21.0,-5.0,4.0,15.0,130.0,13.0,3.0,23.0,0.0
-21.0,-14.0,-14.0,-12.0,4.0,5.0,103.0,18.0,-4.0,27.0,0.0
-27.0,-26.0,10.0,30.0,26.0,9.0,67.0,6.0,-8.0,33.0,0.0
-40.0,-30.0,37.0,70.0,49.0,7.0,35.0,-11.0,-28.0,31.0,0.0
-54.0,-28.0,42.0,86.0,59.0,25.0,37.0,-13.0,-34.0,35.0,0.0
-51.0,-48.0,28.0,80.0,82.0,37.0,62.0,-3.0,-8.0,35.0,0.0
-55.0,-90.0,-46.0,33.0,71.0,49.0,121.0,12.0,20.0,48.0,0.0
-38.0,-94.0,-137.0,-14.0,33.0,49.0,161.0,21.0,60.0,59.0,0.0
-9.0,-67.0,-77.0,-48.0,-4.0,18.0,189.0,16.0,80.0,53.0,0.0
-4.0,-81.0,-57.0,-75.0,-18.0,5.0,202.0,22.0,63.0,37.0,0.0
-22.0,-133.0,-80.0,-65.0,-22.0,-3.0,197.0,17.0,33.0,2.0,0.0
-30.0,-179.0,-4.0,-15.0,-9.0,-16.0,242.0,1.0,21.0,-14.0,0.0
-28.0,-137.0,18.0,50.0,14.0,-14.0,271.0,-3.0,-9.0,-11.0,0.0
0.0,48.0,45.0,44.0,8.0,-27.0,268.0,-17.0,-32.0,-28.0,0.0
2.0,150.0,124.0,40.0,17.0,-19.0,292.0,-16.0,-31.0,-29.0,0.0
2.0,90.0,70.0,14.0,23.0,0.0,305.0,-12.0,-25.0,-17.0,0.0
5.0,52.0,-6.0,-51.0,0.0,7.0,310.0,3.0,4.0,-3.0,0.0
29.0,90.0,-69.0,-161.0,3.0,29.0,313.0,37.0,52.0,34.0,0.0
58.0,118.0,-95.0,-189.0,31.0,53.0,310.0,51.0,91.0,41.0,0.0
53.0,98.0,-20.0,102.0,106.0,58.0,302.0,31.0,85.0,16.0,0.0
25.0,60.0,34.0,463.0,152.0,62.0,300.0,3.0,34.0,3.0,0.0
4.0,23.0,25.0,447.0,105.0,67.0,326.0,2.0,0.0,-12.0,0.0
-1.0,-11.0,64.0,293.0,-3.0,37.0,341.0,-2.0,-19.0,-20.0,0.0
19.0,-16.0,69.0,88.0,-86.0,6.0,348.0,-11.0,-25.0,4.0,0.0
60.0,87.0,55.0,-184.0,-124.0,-14.0,393.0,0.0,-32.0,38.0,0.0
80.0,200.0,39.0,-385.0,-121.0,-21.0,439.0,1.0,-33.0,63.0,0.0
58.0,154.0,6.0,-437.0,-130.0,-22.0,447.0,4.0,-31.0,67.0,0.0
35.0,76.0,-5.0,-311.0,-122.0,-27.0,468.0,15.0,-21.0,69.0,0.0
44.0,55.0,-4.0,-193.0,-94.0,-30.0,521.0,9.0,-2.0,86.0,0.0
39.0,54.0,-11.0,-159.0,-53.0,-24.0,535.0,12.0,30.0,105.0,0.0
42.0,36.0,-18.0,-120.0,-5.0,-13.0,525.0,34.0,42.0,134.0,0.0
33.0,3.0,-20.0,-89.0,9.0,-19.0,514.0,45.0,29.0,131.0,0.0
19.0,-13.0,-28.0,-50.0,-5.0,-8.0,461.0,31.0,25.0,133.0,0.0
-17.0,-32.0,-23.0,-6.0,3.0,-28.0,390.0,-2.0,-9.0,124.0,0.0
-36.0,-30.0,-19.0,-25.0,33.0,-31.0,335.0,-18.0,-20.0,124.0,0.0
-33.0,-40.0,-18.0,-25.0,33.0,-16.0,282.0,-21.0,-25.0,144.0,0.0
-20.0,-9.0,50.0,87.0,52.0,-5.0,256.0,-11.0,1.0,163.0,0.0
4.0,52.0,125.0,220.0,96.0,14.0,255.0,11.0,82.0,179.0,0.0
24.0,61.0,122.0,117.0,72.0,45.0,268.0,29.0,100.0,213.0,0.0
23.0,44.0,86.0,-7.0,17.0,51.0,280.0,49.0,105.0,226.0,0.0
6.0,29.0,33.0,3.0,10.0,46.0,245.0,40.0,126.0,206.0,0.0
-4.0,35.0,-43.0,92.0,35.0,30.0,187.0,2.0,87.0,170.0,0.0
2.0,47.0,20.0,118.0,39.0,29.0,168.0,-3.0,56.0,162.0,0.0
5.0,21.0,80.0,70.0,27.0,5.0,156.0,-14.0,-5.0,149.0,0.0
-2.0,-13.0,60.0,17.0,12.0,-4.0,142.0,-20.0,-62.0,144.0,0.0
8.0,-25.0,37.0,18.0,15.0,14.0,105.0,-6.0,-67.0,147.0,0.0
19.0,-36.0,-15.0,10.0,-3.0,11.0,66.0,3.0,-76.0,145.0,0.0
17.0,-20.0,26.0,10.0,-18.0,-7.0,21.0,-18.0,-93.0,125.0,0.0
-6.0,-5.0,80.0,60.0,-16.0,-39.0,-24.0,-45.0,-117.0,84.0,0.0
5.0,1.0,75.0,73.0,-10.0,-31.0,-79.0,-27.0,-56.0,98.0,0.0
7.0,-50.0,123.0,-1.0,-35.0,-28.0,-120.0,8.0,-26.0,122.0,0.0
1.0,-87.0,122.0,-23.0,-47.0,-1.0,-140.0,39.0,-3.0,108.0,0.0
0.0,-73.0,54.0,0.0,-30.0,11.0,-163.0,21.0,-8.0,88.0,0.0
10.0,-71.0,-98.0,-19.0,-18.0,-9.0,-178.0,-8.0,-17.0,57.0,0.0
21.0,-66.0,-396.0,-44.0,0.0,-3.0,-170.0,2.0,24.0,62.0,0.0
53.0,31.0,-274.0,-35.0,28.0,-4.0,-177.0,38.0,107.0,97.0,0.0
60.0,74.0,-54.0,-7.0,47.0,26.0,-171.0,56.0,120.0,106.0,0.0
48.0,14.0,-70.0,10.0,61.0,36.0,-185.0,58.0,106.0,107.0,0.0
37.0,-62.0,-175.0,29.0,62.0,21.0,-194.0,67.0,106.0,107.0,0.0
14.0,-127.0,-173.0,30.0,59.0,7.0,-195.0,62.0,38.0,85.0,0.0
-9.0,-153.0,-89.0,17.0,48.0,9.0,-183.0,60.0,-17.0,68.0,0.0
-5.0,-142.0,-78.0,15.0,28.0,0.0,-179.0,34.0,-52.0,60.0,0.0
0.0,-113.0,-15.0,9.0,1.0,-29.0,-170.0,0.0,-85.0,37.0,0.0
0.0,-103.0,12.0,-19.0,-6.0,-26.0,-171.0,-11.0,-56.0,24.0,0.0
33.0,-28.0,30.0,-48.0,-12.0,-15.0,-153.0,2.0,26.0,11.0,0.0
57.0,129.0,61.0,-84.0,-60.0,-49.0,-137.0,-30.0,3.0,-14.0,0.0
56.0,263.0,46.0,-109.0,-95.0,-68.0,-137.0,-60.0,-45.0,-35.0,0.0
50.0,220.0,22.0,-104.0,-90.0,-57.0,-153.0,-52.0,-52.0,-35.0,0.0
24.0,149.0,34.0,-65.0,-63.0,-41.0,-192.0,-53.0,-57.0,-30.0,0.0
18.0,92.0,55.0,-29.0,-54.0,-33.0,-240.0,-49.0,-66.0,-55.0,0.0
11.0,49.0,22.0,-8.0,-37.0,-23.0,-256.0,-36.0,-75.0,-61.0,0.0
14.0,40.0,-1.0,5.0,-19.0,-6.0,-263.0,-24.0,-63.0,-59.0,0.0
21.0,77.0,113.0,24.0,10.0,6.0,-264.0,-11.0,-21.0,-43.0,0.0
20.0,77.0,181.0,19.0,26.0,12.0,-249.0,-12.0,5.0,-63.0,0.0
-6.0,70.0,147.0,-20.0,3.0,-13.0,-249.0,-26.0,-2.0,-88.0,0.0
4.0,74.0,105.0,-31.0,1.0,-9.0,-244.0,-31.0,26.0,-74.0,0.0
7.0,61.0,56.0,-64.0,-7.0,-18.0,-231.0,-25.0,52.0,-55.0,0.0
3.0,11.0,-11.0,-104.0,-32.0,-30.0,-192.0,-25.0,26.0,-57.0,0.0
0.0,-38.0,-48.0,-113.0,-62.0,-35.0,-148.0,-28.0,-3.0,-62.0,0.0
10.0,-22.0,-55.0,-72.0,-55.0,-24.0,-124.0,-4.0,28.0,-55.0,0.0
5.0,4.0,-20.0,-4.0,-14.0,10.0,-111.0,29.0,75.0,-43.0,0.0
-7.0,-18.0,-5.0,57.0,14.0,19.0,-149.0,19.0,67.0,-49.0,0.0
-10.0,-51.0,-13.0,61.0,8.0,16.0,-179.0,-9.0,-3.0,-71.0,0.0
-3.0,-61.0,-29.0,111.0,30.0,17.0,-205.0,-7.0,-22.0,-66.0,0.0
-19.0,-64.0,-49.0,133.0,64.0,28.0,-207.0,-2.0,-21.0,-64.0,0.0
-14.0,-81.0,-130.0,72.0,95.0,45.0,-205.0,-8.0,-43.0,-66.0,0.0
-24.0,-76.0,-166.0,24.0,111.0,41.0,-213.0,-15.0,-50.0,-68.0,0.0
-59.0,-65.0,-43.0,8.0,121.0,23.0,-216.0,-32.0,-28.0,-74.0,0.0
-67.0,-73.0,9.0,51.0,89.0,-11.0,-194.0,-59.0,-19.0,-84.0,0.0
-62.0,-81.0,2.0,81.0,33.0,-39.0,-191.0,-59.0,-22.0,-89.0,0.0
-24.0,-40.0,6.0,37.0,-28.0,-27.0,-163.0,-24.0,33.0,-71.0,0.0
19.0,4.0,63.0,76.0,-61.0,-12.0,-142.0,8.0,96.0,-35.0,0.0
47.0,31.0,109.0,100.0,-65.0,2.0,-133.0,36.0,119.0,-7.0,0.0
51.0,33.0,65.0,-12.0,-88.0,0.0,-116.0,21.0,95.0,-1.0,0.0
27.0,0.0,34.0,-60.0,-57.0,-6.0,-100.0,-16.0,52.0,-32.0,0.0
12.0,-25.0,30.0,-31.0,-26.0,-16.0,-74.0,-34.0,3.0,-46.0,0.0
-6.0,-39.0,28.0,3.0,5.0,-16.0,-57.0,-31.0,-3.0,-41.0,0.0
-7.0,-38.0,25.0,47.0,54.0,-4.0,-63.0,-22.0,30.0,-33.0,0.0
-3.0,-45.0,15.0,41.0,66.0,4.0,-61.0,-16.0,35.0,-28.0,0.0
-16.0,-66.0,-1.0,21.0,32.0,-9.0,-66.0,-31.0,-15.0,-13.0,0.0
-15.0,-70.0,-12.0,13.0,9.0,5.0,-79.0,-23.0,-5.0,4.0,0.0
-19.0,-75.0,-24.0,-7.0,13.0,4.0,-84.0,1.0,13.0,5.0,0.0
-20.0,-52.0,-3.0,15.0,21.0,16.0,-86.0,0.0,0.0,6.0,0.0
-15.0,-57.0,16.0,32.0,28.0,7.0,-71.0,-22.0,-62.0,-2.0,0.0
-12.0,-85.0,10.0,30.0,39.0,15.0,-52.0,-26.0,-74.0,8.0,0.0
-8.0,-121.0,-8.0,35.0,39.0,18.0,-11.0,-19.0,-76.0,2.0,0.0
-23.0,-120.0,-12.0,67.0,52.0,30.0,30.0,-20.0,-72.0,-22.0,0.0
-38.0,-104.0,0.0,97.0,72.0,42.0,63.0,-29.0,-88.0,-53.0,0.0
-48.0,-97.0,54.0,131.0,91.0,27.0,73.0,-30.0,-84.0,-66.0,0.0
-55.0,-84.0,100.0,146.0,110.0,31.0,100.0,-22.0,2.0,-63.0,0.0
-52.0,-53.0,70.0,146.0,100.0,29.0,147.0,-21.0,24.0,-78.0,0.0
-40.0,16.0,157.0,122.0,65.0,7.0,196.0,-56.0,-7.0,-86.0,0.0
-6.0,107.0,143.0,61.0,21.0,-20.0,234.0,-58.0,11.0,-78.0,0.0
51.0,147.0,-3.0,-57.0,-15.0,-29.0,272.0,-40.0,28.0,-53.0,0.0
73.0,150.0,-115.0,-151.0,-49.0,-25.0,274.0,-6.0,61.0,-14.0,0.0
57.0,72.0,-149.0,-158.0,-49.0,-17.0,274.0,22.0,72.0,5.0,0.0
42.0,23.0,-38.0,-92.0,-31.0,3.0,235.0,25.0,26.0,7.0,0.0
28.0,-13.0,51.0,-15.0,-22.0,2.0,205.0,5.0,-19.0,2.0,0.0
-10.0,-78.0,61.0,17.0,-37.0,3.0,190.0,-14.0,-65.0,-18.0,0.0
-28.0,-92.0,-21.0,32.0,-39.0,-2.0,176.0,-16.0,-97.0,-31.0,0.0
-32.0,-94.0,-62.0,2.0,-23.0,17.0,190.0,12.0,-54.0,-10.0,0.0
-10.0,-115.0,-217.0,-88.0,-30.0,47.0,242.0,48.0,11.0,29.0,0.0
21.0,-26.0,-314.0,-130.0,-46.0,18.0,301.0,45.0,60.0,22.0,0.0
43.0,136.0,-220.0,-140.0,-48.0,0.0,330.0,28.0,54.0,6.0,0.0
36.0,166.0,-59.0,-10.0,-55.0,-18.0,341.0,13.0,63.0,0.0,0.0
24.0,127.0,16.0,74.0,-62.0,-33.0,341.0,4.0,33.0,-16.0,0.0
38.0,157.0,66.0,50.0,-22.0,-27.0,353.0,21.0,56.0,-7.0,0.0
20.0,95.0,72.0,49.0,-14.0,-20.0,348.0,7.0,7.0,-22.0,0.0
0.0,25.0,63.0,15.0,-31.0,0.0,346.0,9.0,-46.0,-37.0,0.0
16.0,43.0,53.0,-97.0,-66.0,23.0,314.0,31.0,1.0,-10.0,0.0
28.0,27.0,9.0,-187.0,-83.0,18.0,288.0,20.0,-12.0,1.0,0.0
26.0,14.0,-14.0,-181.0,-32.0,-23.0,270.0,-5.0,-16.0,1.0,0.0
15.0,4.0,-18.0,-189.0,26.0,-41.0,268.0,-7.0,15.0,0.0,0.0
7.0,13.0,-14.0,-121.0,37.0,-37.0,260.0,15.0,57.0,7.0,0.0
5.0,25.0,24.0,59.0,77.0,-18.0,219.0,22.0,87.0,-4.0,0.0
13.0,9.0,82.0,237.0,133.0,25.0,162.0,15.0,50.0,-12.0,0.0
33.0,10.0,133.0,153.0,44.0,33.0,109.0,28.0,12.0,11.0,0.0
35.0,6.0,130.0,25.0,-37.0,6.0,86.0,27.0,-6.0,6.0,0.0
16.0,-4.0,88.0,98.0,9.0,6.0,71.0,20.0,-8.0,-16.0,0.0
-2.0,-19.0,53.0,80.0,-11.0,-15.0,82.0,8.0,-41.0,-26.0,0.0
-13.0,-30.0,-27.0,-47.0,-71.0,-17.0,67.0,15.0,-37.0,-8.0,0.0
-34.0,-63.0,-96.0,-196.0,-124.0,-35.0,36.0,20.0,-42.0,3.0,0.0
-42.0,-60.0,-72.0,-183.0,-64.0,-17.0,41.0,43.0,8.0,9.0,0.0
-57.0,-35.0,-42.0,-90.0,1.0,9.0,65.0,43.0,78.0,18.0,0.0
-53.0,-29.0,-28.0,-60.0,-1.0,22.0,62.0,28.0,91.0,33.0,0.0
-47.0,-40.0,-32.0,-54.0,-21.0,10.0,45.0,16.0,70.0,36.0,0.0
-55.0,-61.0,-56.0,-49.0,-28.0,7.0,2.0,6.0,33.0,37.0,0.0
-71.0,-84.0,-79.0,-1.0,-17.0,5.0,-44.0,-14.0,-27.0,25.0,0.0
-86.0,-78.0,-118.0,84.0,8.0,-2.0,-104.0,-20.0,-42.0,4.0,0.0
-72.0,-42.0,-129.0,99.0,30.0,3.0,-148.0,-8.0,0.0,23.0,0.0
-62.0,-32.0,-122.0,67.0,37.0,0.0,-194.0,13.0,26.0,43.0,0.0
-58.0,-28.0,-74.0,54.0,56.0,11.0,-264.0,19.0,23.0,47.0,0.0
-36.0,-18.0,11.0,53.0,67.0,4.0,-306.0,5.0,9.0,43.0,0.0
-32.0,-24.0,34.0,43.0,53.0,13.0,-343.0,-7.0,-32.0,46.0,0.0
-22.0,-9.0,38.0,42.0,56.0,20.0,-374.0,0.0,3.0,54.0,0.0
-35.0,-6.0,31.0,33.0,49.0,27.0,-374.0,-1.0,21.0,73.0,0.0
-44.0,-47.0,9.0,22.0,17.0,35.0,-372.0,-11.0,-31.0,87.0,0.0
-24.0,-54.0,-1.0,30.0,3.0,29.0,-368.0,-11.0,-51.0,112.0,0.0
-13.0,-66.0,-1.0,27.0,15.0,13.0,-373.0,-3.0,-43.0,120.0,0.0
-14.0,-57.0,34.0,59.0,39.0,18.0,-389.0,2.0,16.0,122.0,0.0
-25.0,-27.0,162.0,95.0,67.0,5.0,-401.0,3.0,30.0,104.0,0.0
-49.0,-44.0,372.0,143.0,90.0,15.0,-400.0,0.0,0.0,80.0,0.0
-69.0,-74.0,377.0,182.0,103.0,8.0,-401.0,-10.0,-19.0,65.0,0.0
-83.0,-119.0,164.0,194.0,95.0,-17.0,-402.0,-24.0,-46.0,50.0,0.0
-73.0,-169.0,-112.0,144.0,81.0,-24.0,-406.0,-27.0,-47.0,37.0,0.0
-41.0,-187.0,-272.0,59.0,56.0,-26.0,-407.0,-32.0,-76.0,39.0,0.0
-16.0,-56.0,-224.0,33.0,66.0,17.0,-393.0,-2.0,-42.0,68.0,0.0
-18.0,99.0,-208.0,16.0,57.0,14.0,-387.0,8.0,39.0,86.0,0.0
-21.0,87.0,-186.0,8.0,50.0,6.0,-404.0,2.0,69.0,88.0,0.0
14.0,94.0,-33.0,-10.0,27.0,-8.0,-424.0,5.0,52.0,100.0,0.0
42.0,148.0,45.0,-63.0,-13.0,-47.0,-433.0,8.0,4.0,86.0,0.0
25.0,147.0,129.0,-41.0,-19.0,-31.0,-422.0,11.0,-50.0,57.0,0.0
3.0,105.0,200.0,-3.0,5.0,35.0,-441.0,21.0,-76.0,38.0,0.0
6.0,77.0,146.0,-37.0,-9.0,51.0,-438.0,15.0,-93.0,35.0,0.0
5.0,91.0,149.0,-29.0,-81.0,-8.0,-412.0,-13.0,-95.0,21.0,0.0
-4.0,83.0,50.0,-61.0,-82.0,-28.0,-417.0,-2.0,-39.0,26.0,0.0
14.0,38.0,-94.0,-147.0,-72.0,-32.0,-408.0,14.0,-26.0,39.0,0.0
20.0,37.0,-126.0,-174.0,-60.0,-42.0,-366.0,0.0,-9.0,25.0,0.0
14.0,25.0,-135.0,-149.0,-75.0,-51.0,-325.0,8.0,38.0,16.0,0.0
26.0,43.0,-154.0,-106.0,-29.0,-19.0,-306.0,53.0,111.0,8.0,0.0
59.0,42.0,-259.0,-151.0,-8.0,41.0,-293.0,95.0,137.0,30.0,0.0
63.0,23.0,-247.0,-144.0,20.0,70.0,-280.0,91.0,135.0,25.0,0.0
13.0,-4.0,-150.0,17.0,38.0,41.0,-313.0,38.0,31.0,-44.0,0.0
-12.0,-34.0,-91.0,102.0,6.0,2.0,-349.0,-13.0,-59.0,-95.0,0.0
-10.0,-21.0,-27.0,67.0,-47.0,-6.0,-362.0,-16.0,-49.0,-94.0,0.0
1.0,18.0,35.0,88.0,-75.0,-13.0,-376.0,10.0,-30.0,-79.0,0.0
12.0,54.0,107.0,42.0,-72.0,7.0,-359.0,32.0,7.0,-63.0,0.0
20.0,65.0,98.0,-42.0,-79.0,4.0,-329.0,22.0,21.0,-58.0,0.0
18.0,33.0,69.0,-43.0,-87.0,-13.0,-281.0,8.0,-4.0,-62.0,0.0
0.0,-10.0,37.0,-12.0,-75.0,-13.0,-252.0,-2.0,-56.0,-61.0,0.0
-16.0,-21.0,11.0,0.0,-33.0,1.0,-232.0,-19.0,-52.0,-84.0,0.0
-32.0,-40.0,-14.0,-23.0,-27.0,23.0,-212.0,-7.0,-20.0,-97.0,0.0
-42.0,-55.0,-17.0,-24.0,-28.0,13.0,-180.0,-1.0,-17.0,-98.0,0.0
-60.0,-52.0,-20.0,-17.0,-19.0,0.0,-157.0,-19.0,-19.0,-89.0,0.0
-31.0,-40.0,-16.0,-12.0,-23.0,-4.0,-162.0,-25.0,-44.0,-96.0,0.0
-17.0,-31.0,18.0,4.0,-21.0,-5.0,-150.0,-18.0,-49.0,-114.0,0.0
-5.0,23.0,56.0,24.0,1.0,-4.0,-140.0,-5.0,7.0,-115.0,0.0
5.0,9.0,43.0,21.0,10.0,-7.0,-133.0,-7.0,-8.0,-105.0,0.0
19.0,6.0,38.0,15.0,20.0,0.0,-133.0,-17.0,-22.0,-90.0,0.0
39.0,33.0,43.0,23.0,36.0,-9.0,-130.0,-9.0,12.0,-80.0,0.0
47.0,43.0,50.0,34.0,42.0,-6.0,-126.0,-6.0,33.0,-82.0,0.0
49.0,35.0,48.0,26.0,41.0,0.0,-129.0,-1.0,30.0,-78.0,0.0
36.0,34.0,20.0,24.0,49.0,2.0,-112.0,5.0,41.0,-77.0,0.0
37.0,26.0,27.0,33.0,45.0,0.0,-87.0,7.0,38.0,-88.0,0.0
38.0,28.0,69.0,56.0,62.0,0.0,-62.0,-10.0,45.0,-97.0,0.0
33.0,25.0,56.0,64.0,80.0,16.0,-31.0,-11.0,57.0,-94.0,0.0
14.0,17.0,47.0,54.0,78.0,8.0,-29.0,-9.0,42.0,-96.0,0.0
0.0,-9.0,5.0,38.0,54.0,-1.0,-21.0,-8.0,-13.0,-107.0,0.0
-1.0,-35.0,-99.0,21.0,32.0,-4.0,-9.0,-1.0,-32.0,-112.0,0.0
-9.0,-62.0,-172.0,10.0,-17.0,-1.0,16.0,-4.0,-67.0,-114.0,0.0
