channel0,channel1,channel2,channel3,channel4,channel5,channel6,channel7,channel8,channel9,true_locs
50.0,15.0,23.0,-21.0,-4.0,-10.0,-28.0,20.0,38.0,66.0,0.0
56.0,14.0,29.0,-6.0,-7.0,-16.0,-50.0,5.0,-1.0,18.0,0.0
49.0,10.0,26.0,-1.0,-5.0,-16.0,-55.0,8.0,-4.0,-69.0,0.0
6.0,0.0,0.0,-13.0,-4.0,7.0,-5.0,21.0,28.0,-130.0,0.0
-20.0,-3.0,2.0,-4.0,3.0,31.0,39.0,21.0,19.0,-160.0,0.0
-26.0,-3.0,12.0,-4.0,1.0,25.0,25.0,7.0,-11.0,-172.0,0.0
-69.0,-22.0,-1.0,-16.0,-10.0,5.0,2.0,-3.0,-8.0,-152.0,0.0
-61.0,-24.0,-5.0,-12.0,-5.0,5.0,0.0,29.0,37.0,-82.0,0.0
-25.0,-8.0,-11.0,2.0,-1.0,8.0,9.0,50.0,59.0,-37.0,0.0
0.0,11.0,-2.0,6.0,-3.0,-5.0,-10.0,23.0,26.0,6.0,0.0
1.0,28.0,-19.0,11.0,-5.0,5.0,-20.0,13.0,15.0,65.0,0.0
-14.0,13.0,-20.0,-11.0,-18.0,4.0,-8.0,11.0,54.0,94.0,0.0
8.0,14.0,-18.0,-24.0,-30.0,-16.0,-8.0,15.0,69.0,150.0,0.0
60.0,28.0,-14.0,-13.0,-19.0,-15.0,-5.0,5.0,35.0,186.0,0.0
49.0,31.0,-8.0,-12.0,-6.0,0.0,-11.0,-15.0,-27.0,151.0,0.0
8.0,35.0,4.0,-8.0,-13.0,-4.0,-14.0,-36.0,-59.0,70.0,0.0
-28.0,21.0,-5.0,-10.0,-24.0,-8.0,-7.0,-21.0,-25.0,44.0,0.0
-49.0,-7.0,4.0,-19.0,-17.0,10.0,9.0,1.0,48.0,83.0,0.0
-53.0,-19.0,-2.0,2.0,-8.0,23.0,42.0,26.0,106.0,105.0,0.0
-18.0,-15.0,-1.0,0.0,-11.0,18.0,39.0,34.0,122.0,98.0,0.0
19.0,-17.0,-2.0,-9.0,-1.0,14.0,23.0,29.0,92.0,77.0,0.0
22.0,-12.0,-3.0,-12.0,-1.0,3.0,16.0,0.0,-11.0,-36.0,0.0
-16.0,-13.0,2.0,-6.0,9.0,11.0,7.0,-22.0,-119.0,-200.0,0.0
-38.0,-6.0,18.0,7.0,16.0,31.0,12.0,-28.0,-126.0,-196.0,0.0
-33.0,7.0,18.0,9.0,10.0,19.0,9.0,-31.0,-121.0,-110.0,0.0
-42.0,13.0,17.0,11.0,20.0,17.0,1.0,-30.0,-100.0,-39.0,0.0
-51.0,9.0,14.0,9.0,25.0,12.0,14.0,-2.0,-29.0,41.0,0.0
-20.0,9.0,16.0,-4.0,21.0,5.0,3.0,14.0,-2.0,105.0,0.0
16.0,9.0,9.0,-13.0,11.0,2.0,-7.0,12.0,-7.0,145.0,0.0
30.0,12.0,16.0,-20.0,9.0,-8.0,-9.0,18.0,10.0,140.0,0.0
1.0,-5.0,15.0,-10.0,8.0,0.0,3.0,31.0,51.0,83.0,0.0
-56.0,-30.0,2.0,-7.0,7.0,9.0,2.0,34.0,34.0,-21.0,0.0
-96.0,-29.0,-6.0,-8.0,6.0,3.0,-18.0,-21.0,-56.0,-163.0,0.0
-86.0,-8.0,-3.0,-11.0,-1.0,0.0,-16.0,-48.0,-78.0,-186.0,0.0
-42.0,0.0,0.0,-11.0,-10.0,-3.0,-21.0,-33.0,-51.0,-111.0,0.0
-26.0,5.0,4.0,-3.0,-4.0,-8.0,-26.0,-20.0,-31.0,-82.0,0.0
-27.0,6.0,11.0,7.0,-9.0,-1.0,-30.0,-10.0,1.0,-57.0,0.0
-14.0,13.0,11.0,6.0,-4.0,8.0,-15.0,0.0,33.0,-20.0,0.0
-24.0,9.0,15.0,1.0,1.0,-3.0,0.0,9.0,39.0,6.0,0.0
-22.0,-2.0,9.0,1.0,11.0,-3.0,3.0,2.0,29.0,28.0,0.0
18.0,-2.0,4.0,4.0,9.0,6.0,-5.0,-9.0,17.0,44.0,0.0
48.0,-3.0,0.0,-1.0,-10.0,-3.0,-18.0,-20.0,-34.0,-4.0,0.0
33.0,-6.0,-12.0,-2.0,-13.0,2.0,-20.0,-37.0,-82.0,-52.0,0.0
-4.0,-17.0,-7.0,-2.0,-18.0,4.0,-9.0,-24.0,-58.0,-51.0,0.0
-30.0,-21.0,-4.0,-11.0,-15.0,-11.0,-14.0,10.0,2.0,-42.0,0.0
-21.0,-12.0,-3.0,-6.0,-1.0,-12.0,-9.0,25.0,48.0,-6.0,0.0
9.0,5.0,-3.0,-7.0,-6.0,-6.0,-10.0,20.0,54.0,65.0,0.0
11.0,2.0,1.0,-18.0,-10.0,-2.0,-6.0,20.0,55.0,104.0,0.0
-2.0,-14.0,-9.0,-12.0,-3.0,19.0,7.0,16.0,53.0,95.0,0.0
-4.0,-24.0,-17.0,-6.0,12.0,20.0,7.0,15.0,39.0,102.0,0.0
9.0,-20.0,-20.0,-4.0,6.0,15.0,0.0,10.0,19.0,100.0,0.0
27.0,-3.0,-5.0,0.0,-1.0,18.0,-15.0,-1.0,-10.0,70.0,0.0
69.0,33.0,1.0,-7.0,-7.0,-12.0,-22.0,-13.0,-8.0,60.0,0.0
71.0,42.0,-9.0,-20.0,-19.0,-26.0,-14.0,-5.0,9.0,79.0,0.0
30.0,13.0,-25.0,-15.0,-13.0,-12.0,0.0,12.0,22.0,86.0,0.0
12.0,-3.0,-27.0,-6.0,3.0,-3.0,-2.0,19.0,16.0,70.0,0.0
19.0,-2.0,-16.0,-9.0,13.0,-19.0,-10.0,2.0,-8.0,7.0,0.0
-3.0,-11.0,-7.0,-10.0,8.0,-16.0,-2.0,-6.0,-30.0,-69.0,0.0
-26.0,-34.0,0.0,-14.0,10.0,-1.0,12.0,7.0,-32.0,-93.0,0.0
-30.0,-38.0,-7.0,-37.0,10.0,-10.0,12.0,12.0,-29.0,-102.0,0.0
-36.0,-55.0,-11.0,-34.0,16.0,-27.0,3.0,9.0,-17.0,-89.0,0.0
-39.0,-68.0,-7.0,0.0,17.0,-16.0,6.0,6.0,-19.0,-69.0,0.0
-32.0,-85.0,0.0,-5.0,20.0,1.0,29.0,0.0,-28.0,-50.0,0.0
-29.0,-79.0,6.0,-6.0,18.0,-7.0,25.0,-16.0,-32.0,-24.0,0.0
-26.0,-62.0,12.0,-6.0,13.0,-12.0,19.0,-20.0,-39.0,-6.0,0.0
-11.0,-50.0,19.0,-9.0,4.0,-3.0,2.0,-24.0,-27.0,-2.0,0.0
4.0,-54.0,11.0,-16.0,-7.0,-5.0,-6.0,-12.0,-3.0,-9.0,0.0
33.0,-45.0,7.0,-12.0,-7.0,-14.0,8.0,2.0,19.0,-24.0,0.0
39.0,-46.0,-1.0,-9.0,-2.0,-5.0,19.0,0.0,52.0,-3.0,0.0
68.0,-47.0,2.0,-13.0,-8.0,3.0,1.0,-8.0,66.0,72.0,0.0
90.0,-32.0,2.0,-12.0,-7.0,-9.0,-10.0,-13.0,15.0,87.0,0.0
83.0,-35.0,12.0,-12.0,-10.0,-21.0,-8.0,-15.0,-24.0,47.0,0.0
70.0,-40.0,20.0,-2.0,4.0,-19.0,-12.0,-30.0,-72.0,-14.0,0.0
42.0,-33.0,24.0,2.0,8.0,-12.0,-14.0,-28.0,-84.0,-58.0,0.0
12.0,-29.0,31.0,0.0,8.0,-14.0,-8.0,-14.0,-50.0,-50.0,0.0
-29.0,-40.0,23.0,0.0,13.0,-24.0,-4.0,-19.0,-58.0,-69.0,0.0
-49.0,-52.0,9.0,2.0,14.0,-9.0,6.0,-14.0,-26.0,-73.0,0.0
-62.0,-43.0,8.0,2.0,16.0,-4.0,14.0,6.0,33.0,-53.0,0.0
-57.0,-40.0,12.0,7.0,28.0,-9.0,15.0,17.0,65.0,-5.0,0.0
-27.0,-34.0,23.0,17.0,25.0,-16.0,7.0,12.0,76.0,49.0,0.0
-17.0,-44.0,14.0,24.0,31.0,-17.0,3.0,-6.0,40.0,44.0,0.0
-15.0,-36.0,9.0,12.0,38.0,-11.0,-9.0,-11.0,21.0,17.0,0.0
-27.0,-22.0,9.0,8.0,24.0,-8.0,-4.0,-21.0,-30.0,-126.0,0.0
-45.0,-14.0,7.0,14.0,17.0,-10.0,17.0,-26.0,-57.0,-236.0,0.0
-45.0,-9.0,5.0,20.0,21.0,-19.0,31.0,1.0,-18.0,-195.0,0.0
-39.0,-7.0,12.0,19.0,17.0,-24.0,25.0,20.0,-9.0,-149.0,0.0
-40.0,-11.0,0.0,8.0,9.0,-8.0,18.0,15.0,-33.0,-111.0,0.0
-24.0,-20.0,-9.0,-2.0,0.0,-8.0,-4.0,-7.0,-53.0,-74.0,0.0
18.0,15.0,2.0,-1.0,1.0,-26.0,-18.0,-25.0,-20.0,-41.0,0.0
26.0,18.0,18.0,-7.0,-6.0,-31.0,-13.0,-3.0,20.0,-16.0,0.0
-5.0,-4.0,5.0,-4.0,7.0,-5.0,-2.0,5.0,17.0,-31.0,0.0
-17.0,-5.0,-20.0,-2.0,17.0,7.0,11.0,-6.0,-22.0,-42.0,0.0
11.0,11.0,-19.0,2.0,25.0,13.0,6.0,-27.0,-12.0,62.0,0.0
30.0,24.0,-6.0,4.0,19.0,7.0,5.0,-26.0,26.0,126.0,0.0
30.0,29.0,0.0,2.0,9.0,0.0,25.0,12.0,74.0,207.0,0.0
8.0,19.0,-14.0,-1.0,0.0,3.0,33.0,32.0,89.0,185.0,0.0
-9.0,15.0,-11.0,-7.0,-6.0,0.0,14.0,16.0,50.0,-18.0,0.0
-15.0,14.0,1.0,-6.0,-7.0,-6.0,3.0,-1.0,18.0,-116.0,0.0
-17.0,9.0,-5.0,3.0,-6.0,-3.0,24.0,4.0,-13.0,-165.0,0.0
-28.0,-2.0,-17.0,13.0,0.0,29.0,51.0,31.0,-33.0,-223.0,0.0
-8.0,0.0,-5.0,22.0,8.0,47.0,48.0,39.0,-38.0,-220.0,1.0
25.0,6.0,3.0,25.0,15.0,41.0,32.0,9.0,-57.0,-202.0,1.0
7.0,8.0,-2.0,19.0,2.0,28.0,14.0,-13.0,-66.0,-177.0,1.0
-21.0,16.0,-13.0,20.0,-13.0,9.0,-1.0,-12.0,-61.0,-156.0,1.0
-10.0,21.0,-16.0,22.0,-16.0,0.0,8.0,-11.0,-34.0,-101.0,1.0
1.0,16.0,-7.0,22.0,-11.0,18.0,24.0,5.0,-3.0,-37.0,1.0
-3.0,14.0,0.0,32.0,-1.0,19.0,39.0,3.0,26.0,-9.0,1.0
-4.0,30.0,5.0,24.0,7.0,13.0,29.0,-16.0,24.0,-14.0,1.0
-3.0,47.0,10.0,25.0,-6.0,11.0,10.0,-13.0,6.0,-16.0,1.0
14.0,54.0,0.0,16.0,-24.0,-2.0,6.0,-13.0,15.0,19.0,1.0
30.0,48.0,-10.0,-2.0,-25.0,-28.0,7.0,-26.0,24.0,68.0,1.0
35.0,42.0,-6.0,-2.0,-18.0,-30.0,-10.0,-36.0,15.0,63.0,1.0
36.0,42.0,5.0,10.0,-1.0,-7.0,-11.0,-39.0,-9.0,38.0,1.0
22.0,46.0,0.0,12.0,3.0,3.0,-13.0,-29.0,-12.0,31.0,1.0
-8.0,34.0,6.0,16.0,8.0,7.0,-5.0,-17.0,17.0,39.0,1.0
-12.0,9.0,3.0,11.0,-3.0,7.0,10.0,-21.0,40.0,82.0,1.0
3.0,18.0,-6.0,1.0,-13.0,1.0,5.0,-13.0,15.0,108.0,1.0
-2.0,21.0,-5.0,3.0,-8.0,-3.0,4.0,0.0,-41.0,13.0,1.0
-30.0,13.0,10.0,16.0,4.0,-11.0,12.0,13.0,-56.0,-56.0,0.0
-48.0,16.0,16.0,23.0,15.0,-8.0,18.0,-1.0,-70.0,-67.0,0.0
-35.0,23.0,18.0,29.0,14.0,-10.0,3.0,-5.0,-76.0,-69.0,0.0
-3.0,35.0,27.0,25.0,10.0,-16.0,-4.0,10.0,1.0,-30.0,0.0
4.0,39.0,27.0,22.0,28.0,-18.0,6.0,9.0,45.0,-2.0,0.0
-32.0,13.0,23.0,16.0,40.0,-14.0,10.0,1.0,13.0,-10.0,0.0
-55.0,1.0,22.0,21.0,30.0,-1.0,20.0,21.0,25.0,21.0,0.0
-37.0,22.0,7.0,9.0,19.0,-8.0,26.0,24.0,33.0,46.0,0.0
-12.0,33.0,1.0,-2.0,23.0,-16.0,10.0,12.0,11.0,54.0,0.0
10.0,33.0,10.0,-3.0,32.0,-17.0,11.0,11.0,4.0,42.0,0.0
-4.0,28.0,21.0,2.0,26.0,-21.0,-4.0,13.0,-9.0,-13.0,0.0
-11.0,35.0,25.0,10.0,24.0,-15.0,-2.0,12.0,0.0,-15.0,0.0
10.0,34.0,31.0,14.0,29.0,-8.0,14.0,19.0,16.0,24.0,0.0
22.0,33.0,31.0,10.0,35.0,-7.0,23.0,22.0,3.0,37.0,0.0
19.0,39.0,30.0,13.0,30.0,-8.0,24.0,9.0,-9.0,37.0,0.0
10.0,57.0,25.0,6.0,12.0,-12.0,2.0,6.0,-10.0,22.0,0.0
35.0,64.0,19.0,-8.0,-2.0,-23.0,-3.0,-13.0,-26.0,-25.0,0.0
85.0,46.0,11.0,-11.0,-6.0,-27.0,0.0,-15.0,-29.0,-78.0,0.0
81.0,20.0,12.0,3.0,-2.0,-18.0,12.0,-6.0,-28.0,-120.0,0.0
53.0,9.0,22.0,5.0,3.0,-1.0,21.0,1.0,-32.0,-144.0,0.0
0.0,6.0,25.0,-3.0,1.0,-3.0,15.0,24.0,7.0,-110.0,0.0
-33.0,5.0,26.0,-11.0,-6.0,-13.0,7.0,30.0,50.0,-31.0,0.0
-17.0,19.0,31.0,-6.0,-1.0,-20.0,12.0,15.0,34.0,15.0,0.0
16.0,23.0,22.0,-7.0,2.0,-20.0,17.0,8.0,45.0,13.0,0.0
34.0,21.0,10.0,-16.0,-4.0,-16.0,-3.0,-7.0,20.0,-29.0,0.0
43.0,18.0,21.0,-10.0,0.0,-1.0,-14.0,-27.0,-14.0,-54.0,0.0
49.0,12.0,19.0,-2.0,11.0,9.0,-3.0,-42.0,-36.0,-48.0,0.0
43.0,12.0,7.0,0.0,10.0,14.0,0.0,-48.0,-76.0,-43.0,0.0
31.0,18.0,0.0,10.0,7.0,21.0,7.0,-47.0,-96.0,-19.0,0.0
15.0,32.0,-12.0,2.0,-5.0,30.0,-1.0,-64.0,-108.0,-23.0,0.0
2.0,56.0,-25.0,-19.0,-21.0,4.0,-8.0,-74.0,-114.0,-29.0,0.0
-10.0,36.0,-29.0,-18.0,-16.0,-21.0,3.0,-22.0,-70.0,-7.0,0.0
-7.0,19.0,-30.0,-8.0,-16.0,-20.0,9.0,38.0,15.0,3.0,0.0
-2.0,5.0,-33.0,-4.0,-14.0,-16.0,9.0,85.0,117.0,32.0,0.0
15.0,8.0,-25.0,-13.0,-12.0,-11.0,7.0,91.0,164.0,76.0,0.0
31.0,13.0,-22.0,-21.0,-10.0,-2.0,-4.0,54.0,129.0,104.0,0.0
36.0,22.0,-25.0,-25.0,-12.0,4.0,0.0,35.0,94.0,122.0,0.0
30.0,16.0,-30.0,-29.0,-12.0,-1.0,-9.0,15.0,76.0,125.0,0.0
24.0,4.0,-35.0,-37.0,-8.0,-8.0,-8.0,5.0,34.0,73.0,0.0
13.0,-1.0,-21.0,-39.0,0.0,-4.0,-5.0,7.0,-18.0,5.0,0.0
-5.0,25.0,-8.0,-28.0,0.0,-6.0,-10.0,-1.0,-35.0,-15.0,0.0
-13.0,35.0,-3.0,1.0,-7.0,-18.0,-25.0,-10.0,-50.0,-31.0,0.0
-13.0,20.0,-15.0,10.0,-7.0,-10.0,-28.0,-9.0,-44.0,-30.0,0.0
-6.0,6.0,-21.0,0.0,-9.0,2.0,-27.0,-1.0,-31.0,-15.0,0.0
14.0,11.0,-28.0,-1.0,-16.0,-7.0,-28.0,13.0,-16.0,12.0,0.0
11.0,25.0,-29.0,-7.0,-20.0,-15.0,-22.0,6.0,-18.0,36.0,0.0
11.0,11.0,-11.0,1.0,-4.0,9.0,-10.0,4.0,2.0,73.0,0.0
44.0,16.0,-8.0,-2.0,-7.0,31.0,-6.0,16.0,12.0,130.0,0.0
68.0,31.0,-2.0,-1.0,-15.0,24.0,-13.0,16.0,16.0,147.0,0.0
66.0,41.0,-8.0,-5.0,-25.0,5.0,-31.0,2.0,9.0,103.0,0.0
42.0,33.0,-6.0,-3.0,-12.0,0.0,-33.0,9.0,7.0,78.0,0.0
15.0,22.0,0.0,-6.0,0.0,18.0,-31.0,16.0,15.0,85.0,0.0
-26.0,-11.0,-10.0,-7.0,-5.0,40.0,-6.0,12.0,-11.0,27.0,0.0
-63.0,-34.0,-27.0,-29.0,-12.0,37.0,21.0,-1.0,-36.0,-48.0,0.0
-40.0,-33.0,-4.0,-36.0,4.0,33.0,12.0,5.0,-47.0,-53.0,0.0
0.0,-19.0,18.0,-33.0,13.0,23.0,-9.0,21.0,-45.0,-4.0,0.0
43.0,3.0,23.0,-39.0,15.0,13.0,-18.0,23.0,4.0,85.0,0.0
75.0,22.0,18.0,-42.0,3.0,7.0,-24.0,5.0,54.0,178.0,0.0
61.0,13.0,11.0,-52.0,-16.0,9.0,-26.0,4.0,93.0,229.0,0.0
35.0,-5.0,8.0,-53.0,-19.0,0.0,-27.0,4.0,133.0,265.0,0.0
29.0,-20.0,-3.0,-47.0,-24.0,-25.0,-32.0,-9.0,94.0,237.0,0.0
36.0,-16.0,-8.0,-27.0,-27.0,-29.0,-35.0,-35.0,-22.0,142.0,0.0
22.0,-5.0,-1.0,-13.0,-25.0,-12.0,-8.0,-49.0,-76.0,89.0,0.0
33.0,9.0,9.0,0.0,-18.0,-7.0,17.0,-41.0,-36.0,126.0,0.0
27.0,19.0,29.0,13.0,-5.0,10.0,13.0,-34.0,-41.0,58.0,0.0
-36.0,-6.0,25.0,15.0,-2.0,24.0,11.0,-43.0,-117.0,-167.0,0.0
-71.0,-33.0,20.0,30.0,2.0,36.0,24.0,-25.0,-107.0,-224.0,0.0
-65.0,-42.0,13.0,31.0,12.0,46.0,26.0,-21.0,-83.0,-165.0,0.0
-39.0,-33.0,9.0,27.0,11.0,47.0,14.0,-22.0,-57.0,-115.0,0.0
-15.0,-18.0,12.0,20.0,3.0,30.0,6.0,-41.0,-36.0,-60.0,0.0
-25.0,-11.0,13.0,2.0,-6.0,8.0,11.0,-23.0,19.0,-11.0,0.0
-66.0,-23.0,19.0,2.0,-4.0,2.0,12.0,17.0,40.0,0.0,0.0
-96.0,-55.0,5.0,4.0,1.0,17.0,9.0,16.0,-10.0,-57.0,0.0
-72.0,-46.0,8.0,6.0,3.0,7.0,17.0,3.0,-36.0,-81.0,0.0
-28.0,-23.0,10.0,0.0,-1.0,1.0,22.0,2.0,-47.0,-71.0,0.0
19.0,-4.0,7.0,-11.0,2.0,13.0,28.0,-8.0,-58.0,-63.0,0.0
46.0,-5.0,4.0,0.0,11.0,14.0,39.0,-9.0,-46.0,-68.0,0.0
53.0,-27.0,9.0,-13.0,5.0,13.0,22.0,-22.0,-52.0,-71.0,0.0
8.0,-34.0,4.0,-31.0,7.0,10.0,0.0,-31.0,-81.0,-72.0,0.0
-6.0,-32.0,3.0,-31.0,9.0,8.0,2.0,-18.0,-66.0,-23.0,0.0
3.0,-21.0,6.0,-25.0,9.0,-2.0,5.0,-10.0,-65.0,22.0,0.0
1.0,-19.0,7.0,-30.0,7.0,-9.0,1.0,-17.0,-42.0,44.0,0.0
2.0,-15.0,14.0,-26.0,7.0,-3.0,0.0,-14.0,-20.0,118.0,0.0
27.0,5.0,19.0,-24.0,-2.0,-8.0,-5.0,-11.0,16.0,217.0,0.0
44.0,13.0,20.0,-16.0,-16.0,-26.0,-16.0,-12.0,63.0,322.0,0.0
43.0,-2.0,14.0,-22.0,-14.0,-28.0,-8.0,-5.0,86.0,362.0,0.0
30.0,-22.0,10.0,-24.0,0.0,-16.0,-13.0,-2.0,26.0,162.0,0.0
21.0,-19.0,5.0,-7.0,5.0,-1.0,-18.0,-13.0,-46.0,-27.0,0.0
33.0,-6.0,8.0,6.0,3.0,0.0,-15.0,-22.0,-63.0,-61.0,0.0
22.0,1.0,0.0,-2.0,8.0,4.0,-7.0,-14.0,-59.0,-90.0,0.0
-18.0,-7.0,-12.0,3.0,24.0,27.0,10.0,7.0,-39.0,-98.0,0.0
-36.0,-27.0,-13.0,8.0,32.0,37.0,28.0,15.0,-4.0,-22.0,0.0
-32.0,-18.0,-1.0,1.0,26.0,28.0,40.0,28.0,49.0,102.0,0.0
-43.0,3.0,-5.0,-3.0,15.0,18.0,35.0,27.0,86.0,182.0,0.0
-61.0,10.0,-7.0,-16.0,0.0,-5.0,8.0,-9.0,42.0,169.0,0.0
-80.0,-2.0,-18.0,-23.0,-9.0,-4.0,-5.0,-33.0,-78.0,30.0,0.0
-64.0,-9.0,-16.0,-6.0,-2.0,7.0,2.0,-29.0,-143.0,-134.0,0.0
-52.0,-2.0,-18.0,9.0,20.0,14.0,5.0,-8.0,-145.0,-193.0,0.0
-46.0,-1.0,-12.0,-2.0,23.0,21.0,17.0,2.0,-122.0,-169.0,0.0
-15.0,7.0,-2.0,-12.0,26.0,17.0,6.0,20.0,-33.0,-116.0,0.0
-14.0,3.0,-8.0,-10.0,13.0,16.0,-3.0,21.0,12.0,-81.0,0.0
-15.0,-1.0,-13.0,-15.0,4.0,30.0,9.0,-2.0,-14.0,-50.0,0.0
8.0,10.0,-13.0,-31.0,-6.0,12.0,3.0,-18.0,-16.0,53.0,0.0
44.0,21.0,-6.0,-28.0,-7.0,-3.0,5.0,-16.0,22.0,125.0,0.0
51.0,22.0,-7.0,-12.0,-1.0,-9.0,-5.0,-24.0,23.0,102.0,0.0
38.0,14.0,-14.0,-22.0,-7.0,-13.0,-17.0,-17.0,31.0,61.0,0.0
36.0,1.0,-4.0,-2.0,-14.0,-7.0,0.0,6.0,59.0,40.0,0.0
17.0,-9.0,6.0,31.0,-5.0,11.0,54.0,19.0,57.0,19.0,0.0
21.0,-5.0,5.0,39.0,4.0,5.0,61.0,25.0,44.0,32.0,0.0
32.0,-5.0,0.0,29.0,9.0,-12.0,38.0,9.0,50.0,72.0,0.0
8.0,-16.0,3.0,12.0,15.0,2.0,21.0,13.0,72.0,75.0,0.0
-16.0,-29.0,-6.0,0.0,12.0,15.0,15.0,-1.0,71.0,59.0,0.0
-27.0,-26.0,-19.0,11.0,14.0,17.0,13.0,-24.0,10.0,-18.0,0.0
-49.0,-26.0,-16.0,16.0,18.0,28.0,2.0,-26.0,-48.0,-91.0,0.0
-77.0,-37.0,-15.0,17.0,14.0,34.0,5.0,-10.0,-26.0,-109.0,0.0
-61.0,-25.0,-10.0,18.0,25.0,47.0,22.0,0.0,-21.0,-129.0,0.0
-17.0,0.0,-5.0,15.0,25.0,25.0,12.0,0.0,-49.0,-111.0,0.0
-2.0,13.0,-7.0,9.0,14.0,12.0,14.0,-7.0,-57.0,-85.0,0.0
6.0,18.0,-3.0,-5.0,8.0,13.0,8.0,-18.0,-43.0,-42.0,0.0
26.0,17.0,1.0,0.0,9.0,0.0,1.0,-32.0,-49.0,-19.0,0.0
13.0,13.0,-16.0,-4.0,0.0,3.0,7.0,-39.0,-45.0,-35.0,0.0
7.0,5.0,-25.0,-20.0,-8.0,-12.0,-7.0,-22.0,-18.0,-20.0,0.0
19.0,0.0,-20.0,-18.0,-11.0,-23.0,-10.0,-8.0,23.0,0.0,0.0
10.0,-13.0,-31.0,-19.0,-14.0,-12.0,0.0,21.0,104.0,38.0,0.0
0.0,-16.0,-28.0,-22.0,-13.0,-7.0,30.0,83.0,210.0,110.0,0.0
8.0,-7.0,-29.0,-23.0,-3.0,-15.0,44.0,74.0,182.0,97.0,0.0
15.0,5.0,-16.0,-19.0,2.0,-7.0,37.0,53.0,138.0,64.0,0.0
22.0,7.0,-4.0,-10.0,9.0,-3.0,18.0,39.0,120.0,68.0,0.0
12.0,8.0,0.0,-4.0,11.0,-15.0,2.0,24.0,104.0,62.0,0.0
5.0,9.0,-2.0,1.0,7.0,-13.0,6.0,-5.0,51.0,27.0,0.0
11.0,22.0,0.0,3.0,-6.0,-7.0,9.0,-9.0,22.0,42.0,0.0
22.0,28.0,-11.0,11.0,-16.0,-12.0,14.0,-11.0,-2.0,52.0,0.0
29.0,4.0,-32.0,-8.0,-24.0,-9.0,29.0,-41.0,-51.0,19.0,0.0
47.0,18.0,-33.0,-14.0,-32.0,0.0,15.0,-42.0,-72.0,36.0,0.0
70.0,35.0,-11.0,-14.0,-25.0,-15.0,-5.0,-34.0,-44.0,57.0,0.0
64.0,27.0,-6.0,-17.0,-19.0,-27.0,-5.0,3.0,14.0,58.0,0.0
40.0,25.0,0.0,-20.0,-18.0,-15.0,13.0,14.0,42.0,55.0,0.0
30.0,23.0,-14.0,-20.0,-33.0,-13.0,-1.0,0.0,20.0,26.0,0.0
26.0,33.0,-25.0,-16.0,-32.0,-11.0,7.0,2.0,54.0,35.0,0.0
3.0,29.0,-23.0,-14.0,-20.0,-16.0,6.0,-6.0,58.0,12.0,0.0
-34.0,10.0,-21.0,-10.0,-5.0,0.0,-5.0,-14.0,24.0,-59.0,0.0
-81.0,1.0,-33.0,-1.0,6.0,17.0,1.0,-18.0,-6.0,-131.0,0.0
-114.0,1.0,-40.0,0.0,9.0,15.0,-9.0,-22.0,-62.0,-184.0,0.0
-94.0,-7.0,-30.0,-7.0,12.0,15.0,-22.0,-36.0,-90.0,-185.0,0.0
-55.0,-5.0,-17.0,-13.0,8.0,21.0,-19.0,-35.0,-62.0,-134.0,0.0
-12.0,15.0,-24.0,-13.0,6.0,11.0,-17.0,-3.0,-23.0,-69.0,0.0
1.0,23.0,-33.0,-14.0,0.0,0.0,-15.0,9.0,0.0,-15.0,0.0
-7.0,14.0,-39.0,-9.0,-1.0,0.0,-7.0,-5.0,-9.0,-26.0,0.0
1.0,14.0,-40.0,-7.0,-2.0,-7.0,3.0,-30.0,-16.0,-17.0,0.0
-7.0,18.0,-26.0,-6.0,6.0,5.0,6.0,-22.0,-13.0,14.0,0.0
-31.0,5.0,-16.0,-3.0,4.0,6.0,7.0,0.0,8.0,-5.0,0.0
-56.0,-1.0,-21.0,-2.0,6.0,6.0,6.0,4.0,15.0,-56.0,0.0
-93.0,-11.0,-25.0,3.0,15.0,25.0,-4.0,-8.0,-15.0,-125.0,0.0
-99.0,-15.0,-26.0,6.0,16.0,27.0,0.0,-10.0,-25.0,-139.0,0.0
-57.0,-7.0,-27.0,0.0,8.0,22.0,-5.0,-10.0,-31.0,-103.0,0.0
-13.0,-3.0,-26.0,-4.0,7.0,19.0,-6.0,-19.0,-45.0,-65.0,0.0
6.0,4.0,-19.0,1.0,-1.0,12.0,1.0,-13.0,-20.0,-6.0,0.0
27.0,16.0,-15.0,7.0,2.0,15.0,7.0,-4.0,0.0,56.0,0.0
36.0,15.0,-17.0,2.0,4.0,11.0,11.0,4.0,25.0,104.0,0.0
0.0,14.0,-11.0,-2.0,-6.0,12.0,10.0,12.0,28.0,98.0,0.0
-20.0,14.0,-6.0,-12.0,-14.0,-10.0,-14.0,11.0,14.0,51.0,0.0
-13.0,25.0,-6.0,-7.0,-24.0,-25.0,-13.0,39.0,53.0,22.0,0.0
-15.0,22.0,1.0,-6.0,-12.0,-11.0,-1.0,44.0,89.0,0.0,0.0
14.0,26.0,0.0,-10.0,-16.0,-4.0,9.0,43.0,91.0,0.0,0.0
56.0,34.0,2.0,-9.0,-21.0,-10.0,12.0,23.0,73.0,-13.0,0.0
103.0,34.0,-4.0,-3.0,-11.0,-13.0,8.0,8.0,21.0,-55.0,0.0
51.0,21.0,-23.0,4.0,-8.0,-11.0,-3.0,-23.0,-62.0,-131.0,0.0
-4.0,19.0,-24.0,12.0,-3.0,-6.0,-14.0,-37.0,-87.0,-145.0,0.0
11.0,15.0,-10.0,1.0,3.0,11.0,-21.0,-25.0,-62.0,-72.0,0.0
33.0,13.0,-5.0,2.0,-6.0,12.0,-14.0,-14.0,-34.0,-14.0,0.0
20.0,1.0,-7.0,6.0,-11.0,5.0,-9.0,-32.0,-45.0,-22.0,0.0
-2.0,-2.0,-11.0,-1.0,-19.0,14.0,-23.0,-41.0,-71.0,-28.0,0.0
-9.0,5.0,-4.0,-5.0,-16.0,15.0,-6.0,-32.0,-47.0,-6.0,0.0
-7.0,-4.0,-2.0,6.0,-1.0,26.0,23.0,-12.0,-14.0,-26.0,0.0
-13.0,-3.0,-4.0,14.0,-7.0,40.0,27.0,-1.0,-21.0,-59.0,0.0
-12.0,-18.0,-1.0,14.0,-11.0,36.0,25.0,3.0,-21.0,-67.0,0.0
-9.0,-18.0,2.0,12.0,-7.0,30.0,32.0,0.0,-2.0,-65.0,0.0
-27.0,-30.0,5.0,10.0,8.0,30.0,36.0,3.0,-1.0,-55.0,0.0
-31.0,-47.0,18.0,23.0,20.0,32.0,32.0,24.0,0.0,-23.0,0.0
-15.0,-30.0,12.0,25.0,12.0,40.0,16.0,20.0,10.0,-2.0,0.0
2.0,-10.0,2.0,23.0,-10.0,29.0,7.0,10.0,9.0,2.0,0.0
10.0,-9.0,5.0,9.0,-11.0,18.0,-13.0,6.0,-13.0,8.0,0.0
6.0,-2.0,8.0,5.0,-9.0,7.0,-15.0,1.0,-20.0,8.0,0.0
17.0,11.0,8.0,16.0,-12.0,8.0,-5.0,-8.0,-4.0,11.0,0.0
35.0,31.0,6.0,5.0,-13.0,-4.0,4.0,-13.0,9.0,48.0,0.0
52.0,32.0,8.0,-9.0,-14.0,-9.0,-8.0,-26.0,26.0,123.0,0.0
59.0,22.0,6.0,0.0,-8.0,-3.0,-4.0,-30.0,52.0,199.0,0.0
56.0,20.0,-12.0,4.0,3.0,-6.0,6.0,-18.0,57.0,189.0,0.0
44.0,2.0,-15.0,0.0,3.0,0.0,8.0,5.0,42.0,104.0,0.0
31.0,-5.0,-4.0,-2.0,4.0,0.0,-1.0,14.0,3.0,-14.0,0.0
5.0,-17.0,1.0,0.0,9.0,7.0,-14.0,7.0,-55.0,-138.0,0.0
-1.0,-23.0,0.0,12.0,3.0,1.0,2.0,18.0,-40.0,-83.0,0.0
9.0,0.0,1.0,7.0,3.0,-6.0,4.0,18.0,-16.0,-8.0,0.0
20.0,27.0,-2.0,0.0,-8.0,4.0,-3.0,3.0,1.0,19.0,0.0
22.0,29.0,-7.0,-17.0,-18.0,-10.0,-7.0,-4.0,28.0,52.0,0.0
37.0,23.0,-12.0,-21.0,-23.0,-5.0,-13.0,10.0,60.0,58.0,0.0
44.0,23.0,3.0,-18.0,-19.0,2.0,-8.0,19.0,90.0,59.0,0.0
26.0,11.0,15.0,-10.0,-6.0,0.0,-10.0,14.0,60.0,23.0,0.0
9.0,-2.0,8.0,-2.0,-11.0,8.0,-17.0,-4.0,-27.0,-65.0,0.0
1.0,-11.0,6.0,-8.0,-14.0,1.0,-15.0,-22.0,-103.0,-163.0,0.0
-16.0,-21.0,11.0,-6.0,-3.0,18.0,4.0,-12.0,-110.0,-180.0,0.0
-40.0,-15.0,14.0,10.0,12.0,34.0,8.0,-38.0,-137.0,-190.0,0.0
-57.0,-13.0,25.0,4.0,9.0,28.0,-7.0,-70.0,-163.0,-201.0,0.0
-42.0,-23.0,9.0,-13.0,0.0,21.0,-19.0,-56.0,-153.0,-160.0,0.0
-32.0,-38.0,3.0,-6.0,1.0,28.0,-16.0,-28.0,-99.0,-114.0,0.0
-74.0,-38.0,0.0,6.0,3.0,31.0,-6.0,-14.0,-49.0,-95.0,0.0
-64.0,-41.0,-4.0,11.0,2.0,17.0,-2.0,-4.0,-56.0,-53.0,0.0
-38.0,-45.0,-4.0,6.0,4.0,13.0,-6.0,0.0,-61.0,-12.0,0.0
0.0,-36.0,6.0,3.0,6.0,10.0,-4.0,10.0,3.0,13.0,0.0
59.0,-11.0,5.0,5.0,2.0,8.0,-4.0,21.0,83.0,28.0,0.0
68.0,10.0,6.0,-1.0,3.0,-7.0,-20.0,15.0,85.0,21.0,0.0
46.0,10.0,2.0,-6.0,2.0,-5.0,-23.0,14.0,73.0,62.0,0.0
50.0,8.0,7.0,-9.0,-1.0,-1.0,-23.0,2.0,77.0,160.0,0.0
47.0,-1.0,5.0,-13.0,6.0,-3.0,-20.0,10.0,104.0,245.0,0.0
36.0,-13.0,5.0,-14.0,2.0,-16.0,-21.0,15.0,138.0,326.0,0.0
26.0,-16.0,-10.0,-23.0,-2.0,-37.0,-27.0,1.0,125.0,222.0,0.0
17.0,-19.0,-12.0,-32.0,-1.0,-24.0,-18.0,2.0,54.0,21.0,0.0
0.0,-18.0,-6.0,-35.0,20.0,-5.0,-11.0,12.0,11.0,-60.0,0.0
-7.0,-9.0,-1.0,-10.0,21.0,2.0,-19.0,24.0,-13.0,-86.0,0.0
2.0,5.0,10.0,-1.0,10.0,-9.0,-35.0,8.0,-43.0,-119.0,0.0
27.0,3.0,5.0,-3.0,7.0,-12.0,-13.0,0.0,-57.0,-115.0,0.0
73.0,-5.0,-17.0,-24.0,1.0,2.0,12.0,-1.0,-64.0,-80.0,0.0
81.0,1.0,-25.0,-27.0,-2.0,-16.0,-7.0,4.0,-43.0,-80.0,0.0
0.0,-10.0,-26.0,-16.0,1.0,-15.0,-13.0,23.0,9.0,-83.0,0.0
-58.0,-19.0,-12.0,1.0,21.0,5.0,0.0,35.0,14.0,-117.0,0.0
-76.0,-17.0,-12.0,2.0,35.0,25.0,27.0,32.0,-6.0,-135.0,0.0
-71.0,-19.0,-17.0,1.0,36.0,26.0,39.0,27.0,6.0,-103.0,0.0
-40.0,-9.0,-2.0,12.0,32.0,18.0,18.0,16.0,11.0,-56.0,0.0
-9.0,1.0,8.0,6.0,29.0,6.0,0.0,3.0,7.0,-32.0,0.0
5.0,0.0,0.0,15.0,29.0,2.0,-6.0,-2.0,17.0,-20.0,0.0
3.0,-3.0,-3.0,11.0,32.0,-1.0,-2.0,6.0,45.0,11.0,0.0
-17.0,-16.0,4.0,5.0,27.0,-16.0,2.0,-1.0,24.0,11.0,0.0
-3.0,-14.0,2.0,5.0,14.0,-13.0,-17.0,-33.0,-43.0,-5.0,0.0
35.0,1.0,5.0,5.0,15.0,-23.0,-34.0,-57.0,-79.0,34.0,0.0
41.0,12.0,1.0,1.0,6.0,-17.0,-15.0,-62.0,-88.0,37.0,0.0
26.0,-1.0,-2.0,-3.0,4.0,-9.0,9.0,-51.0,-71.0,45.0,0.0
0.0,-25.0,4.0,-4.0,6.0,-5.0,24.0,4.0,14.0,63.0,0.0
-10.0,-33.0,1.0,0.0,9.0,-3.0,23.0,36.0,40.0,37.0,0.0
-5.0,-37.0,6.0,9.0,13.0,5.0,17.0,41.0,16.0,-19.0,0.0
-19.0,-43.0,9.0,10.0,19.0,16.0,31.0,55.0,35.0,-16.0,0.0
-66.0,-35.0,11.0,24.0,25.0,14.0,29.0,47.0,33.0,13.0,0.0
-97.0,-39.0,17.0,29.0,20.0,34.0,9.0,33.0,4.0,25.0,0.0
-69.0,-16.0,3.0,20.0,3.0,24.0,7.0,41.0,21.0,61.0,0.0
0.0,23.0,0.0,5.0,-6.0,5.0,-7.0,40.0,41.0,75.0,0.0
57.0,29.0,6.0,7.0,-7.0,-11.0,-9.0,23.0,22.0,31.0,0.0
68.0,14.0,9.0,4.0,-3.0,0.0,2.0,30.0,-6.0,-37.0,0.0
49.0,-1.0,9.0,2.0,-3.0,9.0,16.0,41.0,7.0,-112.0,0.0
-8.0,-9.0,15.0,15.0,0.0,10.0,1.0,35.0,0.0,-170.0,0.0
-99.0,-17.0,5.0,9.0,-6.0,-4.0,-24.0,2.0,-43.0,-194.0,0.0
-106.0,-4.0,-6.0,-6.0,-8.0,-7.0,-40.0,-8.0,-30.0,-123.0,0.0
-47.0,-1.0,-1.0,-9.0,-1.0,-14.0,-44.0,5.0,-7.0,-18.0,0.0
-4.0,-7.0,2.0,-12.0,-12.0,-15.0,-31.0,15.0,9.0,18.0,0.0
1.0,1.0,4.0,-4.0,-17.0,-14.0,-11.0,18.0,22.0,6.0,0.0
-10.0,4.0,13.0,6.0,-16.0,-9.0,1.0,26.0,23.0,-1.0,0.0
-17.0,-7.0,25.0,14.0,-12.0,-2.0,0.0,20.0,5.0,-22.0,0.0
-6.0,-4.0,17.0,18.0,-19.0,-12.0,-9.0,10.0,-4.0,0.0,0.0
20.0,4.0,19.0,27.0,-21.0,-13.0,-5.0,8.0,-4.0,52.0,0.0
66.0,15.0,20.0,20.0,-21.0,-13.0,-4.0,-1.0,4.0,86.0,0.0
84.0,20.0,26.0,22.0,-19.0,-12.0,9.0,1.0,25.0,117.0,0.0
63.0,7.0,14.0,18.0,-11.0,-6.0,3.0,2.0,28.0,119.0,0.0
38.0,-2.0,6.0,7.0,-6.0,-8.0,18.0,-7.0,30.0,61.0,0.0
-11.0,-3.0,11.0,-4.0,-4.0,1.0,31.0,-29.0,7.0,-27.0,0.0
-67.0,-6.0,-4.0,-5.0,-1.0,3.0,19.0,-35.0,-26.0,-96.0,0.0
-76.0,-21.0,-12.0,4.0,0.0,9.0,14.0,-22.0,-46.0,-98.0,0.0
-60.0,-21.0,-4.0,3.0,-16.0,5.0,10.0,-10.0,-48.0,-74.0,0.0
-45.0,-12.0,-13.0,0.0,-15.0,-4.0,10.0,-11.0,-40.0,-45.0,0.0
-24.0,-7.0,-9.0,2.0,-1.0,-6.0,17.0,-15.0,-43.0,-30.0,0.0
23.0,19.0,-6.0,6.0,-1.0,-12.0,13.0,-22.0,-49.0,-25.0,0.0
62.0,29.0,-4.0,-5.0,-6.0,-17.0,11.0,-26.0,-16.0,17.0,0.0
63.0,35.0,10.0,-4.0,-4.0,-14.0,19.0,-27.0,13.0,70.0,0.0
49.0,36.0,7.0,3.0,-13.0,-35.0,2.0,-34.0,26.0,122.0,0.0
23.0,34.0,-13.0,4.0,-8.0,-35.0,7.0,-9.0,55.0,141.0,0.0
2.0,25.0,-20.0,6.0,3.0,-20.0,28.0,2.0,24.0,43.0,0.0
-24.0,20.0,-17.0,7.0,18.0,-8.0,34.0,-21.0,-36.0,-110.0,0.0
-17.0,7.0,0.0,14.0,25.0,-5.0,20.0,-3.0,-28.0,-142.0,0.0
15.0,9.0,15.0,26.0,33.0,2.0,7.0,32.0,30.0,-62.0,0.0
14.0,19.0,20.0,23.0,28.0,0.0,2.0,35.0,84.0,14.0,0.0
8.0,11.0,9.0,7.0,17.0,-2.0,-1.0,16.0,127.0,103.0,0.0
31.0,8.0,-7.0,-17.0,1.0,-23.0,-8.0,-1.0,155.0,209.0,0.0
11.0,-5.0,-19.0,-34.0,0.0,-32.0,-2.0,-16.0,108.0,185.0,0.0
-20.0,-10.0,-2.0,-20.0,-3.0,-25.0,-11.0,-26.0,20.0,11.0,0.0
-28.0,-15.0,1.0,-16.0,9.0,-11.0,-13.0,-18.0,-34.0,-86.0,0.0
-37.0,-5.0,6.0,-21.0,16.0,0.0,4.0,-9.0,-9.0,-86.0,0.0
-35.0,2.0,21.0,-14.0,21.0,12.0,41.0,-7.0,-2.0,-71.0,0.0
-36.0,-12.0,9.0,-14.0,13.0,20.0,58.0,-5.0,-99.0,-110.0,0.0
-21.0,-18.0,7.0,-15.0,10.0,17.0,50.0,17.0,-121.0,-153.0,0.0
-13.0,-11.0,40.0,-5.0,10.0,4.0,21.0,-2.0,-88.0,-137.0,0.0
0.0,-2.0,54.0,-2.0,10.0,-1.0,-3.0,-51.0,-124.0,-93.0,0.0
26.0,6.0,60.0,-11.0,3.0,18.0,-3.0,-65.0,-126.0,-24.0,0.0
36.0,7.0,47.0,-9.0,-3.0,19.0,13.0,-49.0,-57.0,47.0,0.0
23.0,-1.0,29.0,-3.0,1.0,13.0,30.0,-42.0,-31.0,64.0,0.0
19.0,-11.0,27.0,-10.0,-8.0,4.0,22.0,-37.0,-37.0,13.0,0.0
17.0,-5.0,20.0,-22.0,-25.0,0.0,37.0,2.0,13.0,-31.0,0.0
4.0,5.0,4.0,-5.0,-15.0,4.0,57.0,49.0,123.0,-50.0,0.0
-16.0,0.0,4.0,27.0,-13.0,10.0,58.0,73.0,181.0,-79.0,0.0
-45.0,-5.0,34.0,45.0,-7.0,20.0,52.0,53.0,118.0,-99.0,0.0
-49.0,-5.0,40.0,45.0,6.0,8.0,35.0,34.0,48.0,-93.0,0.0
-42.0,-2.0,18.0,38.0,5.0,5.0,21.0,12.0,5.0,-90.0,0.0
-33.0,-5.0,5.0,27.0,8.0,-5.0,-2.0,-4.0,-17.0,-47.0,0.0
-2.0,8.0,4.0,24.0,21.0,-2.0,-13.0,-13.0,-20.0,-4.0,0.0
30.0,40.0,8.0,14.0,12.0,-9.0,-26.0,-22.0,-18.0,12.0,0.0
52.0,48.0,6.0,15.0,4.0,-9.0,-9.0,-22.0,-9.0,16.0,0.0
28.0,-4.0,-6.0,1.0,15.0,27.0,32.0,-6.0,8.0,22.0,0.0
2.0,-24.0,-8.0,-10.0,20.0,37.0,49.0,15.0,46.0,86.0,0.0
6.0,-5.0,-5.0,-4.0,9.0,13.0,32.0,28.0,101.0,160.0,0.0
3.0,11.0,-24.0,3.0,-5.0,-17.0,16.0,32.0,123.0,160.0,0.0
2.0,8.0,-24.0,2.0,-6.0,-16.0,21.0,25.0,80.0,44.0,0.0
-9.0,-9.0,-21.0,15.0,3.0,-3.0,44.0,20.0,22.0,-91.0,0.0
-1.0,-11.0,-19.0,29.0,7.0,6.0,47.0,18.0,1.0,-100.0,0.0
-5.0,-16.0,-26.0,33.0,9.0,20.0,46.0,15.0,-6.0,-85.0,0.0
-4.0,-20.0,-23.0,34.0,5.0,6.0,38.0,8.0,-20.0,-77.0,0.0
10.0,-15.0,-14.0,6.0,0.0,4.0,23.0,-14.0,-25.0,-30.0,0.0
27.0,-1.0,-18.0,-1.0,-1.0,-19.0,13.0,-14.0,-10.0,4.0,0.0
25.0,-5.0,-12.0,29.0,4.0,-25.0,6.0,-14.0,-12.0,26.0,0.0
22.0,-20.0,-5.0,27.0,0.0,-11.0,8.0,-16.0,-5.0,53.0,0.0
24.0,-25.0,-6.0,29.0,-4.0,-14.0,16.0,-20.0,-25.0,42.0,0.0
17.0,-10.0,-16.0,31.0,-4.0,-2.0,12.0,-17.0,-35.0,14.0,0.0
12.0,4.0,-15.0,30.0,-9.0,-6.0,4.0,-17.0,-23.0,20.0,0.0
34.0,15.0,-11.0,22.0,-22.0,-29.0,-8.0,-20.0,8.0,118.0,0.0
27.0,10.0,-10.0,15.0,-21.0,-20.0,-3.0,-1.0,56.0,208.0,0.0
13.0,-3.0,-17.0,6.0,-18.0,-14.0,-4.0,17.0,76.0,254.0,0.0
5.0,-24.0,-28.0,-3.0,-26.0,-25.0,-14.0,20.0,58.0,201.0,0.0
-26.0,-34.0,-23.0,-10.0,-31.0,-16.0,-9.0,18.0,16.0,-14.0,0.0
-41.0,-28.0,10.0,4.0,-22.0,-3.0,11.0,33.0,6.0,-123.0,0.0
-57.0,-23.0,27.0,18.0,-6.0,-6.0,15.0,28.0,-27.0,-166.0,0.0
-59.0,-28.0,29.0,8.0,10.0,9.0,23.0,24.0,-63.0,-210.0,0.0
-57.0,-25.0,25.0,7.0,20.0,9.0,23.0,19.0,-71.0,-194.0,0.0
-40.0,-11.0,21.0,8.0,10.0,-8.0,6.0,5.0,-73.0,-154.0,0.0
-36.0,-1.0,16.0,1.0,-3.0,3.0,4.0,8.0,-41.0,-92.0,0.0
-29.0,-3.0,12.0,4.0,-10.0,2.0,7.0,6.0,-21.0,-51.0,0.0
-17.0,-12.0,0.0,5.0,-9.0,-9.0,-10.0,5.0,-17.0,-34.0,0.0
-16.0,4.0,0.0,2.0,-3.0,-16.0,-14.0,1.0,-14.0,-7.0,0.0
-21.0,6.0,-1.0,-2.0,11.0,-12.0,-7.0,-17.0,-19.0,-8.0,0.0
-11.0,9.0,5.0,-3.0,8.0,-5.0,5.0,-8.0,-27.0,1.0,0.0
-5.0,11.0,6.0,-7.0,-2.0,-7.0,1.0,-5.0,-27.0,-15.0,0.0
-14.0,3.0,1.0,-10.0,0.0,-13.0,-3.0,-14.0,-36.0,-78.0,0.0
-26.0,-4.0,4.0,-18.0,3.0,1.0,-14.0,-30.0,-42.0,-98.0,0.0
-24.0,-12.0,-14.0,-7.0,3.0,0.0,-28.0,-33.0,-45.0,-64.0,0.0
-18.0,-3.0,-18.0,0.0,8.0,-10.0,-10.0,-19.0,-9.0,-29.0,0.0
-11.0,4.0,-22.0,-9.0,0.0,-2.0,6.0,-4.0,-11.0,-20.0,0.0
-2.0,6.0,-19.0,-2.0,3.0,0.0,3.0,0.0,-25.0,-17.0,0.0
5.0,-1.0,-15.0,-3.0,4.0,-11.0,-14.0,-4.0,-63.0,-29.0,0.0
4.0,3.0,-20.0,-12.0,4.0,-9.0,-16.0,-8.0,-97.0,-61.0,0.0
-9.0,19.0,-27.0,-6.0,0.0,1.0,3.0,0.0,-66.0,-95.0,0.0
-10.0,24.0,-31.0,-15.0,1.0,0.0,4.0,0.0,-64.0,-100.0,0.0
0.0,17.0,-21.0,-5.0,2.0,8.0,-10.0,17.0,-56.0,-72.0,0.0
12.0,14.0,-11.0,7.0,-7.0,5.0,-14.0,16.0,-26.0,-53.0,0.0
31.0,12.0,-7.0,12.0,-11.0,6.0,-25.0,7.0,-3.0,-31.0,0.0
38.0,0.0,-24.0,4.0,-5.0,-6.0,-27.0,13.0,28.0,-13.0,0.0
29.0,-8.0,-20.0,7.0,-5.0,-3.0,-20.0,29.0,52.0,-9.0,0.0
17.0,-10.0,-17.0,6.0,-1.0,10.0,-25.0,30.0,26.0,-27.0,0.0
3.0,-28.0,-25.0,-2.0,2.0,12.0,-6.0,36.0,14.0,-40.0,0.0
-5.0,-34.0,-37.0,-20.0,-7.0,38.0,28.0,45.0,26.0,-9.0,0.0
15.0,-18.0,-32.0,-21.0,-3.0,49.0,27.0,42.0,50.0,47.0,0.0
25.0,-12.0,-18.0,-8.0,9.0,38.0,0.0,14.0,48.0,47.0,0.0
17.0,-15.0,-15.0,-14.0,4.0,22.0,-17.0,-4.0,7.0,5.0,0.0
8.0,-8.0,-3.0,-10.0,8.0,30.0,-28.0,-21.0,-55.0,-58.0,0.0
3.0,-14.0,3.0,1.0,15.0,24.0,-19.0,-21.0,-65.0,-87.0,0.0
-8.0,-18.0,6.0,5.0,10.0,15.0,-26.0,-23.0,-84.0,-92.0,0.0
-1.0,-11.0,11.0,5.0,6.0,0.0,-25.0,-28.0,-84.0,-83.0,0.0
18.0,-3.0,4.0,15.0,10.0,5.0,-13.0,-20.0,-80.0,-57.0,0.0
13.0,-3.0,6.0,15.0,11.0,4.0,-11.0,-22.0,-102.0,-62.0,0.0
-4.0,-20.0,-2.0,11.0,10.0,2.0,-4.0,-11.0,-64.0,-56.0,0.0
-18.0,-41.0,-16.0,2.0,-3.0,-3.0,6.0,38.0,85.0,12.0,0.0
-16.0,-46.0,-18.0,6.0,0.0,-3.0,14.0,57.0,130.0,37.0,0.0
2.0,-21.0,-5.0,14.0,10.0,2.0,7.0,23.0,36.0,13.0,0.0
27.0,5.0,18.0,11.0,21.0,2.0,4.0,-3.0,-11.0,-7.0,0.0
17.0,4.0,28.0,7.0,40.0,14.0,0.0,-22.0,-19.0,-34.0,0.0
5.0,0.0,22.0,4.0,44.0,0.0,-9.0,-42.0,-56.0,-73.0,0.0
-19.0,-5.0,1.0,7.0,22.0,-1.0,-27.0,-64.0,-94.0,-108.0,0.0
-27.0,-2.0,0.0,2.0,0.0,-11.0,-43.0,-69.0,-107.0,-91.0,0.0
-19.0,4.0,12.0,2.0,-5.0,-18.0,-49.0,-63.0,-112.0,-95.0,0.0
-28.0,-15.0,0.0,-30.0,-24.0,-7.0,-30.0,-21.0,-85.0,-72.0,0.0
-21.0,-18.0,-16.0,-47.0,-37.0,-28.0,-4.0,55.0,14.0,3.0,0.0
21.0,0.0,-8.0,-32.0,-27.0,-46.0,-1.0,114.0,124.0,54.0,0.0
43.0,23.0,-6.0,-17.0,-17.0,-37.0,8.0,157.0,246.0,95.0,0.0
52.0,23.0,-7.0,0.0,-9.0,-21.0,7.0,138.0,281.0,113.0,0.0
38.0,6.0,-16.0,-6.0,1.0,-16.0,16.0,89.0,205.0,118.0,0.0
50.0,-5.0,-9.0,-10.0,2.0,-11.0,12.0,53.0,141.0,163.0,0.0
67.0,4.0,14.0,-12.0,2.0,1.0,20.0,29.0,119.0,230.0,0.0
70.0,27.0,20.0,-13.0,5.0,-3.0,18.0,32.0,113.0,269.0,0.0
55.0,28.0,11.0,-12.0,19.0,-1.0,4.0,27.0,74.0,205.0,0.0
16.0,5.0,0.0,-20.0,12.0,3.0,3.0,20.0,26.0,80.0,0.0
-13.0,-8.0,-11.0,-24.0,4.0,5.0,20.0,19.0,-12.0,-46.0,0.0
-4.0,-10.0,-19.0,-7.0,1.0,10.0,27.0,28.0,-2.0,-45.0,0.0
0.0,-18.0,-13.0,11.0,6.0,-2.0,7.0,19.0,-4.0,-25.0,0.0
3.0,-29.0,-13.0,-4.0,10.0,0.0,4.0,16.0,-3.0,-11.0,0.0
0.0,-17.0,0.0,-13.0,1.0,1.0,-5.0,17.0,-3.0,35.0,0.0
2.0,-6.0,-1.0,-20.0,-12.0,-1.0,-3.0,15.0,2.0,78.0,0.0
4.0,2.0,-10.0,-20.0,-17.0,10.0,19.0,19.0,32.0,117.0,0.0
-8.0,-6.0,-8.0,-21.0,-12.0,26.0,50.0,31.0,45.0,121.0,0.0
-4.0,-1.0,-5.0,-26.0,2.0,28.0,54.0,55.0,66.0,85.0,0.0
4.0,18.0,-9.0,-22.0,-10.0,0.0,13.0,36.0,62.0,56.0,0.0
5.0,23.0,-34.0,-17.0,-17.0,6.0,-32.0,-8.0,-30.0,2.0,0.0
17.0,23.0,-28.0,-15.0,-8.0,15.0,-26.0,-31.0,-62.0,-18.0,0.0
-7.0,8.0,-20.0,-14.0,-17.0,20.0,-19.0,-18.0,-17.0,18.0,0.0
-4.0,11.0,-27.0,-19.0,-30.0,11.0,-43.0,-2.0,50.0,82.0,0.0
23.0,30.0,-18.0,-25.0,-26.0,2.0,-38.0,10.0,94.0,123.0,0.0
37.0,28.0,-20.0,-24.0,-37.0,0.0,-11.0,20.0,114.0,140.0,0.0
69.0,36.0,-26.0,-24.0,-47.0,-13.0,16.0,30.0,135.0,220.0,0.0
113.0,54.0,-27.0,-5.0,-43.0,-10.0,0.0,22.0,112.0,270.0,0.0
104.0,56.0,-15.0,10.0,-35.0,-6.0,-37.0,-13.0,19.0,225.0,0.0
45.0,25.0,-16.0,29.0,-21.0,-3.0,-33.0,-30.0,-33.0,174.0,0.0
1.0,12.0,-12.0,32.0,-4.0,13.0,-23.0,-37.0,-56.0,72.0,0.0
-35.0,-4.0,0.0,34.0,11.0,19.0,-27.0,-59.0,-115.0,-75.0,0.0
-63.0,-12.0,0.0,26.0,19.0,21.0,-20.0,-48.0,-131.0,-175.0,0.0
-89.0,2.0,1.0,25.0,14.0,21.0,0.0,-41.0,-146.0,-264.0,0.0
-100.0,3.0,4.0,25.0,10.0,25.0,4.0,-34.0,-149.0,-322.0,0.0
-99.0,-11.0,2.0,27.0,15.0,26.0,18.0,-31.0,-104.0,-284.0,0.0
-79.0,-6.0,1.0,23.0,13.0,34.0,22.0,-18.0,-78.0,-214.0,0.0
-30.0,16.0,11.0,24.0,0.0,18.0,7.0,-12.0,-60.0,-129.0,0.0
4.0,23.0,7.0,13.0,5.0,9.0,34.0,-12.0,-12.0,-29.0,0.0
-9.0,-1.0,2.0,2.0,0.0,15.0,58.0,-14.0,6.0,-13.0,0.0
-23.0,-24.0,3.0,-4.0,3.0,27.0,65.0,-22.0,33.0,-29.0,0.0
8.0,-7.0,9.0,-4.0,1.0,22.0,61.0,-10.0,81.0,7.0,0.0
25.0,7.0,-2.0,-1.0,-5.0,5.0,32.0,-11.0,75.0,38.0,0.0
9.0,17.0,15.0,3.0,3.0,-8.0,8.0,-42.0,-2.0,5.0,0.0
-7.0,13.0,16.0,15.0,8.0,6.0,6.0,-82.0,-143.0,-104.0,0.0
-16.0,14.0,11.0,20.0,11.0,13.0,-2.0,-89.0,-206.0,-137.0,0.0
0.0,7.0,19.0,25.0,13.0,12.0,-7.0,-89.0,-194.0,-76.0,0.0
-7.0,1.0,15.0,25.0,17.0,7.0,-9.0,-90.0,-201.0,-43.0,0.0
-33.0,0.0,12.0,27.0,13.0,5.0,-15.0,-113.0,-246.0,-132.0,0.0
-63.0,-4.0,19.0,22.0,18.0,3.0,-17.0,-154.0,-330.0,-301.0,0.0
-65.0,-11.0,16.0,13.0,2.0,-3.0,-25.0,-138.0,-299.0,-276.0,0.0
-53.0,-23.0,-7.0,-11.0,-24.0,-37.0,-13.0,-4.0,9.0,-95.0,0.0
-36.0,-18.0,-13.0,-8.0,-33.0,-31.0,1.0,120.0,333.0,128.0,0.0
-4.0,0.0,-13.0,0.0,-28.0,-31.0,-10.0,143.0,403.0,279.0,0.0
22.0,9.0,-1.0,-1.0,-30.0,-41.0,-31.0,116.0,342.0,362.0,0.0
30.0,16.0,9.0,-11.0,-33.0,-49.0,-51.0,62.0,249.0,377.0,0.0
-5.0,-11.0,-14.0,-37.0,-36.0,-54.0,-51.0,58.0,212.0,202.0,0.0
-27.0,-32.0,-21.0,-41.0,-22.0,-30.0,-2.0,143.0,308.0,33.0,0.0
-29.0,-12.0,18.0,-12.0,0.0,-9.0,34.0,148.0,318.0,-5.0,0.0
-37.0,-1.0,19.0,6.0,14.0,4.0,34.0,97.0,181.0,-81.0,0.0
-53.0,-5.0,21.0,10.0,13.0,3.0,21.0,73.0,95.0,-134.0,0.0
-64.0,-22.0,34.0,22.0,10.0,2.0,-5.0,53.0,41.0,-130.0,0.0
-68.0,-25.0,28.0,20.0,0.0,0.0,-13.0,35.0,17.0,-109.0,0.0
-60.0,-27.0,26.0,22.0,-3.0,5.0,-15.0,29.0,12.0,-99.0,0.0
-41.0,-23.0,26.0,21.0,-1.0,2.0,-11.0,14.0,4.0,-69.0,0.0
-22.0,-20.0,24.0,13.0,7.0,-5.0,-7.0,4.0,0.0,-40.0,0.0
-25.0,-22.0,20.0,6.0,10.0,1.0,-7.0,0.0,-5.0,-18.0,0.0
-24.0,-24.0,6.0,16.0,2.0,-12.0,-13.0,-1.0,-9.0,-21.0,0.0
-24.0,-9.0,-4.0,6.0,-2.0,-27.0,-14.0,2.0,-4.0,-27.0,0.0
-9.0,-2.0,0.0,5.0,-2.0,-12.0,-23.0,4.0,-18.0,-32.0,0.0
-6.0,0.0,-5.0,4.0,-6.0,-3.0,-19.0,7.0,-16.0,-30.0,0.0
-3.0,5.0,-4.0,6.0,-13.0,-4.0,-27.0,3.0,-31.0,-25.0,0.0
14.0,13.0,0.0,10.0,-16.0,-10.0,-44.0,-17.0,-55.0,-29.0,0.0
39.0,15.0,-3.0,7.0,-23.0,-30.0,-49.0,-41.0,-38.0,-11.0,0.0
47.0,4.0,-14.0,2.0,-30.0,-33.0,-42.0,-39.0,-17.0,19.0,0.0
40.0,-7.0,-19.0,7.0,-15.0,-22.0,-28.0,-36.0,-4.0,23.0,0.0
32.0,-8.0,-18.0,6.0,-3.0,-10.0,-29.0,-44.0,-15.0,11.0,0.0
-5.0,-21.0,-28.0,2.0,-12.0,-9.0,-4.0,-21.0,-4.0,-26.0,0.0
-18.0,-36.0,-29.0,-6.0,-6.0,-2.0,17.0,7.0,11.0,-31.0,0.0
20.0,-29.0,-10.0,3.0,1.0,1.0,15.0,-2.0,16.0,8.0,0.0
43.0,-8.0,-2.0,13.0,-3.0,-17.0,-9.0,-20.0,8.0,18.0,0.0
43.0,10.0,-9.0,3.0,-7.0,-15.0,-27.0,-31.0,-19.0,8.0,0.0
32.0,4.0,-18.0,4.0,-2.0,-2.0,-3.0,-41.0,-25.0,-20.0,0.0
24.0,-7.0,-17.0,5.0,4.0,-8.0,21.0,-42.0,-10.0,-22.0,0.0
15.0,-11.0,0.0,-25.0,9.0,-5.0,29.0,-31.0,3.0,-16.0,0.0
9.0,4.0,5.0,-46.0,6.0,-4.0,11.0,-20.0,-24.0,-53.0,0.0
7.0,22.0,7.0,-42.0,-1.0,-12.0,10.0,-19.0,-38.0,-53.0,0.0
9.0,23.0,8.0,-36.0,8.0,-3.0,11.0,-19.0,-26.0,12.0,0.0
24.0,10.0,3.0,-17.0,16.0,-1.0,13.0,-16.0,-26.0,58.0,0.0
32.0,12.0,5.0,3.0,-1.0,-9.0,17.0,-28.0,-26.0,70.0,0.0
35.0,15.0,9.0,10.0,-18.0,-5.0,13.0,-45.0,-62.0,-4.0,0.0
35.0,12.0,12.0,22.0,-15.0,-1.0,9.0,-69.0,-86.0,-80.0,0.0
35.0,14.0,19.0,21.0,-14.0,-11.0,5.0,-53.0,-85.0,-87.0,0.0
13.0,8.0,12.0,18.0,-18.0,-7.0,11.0,-27.0,-70.0,-85.0,0.0
10.0,-1.0,-4.0,11.0,-8.0,1.0,34.0,-1.0,-29.0,-56.0,0.0
15.0,17.0,-1.0,0.0,-5.0,-15.0,23.0,-3.0,-41.0,-22.0,0.0
14.0,24.0,3.0,1.0,-13.0,-23.0,2.0,-13.0,-54.0,0.0,0.0
17.0,29.0,6.0,-4.0,-15.0,-15.0,-9.0,-19.0,-46.0,13.0,0.0
20.0,24.0,9.0,-14.0,-15.0,-13.0,-16.0,-7.0,-10.0,34.0,0.0
29.0,16.0,-1.0,-24.0,-14.0,-20.0,-1.0,21.0,39.0,28.0,0.0
25.0,15.0,8.0,-28.0,-7.0,-25.0,-7.0,37.0,52.0,8.0,0.0
35.0,22.0,6.0,-7.0,-6.0,-29.0,-20.0,31.0,34.0,54.0,0.0
54.0,27.0,7.0,-5.0,1.0,-33.0,-41.0,12.0,45.0,95.0,0.0
42.0,31.0,9.0,1.0,-3.0,-25.0,-34.0,-14.0,26.0,82.0,0.0
23.0,12.0,0.0,-6.0,-5.0,-26.0,-16.0,-29.0,-14.0,50.0,0.0
0.0,7.0,-1.0,-17.0,-17.0,-40.0,-24.0,-33.0,-30.0,7.0,0.0
-39.0,-11.0,-3.0,-21.0,-21.0,-43.0,-34.0,-33.0,-42.0,-26.0,0.0
-47.0,-34.0,-14.0,-28.0,-16.0,-36.0,-16.0,4.0,7.0,5.0,0.0
-34.0,-28.0,-14.0,-16.0,-18.0,-34.0,-16.0,33.0,72.0,56.0,0.0
-18.0,-19.0,-11.0,-1.0,-13.0,-40.0,-17.0,20.0,77.0,63.0,0.0
-20.0,-27.0,-15.0,-7.0,-8.0,-37.0,-29.0,3.0,76.0,50.0,0.0
-17.0,-34.0,-14.0,-11.0,-3.0,-15.0,-44.0,-9.0,58.0,30.0,0.0
0.0,-38.0,-13.0,-2.0,-5.0,-7.0,-40.0,-28.0,-21.0,-41.0,0.0
48.0,-12.0,-17.0,8.0,-2.0,1.0,-50.0,-41.0,-87.0,-137.0,0.0
64.0,-10.0,-10.0,21.0,11.0,22.0,-11.0,-31.0,-85.0,-166.0,0.0
22.0,-12.0,-2.0,25.0,27.0,33.0,7.0,-14.0,-106.0,-175.0,0.0
-5.0,-14.0,0.0,22.0,30.0,22.0,17.0,-9.0,-111.0,-146.0,0.0
-5.0,-29.0,7.0,14.0,31.0,44.0,71.0,3.0,-42.0,-88.0,0.0
11.0,-16.0,0.0,16.0,24.0,49.0,65.0,3.0,1.0,-20.0,0.0
36.0,7.0,0.0,16.0,18.0,31.0,28.0,-3.0,6.0,58.0,0.0
44.0,10.0,-9.0,10.0,18.0,28.0,10.0,-1.0,11.0,79.0,0.0
39.0,-3.0,-13.0,5.0,14.0,20.0,25.0,11.0,11.0,10.0,0.0
19.0,-8.0,-18.0,25.0,24.0,27.0,22.0,18.0,-34.0,-79.0,0.0
8.0,-4.0,-15.0,32.0,30.0,28.0,33.0,11.0,-26.0,-105.0,0.0
5.0,0.0,-18.0,26.0,36.0,17.0,41.0,13.0,-35.0,-98.0,0.0
11.0,11.0,-20.0,16.0,18.0,17.0,32.0,2.0,-21.0,-63.0,0.0
5.0,3.0,-24.0,15.0,8.0,-5.0,28.0,-4.0,31.0,-27.0,0.0
-27.0,-16.0,-29.0,11.0,-3.0,-12.0,31.0,36.0,116.0,35.0,0.0
-33.0,-22.0,-26.0,8.0,-3.0,6.0,31.0,57.0,157.0,80.0,0.0
-10.0,-12.0,-19.0,13.0,0.0,-6.0,17.0,23.0,74.0,68.0,0.0
11.0,-11.0,-9.0,12.0,-9.0,-22.0,4.0,-9.0,-1.0,65.0,0.0
22.0,-3.0,3.0,26.0,-8.0,-31.0,-5.0,-34.0,-29.0,79.0,0.0
30.0,14.0,11.0,32.0,4.0,-17.0,-12.0,-41.0,-36.0,105.0,0.0
25.0,10.0,7.0,26.0,5.0,-5.0,-16.0,-36.0,-62.0,79.0,0.0
8.0,-8.0,-1.0,20.0,1.0,-7.0,-11.0,-33.0,-87.0,9.0,0.0
7.0,-11.0,-11.0,17.0,1.0,-13.0,5.0,-39.0,-77.0,-27.0,0.0
10.0,-10.0,-1.0,24.0,-1.0,6.0,23.0,-24.0,-45.0,-19.0,0.0
18.0,-10.0,3.0,19.0,-2.0,6.0,11.0,-20.0,-38.0,-8.0,0.0
13.0,-7.0,0.0,5.0,-10.0,-2.0,3.0,-20.0,-41.0,-8.0,0.0
0.0,-15.0,-10.0,8.0,-6.0,3.0,17.0,-15.0,-38.0,-26.0,0.0
9.0,-14.0,-10.0,-11.0,-5.0,8.0,24.0,-6.0,-17.0,-29.0,0.0
23.0,-3.0,-1.0,-4.0,-7.0,1.0,20.0,0.0,7.0,-9.0,0.0
26.0,-5.0,4.0,0.0,-5.0,1.0,25.0,-8.0,2.0,0.0,0.0
36.0,-11.0,6.0,6.0,0.0,11.0,18.0,-32.0,-24.0,39.0,0.0
46.0,-1.0,5.0,9.0,-1.0,16.0,8.0,-45.0,-26.0,88.0,0.0
64.0,14.0,10.0,10.0,-5.0,6.0,-5.0,-74.0,-46.0,139.0,0.0
76.0,31.0,9.0,1.0,-15.0,6.0,-16.0,-98.0,-55.0,194.0,0.0
73.0,16.0,11.0,-4.0,-17.0,1.0,-11.0,-87.0,-56.0,198.0,0.0
56.0,4.0,14.0,-5.0,-5.0,-9.0,-2.0,-68.0,-64.0,131.0,0.0
26.0,-10.0,10.0,11.0,0.0,-11.0,11.0,-53.0,-66.0,33.0,0.0
11.0,-9.0,9.0,4.0,-4.0,-14.0,12.0,-12.0,-16.0,-78.0,0.0
-54.0,-37.0,-3.0,-2.0,-9.0,-23.0,12.0,63.0,99.0,-157.0,0.0
-87.0,-39.0,-1.0,-2.0,-6.0,-21.0,15.0,116.0,215.0,-125.0,0.0
-47.0,-14.0,4.0,4.0,3.0,-9.0,0.0,86.0,178.0,-65.0,0.0
-23.0,-5.0,11.0,-3.0,10.0,3.0,5.0,62.0,94.0,-31.0,0.0
5.0,18.0,14.0,-3.0,6.0,1.0,-9.0,32.0,39.0,39.0,0.0
57.0,29.0,16.0,-3.0,10.0,-28.0,-35.0,12.0,55.0,225.0,0.0
95.0,27.0,1.0,-11.0,8.0,-40.0,-26.0,2.0,133.0,421.0,0.0
108.0,24.0,-12.0,-18.0,5.0,-29.0,0.0,7.0,180.0,524.0,0.0
108.0,21.0,-12.0,-9.0,1.0,-24.0,9.0,17.0,179.0,473.0,0.0
52.0,-1.0,-3.0,-1.0,-7.0,-32.0,0.0,2.0,132.0,207.0,0.0
-14.0,-42.0,-6.0,-15.0,-1.0,-32.0,-6.0,21.0,52.0,-84.0,0.0
-48.0,-42.0,-6.0,-21.0,0.0,-18.0,9.0,57.0,40.0,-208.0,0.0
-42.0,-14.0,5.0,3.0,11.0,-7.0,11.0,54.0,9.0,-249.0,0.0
-38.0,4.0,22.0,10.0,21.0,-7.0,6.0,27.0,-62.0,-273.0,0.0
-36.0,1.0,40.0,14.0,20.0,-9.0,-2.0,-11.0,-120.0,-283.0,0.0
-32.0,-7.0,37.0,-3.0,15.0,10.0,-17.0,-34.0,-148.0,-254.0,0.0
-32.0,-16.0,15.0,-18.0,11.0,25.0,1.0,-19.0,-115.0,-180.0,0.0
-22.0,-9.0,5.0,-13.0,8.0,1.0,-1.0,-14.0,-82.0,-84.0,0.0
12.0,-7.0,8.0,-3.0,5.0,-14.0,-7.0,-13.0,-49.0,29.0,0.0
37.0,0.0,15.0,-13.0,-3.0,-19.0,-9.0,0.0,10.0,115.0,0.0
49.0,7.0,14.0,-17.0,-10.0,-19.0,-23.0,-9.0,43.0,163.0,0.0
51.0,13.0,24.0,-34.0,-15.0,-15.0,-42.0,-33.0,8.0,162.0,0.0
26.0,7.0,15.0,-39.0,-9.0,-15.0,-32.0,-9.0,14.0,90.0,0.0
-22.0,-25.0,2.0,-34.0,4.0,2.0,-6.0,11.0,3.0,-37.0,0.0
-51.0,-31.0,1.0,-15.0,4.0,16.0,14.0,-3.0,-62.0,-166.0,0.0
-26.0,-15.0,13.0,-2.0,9.0,20.0,25.0,-6.0,-70.0,-142.0,0.0
-6.0,-8.0,32.0,1.0,18.0,22.0,32.0,11.0,-62.0,-69.0,0.0
-3.0,-21.0,29.0,-19.0,16.0,23.0,27.0,23.0,-36.0,-18.0,0.0
13.0,-16.0,15.0,-11.0,3.0,30.0,19.0,10.0,-23.0,28.0,0.0
58.0,-2.0,0.0,-18.0,-1.0,10.0,13.0,-6.0,-24.0,80.0,0.0
72.0,10.0,2.0,-28.0,-2.0,-8.0,2.0,1.0,-18.0,121.0,0.0
55.0,5.0,9.0,-27.0,-4.0,-14.0,4.0,33.0,26.0,124.0,0.0
51.0,12.0,9.0,-22.0,-9.0,-7.0,0.0,49.0,64.0,85.0,0.0
18.0,-2.0,10.0,-6.0,-12.0,-3.0,-23.0,33.0,33.0,38.0,0.0
-45.0,-25.0,22.0,-4.0,-8.0,0.0,-38.0,-6.0,-8.0,-8.0,0.0
-77.0,-24.0,19.0,10.0,-6.0,2.0,-34.0,-26.0,-35.0,-30.0,0.0
-60.0,-9.0,25.0,15.0,1.0,13.0,-18.0,-20.0,-40.0,-3.0,0.0
-54.0,-9.0,24.0,16.0,12.0,19.0,10.0,-12.0,-24.0,31.0,0.0
-75.0,-13.0,20.0,24.0,16.0,20.0,18.0,-5.0,-25.0,20.0,0.0
-86.0,-29.0,15.0,19.0,20.0,23.0,-1.0,-4.0,-12.0,16.0,0.0
-78.0,-27.0,-1.0,20.0,14.0,33.0,0.0,-5.0,15.0,16.0,0.0
-63.0,-5.0,0.0,21.0,-2.0,15.0,-3.0,-10.0,-3.0,24.0,0.0
-26.0,0.0,1.0,7.0,-5.0,-12.0,-18.0,-7.0,2.0,34.0,0.0
7.0,7.0,-8.0,-1.0,4.0,-14.0,-22.0,22.0,39.0,35.0,0.0
8.0,1.0,-6.0,0.0,0.0,-6.0,-24.0,30.0,51.0,31.0,0.0
-2.0,1.0,-1.0,-2.0,-2.0,-9.0,-28.0,-2.0,24.0,15.0,0.0
-22.0,-1.0,10.0,6.0,2.0,-13.0,-31.0,-26.0,-14.0,-21.0,0.0
-18.0,-6.0,11.0,16.0,0.0,-21.0,-26.0,-29.0,-14.0,-16.0,0.0
-8.0,2.0,16.0,1.0,-7.0,-18.0,-39.0,-29.0,-1.0,30.0,0.0
-7.0,6.0,-3.0,-3.0,-3.0,-1.0,-33.0,-15.0,21.0,72.0,0.0
-11.0,-3.0,-8.0,-5.0,0.0,0.0,-18.0,-8.0,40.0,75.0,0.0
-19.0,-7.0,-6.0,-12.0,1.0,-8.0,0.0,-8.0,44.0,60.0,0.0
-9.0,0.0,7.0,-10.0,8.0,0.0,1.0,-16.0,3.0,12.0,0.0
-16.0,1.0,7.0,1.0,20.0,15.0,11.0,-6.0,-30.0,-21.0,0.0
-33.0,-8.0,0.0,-2.0,21.0,14.0,14.0,-2.0,-46.0,-42.0,0.0
-25.0,-11.0,10.0,0.0,14.0,11.0,-8.0,-14.0,-74.0,-54.0,0.0
-13.0,7.0,5.0,-9.0,9.0,19.0,-18.0,-13.0,-68.0,-37.0,0.0
-5.0,18.0,2.0,-13.0,-2.0,14.0,-18.0,2.0,-47.0,-19.0,0.0
-3.0,15.0,1.0,-13.0,-6.0,8.0,-14.0,5.0,-17.0,0.0,0.0
1.0,22.0,11.0,-12.0,-7.0,4.0,-18.0,4.0,-14.0,0.0,0.0
20.0,24.0,5.0,-9.0,-4.0,1.0,-7.0,-1.0,-15.0,-13.0,0.0
38.0,14.0,-9.0,-3.0,-3.0,3.0,4.0,-3.0,-2.0,0.0,0.0
33.0,16.0,-7.0,2.0,-8.0,-4.0,-1.0,-5.0,-27.0,4.0,0.0
19.0,8.0,5.0,0.0,-10.0,-1.0,1.0,-10.0,-23.0,4.0,0.0
27.0,18.0,11.0,0.0,-20.0,7.0,5.0,-5.0,-17.0,18.0,0.0
56.0,26.0,7.0,10.0,-22.0,-1.0,0.0,-9.0,-32.0,62.0,0.0
69.0,25.0,0.0,9.0,-18.0,4.0,-6.0,-28.0,-38.0,96.0,0.0
54.0,8.0,0.0,7.0,-12.0,16.0,-11.0,-23.0,-20.0,103.0,0.0
32.0,-7.0,-7.0,7.0,-8.0,17.0,-5.0,-13.0,-3.0,119.0,0.0
29.0,5.0,1.0,5.0,-9.0,7.0,-17.0,-25.0,13.0,108.0,0.0
30.0,33.0,11.0,-3.0,-22.0,7.0,-36.0,-43.0,-24.0,40.0,0.0
18.0,26.0,6.0,-2.0,-23.0,13.0,-29.0,-31.0,-29.0,-19.0,0.0
-8.0,4.0,-3.0,-3.0,-15.0,-2.0,-29.0,-3.0,-10.0,-79.0,0.0
-39.0,-5.0,1.0,-1.0,0.0,0.0,-17.0,7.0,26.0,-92.0,0.0
-13.0,5.0,-8.0,-2.0,1.0,1.0,-6.0,16.0,81.0,-50.0,0.0
27.0,21.0,-8.0,0.0,0.0,-4.0,-7.0,5.0,53.0,-62.0,0.0
25.0,16.0,2.0,2.0,10.0,6.0,1.0,-8.0,-11.0,-132.0,0.0
24.0,10.0,-1.0,8.0,8.0,13.0,-20.0,-31.0,-70.0,-177.0,0.0
0.0,6.0,-8.0,12.0,7.0,-4.0,-34.0,-50.0,-99.0,-176.0,0.0
-12.0,18.0,-2.0,7.0,8.0,-14.0,-36.0,-43.0,-95.0,-120.0,0.0
-8.0,20.0,0.0,16.0,2.0,-13.0,-35.0,-43.0,-86.0,-69.0,0.0
-4.0,21.0,6.0,20.0,2.0,-13.0,-46.0,-38.0,-91.0,-72.0,0.0
-4.0,21.0,5.0,18.0,0.0,-6.0,-24.0,-32.0,-75.0,-89.0,0.0
-8.0,12.0,-9.0,9.0,0.0,-9.0,11.0,-4.0,24.0,-74.0,0.0
1.0,7.0,-8.0,2.0,1.0,-5.0,15.0,25.0,97.0,-11.0,0.0
1.0,-10.0,-12.0,2.0,9.0,6.0,11.0,44.0,115.0,44.0,0.0
-9.0,-13.0,-20.0,0.0,10.0,18.0,3.0,20.0,80.0,54.0,0.0
1.0,-8.0,-14.0,-4.0,2.0,2.0,-1.0,-19.0,41.0,101.0,0.0
16.0,4.0,-12.0,-11.0,1.0,-5.0,-19.0,-31.0,0.0,91.0,0.0
1.0,9.0,-9.0,-11.0,1.0,6.0,-21.0,-22.0,-11.0,50.0,0.0
-9.0,1.0,-2.0,1.0,18.0,5.0,-15.0,-9.0,-20.0,-1.0,0.0
-31.0,2.0,1.0,13.0,18.0,12.0,-23.0,-12.0,-49.0,-70.0,0.0
-46.0,6.0,15.0,12.0,14.0,25.0,-20.0,9.0,-32.0,-121.0,0.0
-55.0,-6.0,16.0,8.0,21.0,17.0,-13.0,6.0,-41.0,-143.0,0.0
-33.0,-17.0,15.0,12.0,22.0,19.0,17.0,4.0,-46.0,-107.0,0.0
-7.0,-11.0,6.0,10.0,12.0,30.0,35.0,7.0,-33.0,-38.0,0.0
24.0,9.0,15.0,14.0,15.0,15.0,22.0,1.0,-10.0,24.0,0.0
22.0,18.0,13.0,17.0,24.0,10.0,-6.0,-5.0,-26.0,36.0,0.0
5.0,12.0,2.0,16.0,19.0,12.0,-17.0,3.0,9.0,69.0,0.0
4.0,12.0,6.0,10.0,11.0,-11.0,-25.0,44.0,117.0,157.0,0.0
13.0,29.0,13.0,6.0,-2.0,-23.0,-39.0,55.0,130.0,190.0,0.0
-6.0,17.0,11.0,7.0,-7.0,-6.0,-40.0,22.0,68.0,126.0,0.0
-51.0,-16.0,-6.0,-7.0,-4.0,14.0,2.0,-1.0,-10.0,15.0,0.0
-79.0,-31.0,-22.0,-19.0,-10.0,25.0,29.0,-6.0,-51.0,-78.0,0.0
-71.0,-25.0,-24.0,-14.0,-8.0,39.0,24.0,0.0,-31.0,-91.0,0.0
-51.0,-20.0,-20.0,1.0,0.0,41.0,13.0,-10.0,-35.0,-74.0,0.0
-48.0,-6.0,-8.0,4.0,-3.0,40.0,16.0,4.0,-40.0,-66.0,0.0
-30.0,3.0,-1.0,1.0,-7.0,21.0,6.0,16.0,-49.0,-46.0,0.0
-21.0,16.0,9.0,16.0,-4.0,16.0,2.0,20.0,-37.0,-9.0,0.0
-8.0,16.0,-2.0,18.0,0.0,4.0,5.0,37.0,1.0,38.0,0.0
-13.0,16.0,-10.0,3.0,-9.0,-26.0,-6.0,71.0,67.0,93.0,0.0
-26.0,0.0,-10.0,-6.0,-4.0,-30.0,-15.0,98.0,118.0,95.0,0.0
-19.0,-5.0,3.0,-10.0,-6.0,-9.0,14.0,107.0,114.0,45.0,0.0
-21.0,-5.0,2.0,-23.0,-10.0,0.0,45.0,75.0,46.0,5.0,0.0
-14.0,9.0,-4.0,-17.0,-14.0,5.0,31.0,31.0,0.0,16.0,0.0
4.0,15.0,-10.0,-16.0,-10.0,13.0,21.0,17.0,21.0,116.0,0.0
26.0,21.0,-6.0,-6.0,-3.0,3.0,15.0,17.0,61.0,236.0,0.0
35.0,27.0,2.0,6.0,-3.0,-11.0,8.0,13.0,73.0,277.0,0.0
31.0,33.0,0.0,3.0,-5.0,-13.0,-26.0,-13.0,29.0,256.0,0.0
5.0,25.0,0.0,-10.0,-13.0,-24.0,-44.0,-41.0,-25.0,75.0,0.0
-11.0,5.0,-5.0,-14.0,-10.0,-22.0,-34.0,-27.0,-68.0,-114.0,0.0
0.0,8.0,0.0,-12.0,-4.0,-9.0,-24.0,-17.0,-76.0,-109.0,0.0
30.0,33.0,-5.0,-5.0,-10.0,-8.0,-24.0,-26.0,-68.0,-64.0,0.0
40.0,50.0,-6.0,-1.0,-16.0,-15.0,-30.0,-22.0,-54.0,-10.0,0.0
49.0,25.0,-1.0,-8.0,1.0,-19.0,-29.0,-27.0,-23.0,53.0,0.0
51.0,3.0,-2.0,-14.0,13.0,0.0,-16.0,-6.0,12.0,151.0,0.0
58.0,6.0,-14.0,-21.0,8.0,18.0,9.0,20.0,74.0,232.0,0.0
57.0,18.0,-25.0,-14.0,6.0,10.0,12.0,34.0,98.0,238.0,0.0
17.0,17.0,-26.0,-22.0,5.0,15.0,0.0,17.0,48.0,97.0,0.0
-22.0,5.0,-11.0,-28.0,3.0,14.0,-5.0,-5.0,33.0,12.0,0.0
-56.0,-7.0,1.0,-8.0,9.0,10.0,-12.0,-21.0,-10.0,-58.0,0.0
-73.0,-8.0,-1.0,10.0,16.0,23.0,1.0,-32.0,-96.0,-209.0,0.0
-96.0,-9.0,-8.0,17.0,24.0,35.0,24.0,-18.0,-104.0,-278.0,0.0
-134.0,-36.0,-11.0,26.0,37.0,45.0,39.0,1.0,-97.0,-273.0,0.0
-152.0,-49.0,0.0,35.0,47.0,58.0,39.0,7.0,-115.0,-273.0,0.0
-104.0,-24.0,5.0,24.0,55.0,68.0,26.0,17.0,-79.0,-155.0,0.0
-43.0,6.0,11.0,12.0,45.0,61.0,10.0,21.0,-21.0,-38.0,0.0
-25.0,11.0,21.0,9.0,31.0,37.0,9.0,31.0,12.0,-1.0,0.0
-17.0,18.0,19.0,16.0,32.0,26.0,13.0,30.0,20.0,8.0,0.0
15.0,26.0,26.0,22.0,29.0,21.0,-4.0,18.0,-4.0,2.0,0.0
55.0,37.0,20.0,33.0,28.0,13.0,-13.0,-13.0,-51.0,-21.0,0.0
36.0,22.0,0.0,35.0,17.0,15.0,-24.0,-37.0,-76.0,14.0,0.0
25.0,25.0,-6.0,27.0,11.0,0.0,-38.0,-36.0,-80.0,110.0,0.0
53.0,40.0,-1.0,21.0,2.0,-16.0,-62.0,-35.0,-62.0,202.0,0.0
70.0,45.0,-1.0,1.0,-9.0,-46.0,-67.0,-21.0,-29.0,236.0,0.0
62.0,32.0,-1.0,-12.0,-18.0,-44.0,-53.0,3.0,-53.0,78.0,0.0
19.0,4.0,-3.0,-1.0,-4.0,-2.0,-30.0,19.0,-82.0,-100.0,0.0
-5.0,-16.0,0.0,-5.0,0.0,22.0,5.0,50.0,-37.0,-125.0,0.0
6.0,-2.0,3.0,-3.0,2.0,34.0,58.0,75.0,51.0,-108.0,0.0
16.0,5.0,-1.0,-1.0,5.0,38.0,78.0,87.0,111.0,-56.0,0.0
11.0,8.0,-6.0,-5.0,14.0,32.0,54.0,109.0,171.0,5.0,0.0
14.0,18.0,4.0,-11.0,10.0,11.0,37.0,93.0,138.0,27.0,0.0
25.0,42.0,21.0,-8.0,5.0,0.0,11.0,48.0,49.0,32.0,0.0
11.0,39.0,14.0,-15.0,1.0,3.0,15.0,25.0,43.0,59.0,0.0
-13.0,30.0,0.0,-14.0,-5.0,-1.0,33.0,33.0,67.0,63.0,0.0
-23.0,17.0,-11.0,-16.0,-5.0,0.0,28.0,46.0,65.0,47.0,0.0
-35.0,9.0,-3.0,-24.0,-11.0,-22.0,2.0,40.0,44.0,32.0,0.0
-31.0,13.0,-1.0,-20.0,-14.0,-20.0,-4.0,19.0,25.0,15.0,0.0
-19.0,22.0,-5.0,-11.0,-13.0,-15.0,-14.0,-5.0,-23.0,14.0,0.0
0.0,23.0,-15.0,-17.0,-18.0,-23.0,-13.0,-16.0,-31.0,33.0,0.0
12.0,37.0,-8.0,1.0,-23.0,-10.0,-9.0,-18.0,-25.0,40.0,0.0
19.0,28.0,-2.0,29.0,-14.0,-4.0,-13.0,-9.0,-28.0,7.0,0.0
-1.0,7.0,-12.0,35.0,-9.0,0.0,-12.0,-13.0,-31.0,-27.0,0.0
-3.0,-7.0,-6.0,24.0,-4.0,5.0,-3.0,-16.0,-11.0,-21.0,0.0
1.0,3.0,-9.0,19.0,-1.0,-10.0,4.0,-10.0,1.0,14.0,0.0
14.0,18.0,-2.0,12.0,3.0,-3.0,0.0,-11.0,0.0,24.0,0.0
19.0,30.0,6.0,11.0,0.0,-5.0,-1.0,-7.0,0.0,34.0,0.0
27.0,36.0,9.0,13.0,-7.0,-16.0,0.0,6.0,24.0,45.0,0.0
41.0,34.0,9.0,-4.0,-8.0,-9.0,8.0,22.0,66.0,55.0,0.0
18.0,22.0,12.0,-8.0,-2.0,-10.0,12.0,15.0,52.0,38.0,0.0
-20.0,4.0,-5.0,-1.0,1.0,-12.0,10.0,-8.0,-31.0,-16.0,0.0
-39.0,-11.0,-17.0,1.0,2.0,-8.0,12.0,15.0,-49.0,-73.0,0.0
-45.0,-20.0,-22.0,-7.0,-1.0,-17.0,7.0,19.0,-44.0,-105.0,0.0
-38.0,-16.0,-17.0,-6.0,-7.0,-22.0,10.0,-9.0,-62.0,-99.0,0.0
-28.0,-1.0,-7.0,0.0,-7.0,-1.0,9.0,-35.0,-103.0,-85.0,0.0
-33.0,-10.0,-5.0,-1.0,-3.0,7.0,-4.0,-41.0,-109.0,-75.0,0.0
-37.0,-21.0,0.0,-7.0,-3.0,9.0,-3.0,-19.0,-60.0,-48.0,0.0
-20.0,-19.0,0.0,1.0,-3.0,2.0,-7.0,32.0,47.0,57.0,0.0
1.0,-18.0,-2.0,1.0,-13.0,-18.0,-2.0,61.0,117.0,130.0,0.0
0.0,-16.0,-13.0,-5.0,-15.0,-17.0,-16.0,48.0,102.0,98.0,0.0
-7.0,-22.0,-12.0,-13.0,-15.0,3.0,-21.0,7.0,24.0,26.0,0.0
-12.0,-32.0,-11.0,-21.0,-17.0,4.0,-16.0,-35.0,-65.0,-41.0,0.0
1.0,-25.0,-12.0,-17.0,-23.0,1.0,-11.0,-53.0,-111.0,-57.0,0.0
8.0,-8.0,-17.0,-18.0,-17.0,-8.0,-4.0,-53.0,-107.0,-60.0,0.0
1.0,9.0,-11.0,-16.0,-14.0,-14.0,-2.0,-53.0,-101.0,-60.0,0.0
4.0,15.0,-1.0,-10.0,-9.0,-1.0,-5.0,-30.0,-73.0,-27.0,0.0
14.0,6.0,0.0,-9.0,-18.0,-12.0,-5.0,10.0,5.0,18.0,0.0
26.0,12.0,-5.0,-11.0,-25.0,-18.0,18.0,74.0,143.0,94.0,0.0
40.0,17.0,4.0,-4.0,-18.0,-6.0,45.0,133.0,272.0,147.0,0.0
44.0,10.0,-3.0,-8.0,-17.0,-7.0,32.0,116.0,263.0,134.0,0.0
29.0,-18.0,-18.0,-18.0,-20.0,0.0,48.0,68.0,188.0,129.0,0.0
24.0,-26.0,-13.0,-9.0,-15.0,21.0,48.0,59.0,153.0,148.0,0.0
33.0,-17.0,-2.0,7.0,-5.0,16.0,16.0,33.0,110.0,150.0,0.0
47.0,0.0,1.0,4.0,2.0,18.0,5.0,15.0,55.0,138.0,0.0
45.0,0.0,1.0,-2.0,10.0,13.0,14.0,-5.0,-13.0,62.0,0.0
19.0,8.0,8.0,0.0,7.0,11.0,10.0,-32.0,-89.0,-43.0,0.0
9.0,8.0,1.0,7.0,6.0,11.0,12.0,-51.0,-109.0,-81.0,0.0
1.0,1.0,4.0,17.0,16.0,9.0,7.0,-60.0,-131.0,-111.0,0.0
-3.0,-5.0,15.0,17.0,34.0,25.0,5.0,-55.0,-151.0,-100.0,0.0
4.0,-6.0,18.0,7.0,39.0,19.0,22.0,-53.0,-135.0,-70.0,0.0
12.0,-10.0,11.0,-2.0,30.0,22.0,38.0,-31.0,-69.0,-37.0,0.0
33.0,0.0,9.0,-1.0,6.0,14.0,33.0,-4.0,36.0,-2.0,0.0
46.0,15.0,2.0,0.0,3.0,7.0,5.0,-24.0,40.0,11.0,0.0
49.0,14.0,-9.0,-3.0,4.0,17.0,-11.0,-37.0,-1.0,33.0,0.0
45.0,4.0,-6.0,-18.0,-9.0,14.0,7.0,12.0,63.0,90.0,0.0
30.0,-1.0,-14.0,-39.0,-11.0,3.0,21.0,82.0,142.0,109.0,0.0
30.0,6.0,-8.0,-37.0,-10.0,-1.0,24.0,100.0,155.0,85.0,0.0
43.0,7.0,2.0,-28.0,-7.0,8.0,19.0,56.0,110.0,91.0,0.0
33.0,-2.0,-10.0,-25.0,-11.0,-4.0,18.0,26.0,73.0,107.0,0.0
36.0,-8.0,-1.0,-34.0,-13.0,2.0,15.0,13.0,59.0,121.0,0.0
34.0,-10.0,3.0,-27.0,-14.0,4.0,5.0,-23.0,20.0,118.0,0.0
28.0,-14.0,-7.0,-34.0,-21.0,0.0,-6.0,-42.0,-14.0,114.0,0.0
24.0,-13.0,-7.0,-56.0,-19.0,-6.0,-7.0,-25.0,-16.0,115.0,0.0
17.0,-3.0,3.0,-53.0,-8.0,-14.0,14.0,-9.0,-2.0,117.0,0.0
27.0,0.0,16.0,-43.0,-3.0,-12.0,24.0,-18.0,-13.0,59.0,0.0
27.0,3.0,22.0,-32.0,-1.0,0.0,15.0,-23.0,-57.0,-62.0,0.0
10.0,-7.0,20.0,-10.0,4.0,9.0,14.0,-21.0,-76.0,-157.0,0.0
-29.0,-17.0,9.0,-9.0,0.0,11.0,20.0,1.0,-41.0,-188.0,0.0
-67.0,-23.0,6.0,-15.0,-8.0,0.0,13.0,29.0,-9.0,-200.0,0.0
-53.0,-9.0,8.0,-11.0,-14.0,9.0,15.0,34.0,8.0,-174.0,0.0
-20.0,0.0,8.0,0.0,-11.0,-1.0,-5.0,17.0,-6.0,-116.0,0.0
6.0,10.0,-1.0,1.0,-14.0,-14.0,-23.0,8.0,0.0,-56.0,0.0
0.0,0.0,-6.0,8.0,-18.0,-14.0,-19.0,-5.0,24.0,-11.0,0.0
-6.0,-8.0,1.0,1.0,-11.0,-20.0,-11.0,-25.0,5.0,-14.0,0.0
-6.0,-6.0,1.0,5.0,-12.0,-12.0,-8.0,-41.0,-37.0,-39.0,0.0
9.0,0.0,1.0,4.0,-16.0,-2.0,1.0,-40.0,-31.0,0.0,0.0
-4.0,-7.0,14.0,2.0,-7.0,-4.0,4.0,-32.0,-37.0,53.0,0.0
-31.0,-11.0,24.0,15.0,0.0,0.0,8.0,-25.0,-35.0,58.0,0.0
-33.0,-1.0,33.0,5.0,-4.0,1.0,10.0,-12.0,-21.0,36.0,0.0
-25.0,-2.0,30.0,3.0,-7.0,2.0,5.0,-8.0,-16.0,-39.0,0.0
-21.0,-5.0,26.0,3.0,-2.0,3.0,11.0,-6.0,-19.0,-94.0,0.0
-26.0,3.0,34.0,1.0,3.0,-2.0,21.0,11.0,-9.0,-81.0,0.0
-63.0,-5.0,25.0,-6.0,-1.0,9.0,16.0,3.0,-58.0,-137.0,0.0
-88.0,-22.0,1.0,-32.0,-6.0,6.0,16.0,-21.0,-108.0,-182.0,0.0
-90.0,-28.0,-17.0,-35.0,-3.0,8.0,26.0,-14.0,-80.0,-132.0,0.0
-76.0,-30.0,-17.0,-34.0,-11.0,0.0,32.0,8.0,4.0,-62.0,0.0
-46.0,-25.0,0.0,-35.0,-11.0,3.0,31.0,21.0,3.0,-32.0,0.0
-36.0,-38.0,-3.0,-34.0,-2.0,12.0,25.0,-17.0,-103.0,-70.0,0.0
-48.0,-51.0,-3.0,-39.0,-6.0,-7.0,12.0,-84.0,-200.0,-124.0,0.0
-65.0,-53.0,-6.0,-58.0,-24.0,-6.0,-1.0,-111.0,-242.0,-109.0,0.0
-63.0,-50.0,-2.0,-51.0,-17.0,3.0,5.0,-109.0,-248.0,-86.0,0.0
-53.0,-36.0,-4.0,-31.0,-6.0,4.0,16.0,-111.0,-269.0,-84.0,0.0
-35.0,-9.0,-11.0,-35.0,-21.0,-1.0,9.0,-77.0,-215.0,-39.0,0.0
-19.0,5.0,-8.0,-21.0,-35.0,-14.0,1.0,-24.0,-83.0,13.0,0.0
-8.0,0.0,-7.0,6.0,-28.0,-11.0,-1.0,24.0,28.0,21.0,0.0
-8.0,-8.0,-6.0,-3.0,-23.0,-26.0,9.0,102.0,238.0,67.0,0.0
6.0,1.0,5.0,-8.0,-10.0,-28.0,26.0,157.0,348.0,117.0,0.0
44.0,21.0,19.0,10.0,0.0,-5.0,34.0,163.0,355.0,122.0,0.0
47.0,24.0,19.0,15.0,-3.0,7.0,22.0,116.0,269.0,106.0,0.0
37.0,15.0,14.0,-2.0,-6.0,8.0,23.0,114.0,329.0,218.0,0.0
61.0,25.0,17.0,1.0,-1.0,23.0,38.0,141.0,395.0,390.0,0.0
64.0,28.0,29.0,0.0,-12.0,2.0,29.0,118.0,360.0,482.0,0.0
59.0,20.0,1.0,-1.0,-17.0,-4.0,2.0,75.0,283.0,521.0,0.0
52.0,27.0,-7.0,1.0,-13.0,3.0,-13.0,35.0,153.0,320.0,0.0
45.0,31.0,14.0,3.0,-3.0,5.0,-15.0,10.0,34.0,2.0,0.0
36.0,35.0,22.0,7.0,7.0,9.0,-11.0,15.0,44.0,-31.0,0.0
-12.0,29.0,17.0,11.0,8.0,10.0,5.0,9.0,65.0,-20.0,0.0
-43.0,8.0,24.0,16.0,5.0,15.0,15.0,-8.0,-4.0,-92.0,0.0
-33.0,4.0,20.0,28.0,13.0,11.0,12.0,-27.0,-80.0,-147.0,0.0
-46.0,5.0,5.0,23.0,22.0,27.0,10.0,-23.0,-82.0,-122.0,0.0
-61.0,-14.0,2.0,11.0,20.0,39.0,25.0,-8.0,-61.0,-91.0,0.0
-59.0,-8.0,-1.0,13.0,12.0,47.0,55.0,0.0,-31.0,-54.0,0.0
-27.0,21.0,13.0,20.0,11.0,27.0,55.0,-18.0,-34.0,-8.0,0.0
8.0,31.0,17.0,17.0,9.0,0.0,25.0,-54.0,-107.0,-45.0,0.0
26.0,29.0,12.0,22.0,2.0,-19.0,-4.0,-54.0,-119.0,-95.0,0.0
12.0,12.0,0.0,16.0,-4.0,0.0,7.0,-2.0,-29.0,-96.0,0.0
3.0,5.0,4.0,10.0,-1.0,0.0,7.0,-15.0,-32.0,-78.0,0.0
-14.0,-1.0,17.0,13.0,-2.0,1.0,0.0,-21.0,-50.0,-54.0,0.0
-10.0,7.0,17.0,8.0,-6.0,-16.0,-4.0,-15.0,-29.0,7.0,0.0
0.0,4.0,7.0,-6.0,-22.0,-28.0,-1.0,7.0,30.0,71.0,0.0
21.0,1.0,0.0,-11.0,-25.0,-27.0,-5.0,22.0,65.0,112.0,0.0
9.0,-4.0,-14.0,-15.0,-23.0,-26.0,-18.0,16.0,66.0,102.0,0.0
-18.0,-7.0,-17.0,-3.0,-9.0,-13.0,-8.0,20.0,61.0,66.0,0.0
-11.0,8.0,-9.0,-2.0,-9.0,3.0,1.0,26.0,47.0,68.0,0.0
7.0,11.0,-17.0,-3.0,-13.0,-12.0,4.0,10.0,13.0,74.0,0.0
25.0,-4.0,-18.0,-15.0,-13.0,8.0,24.0,-15.0,-18.0,33.0,0.0
1.0,-17.0,-20.0,-33.0,-28.0,30.0,29.0,-27.0,-51.0,7.0,0.0
-26.0,-12.0,-22.0,-33.0,-26.0,17.0,17.0,-37.0,-33.0,41.0,0.0
-53.0,-18.0,-12.0,-13.0,-9.0,7.0,16.0,-25.0,-4.0,54.0,0.0
-53.0,-24.0,-6.0,1.0,-10.0,-5.0,21.0,-7.0,-18.0,39.0,0.0
-13.0,-12.0,8.0,10.0,-15.0,-10.0,16.0,0.0,-23.0,50.0,0.0
36.0,2.0,15.0,18.0,-18.0,-22.0,7.0,5.0,34.0,74.0,0.0
59.0,8.0,15.0,22.0,-14.0,-12.0,-5.0,6.0,57.0,47.0,0.0
56.0,-8.0,9.0,29.0,2.0,0.0,-1.0,4.0,43.0,-3.0,0.0
29.0,-17.0,5.0,23.0,0.0,-9.0,-12.0,-5.0,0.0,-15.0,0.0
-21.0,-7.0,12.0,12.0,-6.0,-16.0,-12.0,-29.0,-46.0,-56.0,0.0
-54.0,-5.0,2.0,8.0,-7.0,-8.0,2.0,-31.0,-59.0,-66.0,0.0
-29.0,7.0,-2.0,17.0,-8.0,-15.0,-15.0,-34.0,-47.0,-12.0,0.0
10.0,0.0,2.0,19.0,-19.0,-13.0,-11.0,-35.0,-7.0,45.0,0.0
50.0,-1.0,-4.0,15.0,-20.0,2.0,0.0,-21.0,5.0,69.0,0.0
33.0,-19.0,-9.0,0.0,-8.0,24.0,4.0,-31.0,-7.0,85.0,0.0
23.0,-25.0,-9.0,5.0,4.0,21.0,7.0,-40.0,2.0,107.0,0.0
13.0,-4.0,-8.0,24.0,4.0,24.0,9.0,-38.0,-8.0,71.0,0.0
-9.0,-2.0,-10.0,23.0,1.0,26.0,3.0,-44.0,-63.0,-9.0,0.0
-12.0,-6.0,-11.0,16.0,-8.0,31.0,-2.0,-52.0,-89.0,-49.0,0.0
4.0,-9.0,-8.0,12.0,-8.0,28.0,-5.0,-63.0,-94.0,-29.0,0.0
17.0,-11.0,-7.0,7.0,-7.0,32.0,12.0,-60.0,-85.0,-33.0,0.0
12.0,4.0,10.0,-7.0,-28.0,20.0,17.0,-8.0,-8.0,-15.0,0.0
33.0,41.0,16.0,-16.0,-29.0,1.0,5.0,42.0,78.0,-5.0,0.0
46.0,41.0,19.0,-15.0,-18.0,-2.0,-11.0,21.0,56.0,-22.0,0.0
21.0,23.0,18.0,-3.0,-5.0,5.0,-17.0,-6.0,-1.0,-26.0,0.0
-10.0,5.0,21.0,2.0,-11.0,12.0,-3.0,-13.0,16.0,29.0,0.0
-36.0,0.0,21.0,2.0,-12.0,21.0,-5.0,-21.0,18.0,42.0,0.0
-47.0,-12.0,10.0,-1.0,-9.0,-3.0,-32.0,-37.0,-22.0,29.0,0.0
-59.0,-32.0,-10.0,-18.0,-21.0,-27.0,-58.0,-22.0,-41.0,37.0,0.0
-34.0,-19.0,-16.0,-12.0,-12.0,-12.0,-6.0,0.0,25.0,43.0,0.0
14.0,-5.0,-10.0,-4.0,0.0,0.0,1.0,5.0,57.0,98.0,0.0
40.0,-4.0,-2.0,-9.0,-8.0,0.0,-25.0,-10.0,27.0,119.0,0.0
46.0,5.0,-8.0,-29.0,-22.0,-17.0,-24.0,-28.0,-1.0,62.0,0.0
23.0,8.0,-3.0,-36.0,-25.0,-19.0,0.0,-20.0,18.0,-13.0,0.0
-17.0,0.0,-8.0,-12.0,-6.0,3.0,32.0,10.0,38.0,-58.0,0.0
-53.0,-16.0,-14.0,0.0,11.0,24.0,41.0,14.0,12.0,-113.0,0.0
-76.0,-22.0,-16.0,4.0,18.0,19.0,18.0,2.0,-36.0,-104.0,0.0
-72.0,-30.0,-14.0,7.0,0.0,16.0,43.0,15.0,-15.0,-62.0,0.0
-36.0,-14.0,-11.0,14.0,-7.0,14.0,54.0,21.0,6.0,-36.0,0.0
5.0,4.0,9.0,11.0,7.0,10.0,7.0,-31.0,-63.0,-63.0,0.0
8.0,12.0,23.0,8.0,11.0,3.0,-15.0,-72.0,-160.0,-138.0,0.0
0.0,9.0,12.0,24.0,14.0,0.0,-17.0,-76.0,-210.0,-222.0,0.0
-3.0,-3.0,9.0,22.0,6.0,-7.0,-14.0,-58.0,-205.0,-239.0,0.0
-42.0,-15.0,0.0,22.0,-12.0,-28.0,-17.0,-36.0,-187.0,-212.0,0.0
-78.0,-27.0,-8.0,24.0,-12.0,-30.0,4.0,8.0,-90.0,-146.0,0.0
-85.0,-33.0,-12.0,33.0,-1.0,-14.0,9.0,53.0,-30.0,-95.0,0.0
-64.0,-29.0,-18.0,21.0,0.0,-12.0,6.0,79.0,50.0,-26.0,0.0
-33.0,-21.0,-7.0,12.0,-4.0,-14.0,12.0,111.0,223.0,95.0,0.0
0.0,-7.0,-4.0,13.0,-5.0,-24.0,-21.0,85.0,196.0,76.0,0.0
13.0,-7.0,-3.0,-5.0,-5.0,-22.0,-41.0,36.0,79.0,31.0,0.0
35.0,4.0,-8.0,-13.0,-11.0,-9.0,-32.0,14.0,41.0,75.0,0.0
49.0,14.0,0.0,-10.0,-14.0,-18.0,-27.0,12.0,52.0,102.0,0.0
45.0,5.0,5.0,5.0,-1.0,-13.0,-23.0,-2.0,37.0,78.0,0.0
26.0,-1.0,0.0,3.0,6.0,5.0,-1.0,0.0,38.0,62.0,0.0
16.0,-1.0,-4.0,-5.0,7.0,23.0,-1.0,18.0,44.0,57.0,0.0
18.0,-2.0,1.0,-5.0,15.0,15.0,-18.0,17.0,31.0,53.0,0.0
17.0,-1.0,10.0,0.0,21.0,2.0,-19.0,14.0,38.0,62.0,0.0
39.0,8.0,20.0,4.0,17.0,0.0,0.0,24.0,66.0,80.0,0.0
38.0,18.0,26.0,2.0,16.0,-19.0,6.0,25.0,69.0,88.0,0.0
27.0,10.0,16.0,8.0,23.0,-14.0,-5.0,7.0,49.0,76.0,0.0
19.0,-1.0,19.0,36.0,29.0,-12.0,-26.0,2.0,27.0,49.0,0.0
16.0,6.0,26.0,26.0,24.0,-14.0,-31.0,8.0,11.0,30.0,0.0
-5.0,-11.0,9.0,16.0,21.0,3.0,-17.0,4.0,-23.0,-13.0,0.0
-23.0,-38.0,-2.0,13.0,23.0,19.0,8.0,2.0,-40.0,-38.0,0.0
12.0,-28.0,8.0,8.0,31.0,17.0,-4.0,-1.0,-31.0,-14.0,0.0
61.0,-10.0,5.0,10.0,25.0,4.0,-23.0,-8.0,-58.0,6.0,0.0
50.0,-15.0,-21.0,4.0,20.0,22.0,8.0,-18.0,-62.0,7.0,0.0
30.0,-19.0,-18.0,4.0,24.0,42.0,29.0,-11.0,-68.0,18.0,0.0
36.0,-6.0,-1.0,5.0,28.0,37.0,31.0,-6.0,-58.0,46.0,0.0
50.0,6.0,4.0,9.0,27.0,17.0,23.0,-5.0,-8.0,113.0,0.0
66.0,29.0,9.0,3.0,20.0,16.0,9.0,-1.0,39.0,162.0,0.0
66.0,25.0,4.0,-7.0,14.0,5.0,-15.0,-3.0,62.0,177.0,0.0
52.0,0.0,-13.0,-11.0,0.0,-9.0,-11.0,-7.0,97.0,206.0,0.0
30.0,-22.0,-18.0,-23.0,-15.0,-26.0,-8.0,5.0,81.0,155.0,0.0
14.0,-17.0,-4.0,-26.0,-12.0,-23.0,-14.0,30.0,19.0,48.0,0.0
-2.0,-15.0,10.0,-13.0,6.0,-9.0,-9.0,29.0,-37.0,-68.0,0.0
-46.0,-24.0,24.0,2.0,26.0,9.0,-16.0,-2.0,-87.0,-168.0,0.0
-64.0,-9.0,35.0,27.0,34.0,31.0,-3.0,-12.0,-88.0,-176.0,0.0
-72.0,-10.0,24.0,22.0,28.0,19.0,-8.0,-21.0,-100.0,-131.0,0.0
-71.0,-13.0,10.0,8.0,26.0,18.0,-1.0,8.0,-34.0,-92.0,0.0
-53.0,0.0,13.0,8.0,31.0,30.0,14.0,32.0,24.0,-75.0,0.0
-61.0,-16.0,4.0,5.0,41.0,46.0,34.0,39.0,7.0,-58.0,0.0
-47.0,-16.0,-1.0,5.0,30.0,32.0,33.0,39.0,17.0,-16.0,0.0
-25.0,-5.0,6.0,4.0,14.0,-5.0,19.0,26.0,48.0,47.0,0.0
-6.0,8.0,8.0,6.0,2.0,-12.0,0.0,22.0,73.0,101.0,0.0
12.0,15.0,5.0,-9.0,-5.0,-1.0,-2.0,19.0,77.0,116.0,0.0
39.0,21.0,14.0,-26.0,-7.0,1.0,0.0,7.0,66.0,113.0,0.0
45.0,21.0,29.0,-31.0,-9.0,-5.0,-4.0,-4.0,16.0,69.0,0.0
32.0,10.0,22.0,-33.0,5.0,-9.0,-3.0,-16.0,-24.0,12.0,0.0
30.0,1.0,14.0,-30.0,11.0,-11.0,-8.0,-22.0,-55.0,72.0,0.0
20.0,3.0,11.0,-19.0,18.0,-15.0,4.0,-29.0,-50.0,138.0,0.0
-2.0,4.0,3.0,-11.0,22.0,0.0,15.0,-34.0,-57.0,176.0,0.0
-10.0,11.0,1.0,-7.0,13.0,-13.0,3.0,-50.0,-90.0,145.0,0.0
-38.0,-10.0,-15.0,-12.0,17.0,-21.0,-13.0,-75.0,-174.0,-84.0,0.0
-60.0,-22.0,-13.0,-2.0,20.0,-20.0,-15.0,-78.0,-224.0,-253.0,0.0
-73.0,-30.0,-14.0,-9.0,7.0,-19.0,-16.0,-45.0,-168.0,-224.0,0.0
-80.0,-29.0,-19.0,-28.0,-16.0,-15.0,-12.0,9.0,-53.0,-176.0,0.0
-85.0,-22.0,-21.0,-31.0,-27.0,-20.0,-1.0,50.0,40.0,-109.0,0.0
-64.0,-19.0,-26.0,-42.0,-33.0,-13.0,5.0,88.0,149.0,2.0,0.0
-30.0,-18.0,-17.0,-33.0,-36.0,-19.0,12.0,85.0,181.0,61.0,0.0
-5.0,-7.0,-6.0,-18.0,-40.0,-39.0,-9.0,41.0,100.0,59.0,0.0
1.0,-5.0,-7.0,-28.0,-41.0,-44.0,-27.0,-5.0,30.0,40.0,0.0
-2.0,-19.0,-11.0,-46.0,-37.0,-44.0,-28.0,-11.0,-3.0,23.0,0.0
-1.0,-19.0,0.0,-50.0,-30.0,-28.0,-26.0,-13.0,7.0,23.0,0.0
4.0,-5.0,5.0,-28.0,-22.0,-22.0,2.0,-9.0,28.0,33.0,0.0
8.0,-3.0,1.0,-15.0,-17.0,-3.0,24.0,1.0,26.0,31.0,0.0
13.0,-10.0,-12.0,-7.0,-3.0,0.0,25.0,13.0,35.0,36.0,0.0
16.0,-8.0,-12.0,0.0,0.0,-2.0,18.0,30.0,45.0,41.0,0.0
20.0,11.0,1.0,5.0,5.0,2.0,14.0,28.0,38.0,30.0,0.0
18.0,7.0,11.0,1.0,3.0,-3.0,-2.0,-6.0,18.0,28.0,0.0
23.0,8.0,17.0,-1.0,2.0,-8.0,-7.0,-12.0,15.0,26.0,0.0
30.0,7.0,23.0,2.0,12.0,5.0,-14.0,-18.0,-18.0,14.0,0.0
36.0,28.0,19.0,-2.0,13.0,12.0,-6.0,-27.0,-36.0,-2.0,0.0
27.0,32.0,17.0,-5.0,10.0,17.0,-13.0,-24.0,-51.0,-8.0,0.0
18.0,21.0,12.0,7.0,4.0,2.0,-13.0,-24.0,-37.0,15.0,0.0
15.0,9.0,5.0,-12.0,0.0,0.0,-5.0,10.0,23.0,73.0,0.0
32.0,19.0,6.0,-22.0,-3.0,-5.0,-10.0,40.0,56.0,129.0,0.0
61.0,44.0,12.0,-20.0,-2.0,-26.0,-40.0,7.0,25.0,146.0,0.0
78.0,52.0,22.0,-19.0,1.0,-35.0,-57.0,-9.0,33.0,80.0,0.0
70.0,45.0,26.0,-21.0,2.0,-40.0,-83.0,1.0,97.0,38.0,0.0
35.0,33.0,25.0,-11.0,1.0,-42.0,-80.0,-6.0,67.0,-36.0,0.0
-60.0,0.0,-15.0,-18.0,24.0,42.0,30.0,-40.0,-128.0,-185.0,0.0
-40.0,7.0,-2.0,-18.0,29.0,41.0,55.0,-10.0,-43.0,-81.0,0.0
-26.0,16.0,-9.0,-13.0,11.0,10.0,36.0,46.0,88.0,17.0,0.0
-14.0,27.0,0.0,4.0,-11.0,-19.0,-3.0,49.0,156.0,72.0,0.0
-8.0,30.0,19.0,20.0,3.0,-36.0,-24.0,46.0,129.0,44.0,0.0
-15.0,35.0,15.0,14.0,20.0,-33.0,-34.0,50.0,97.0,-16.0,0.0
-32.0,38.0,16.0,13.0,25.0,-12.0,-6.0,46.0,66.0,-37.0,0.0
-62.0,16.0,14.0,29.0,27.0,2.0,17.0,60.0,59.0,-71.0,0.0
-69.0,0.0,7.0,27.0,28.0,11.0,18.0,46.0,40.0,-89.0,0.0
-64.0,-4.0,2.0,22.0,33.0,33.0,25.0,34.0,62.0,-79.0,0.0
-68.0,-6.0,-7.0,30.0,34.0,23.0,27.0,29.0,39.0,-75.0,0.0
-54.0,-5.0,-10.0,20.0,17.0,30.0,16.0,14.0,11.0,-45.0,0.0
-28.0,4.0,-14.0,13.0,13.0,20.0,8.0,10.0,21.0,8.0,0.0
-6.0,22.0,-5.0,26.0,7.0,15.0,4.0,15.0,17.0,34.0,0.0
-8.0,10.0,-1.0,18.0,-2.0,-4.0,4.0,21.0,11.0,37.0,0.0
-18.0,-7.0,2.0,-4.0,-16.0,-22.0,-1.0,49.0,23.0,-23.0,0.0
-8.0,3.0,17.0,-6.0,0.0,-10.0,-10.0,43.0,-21.0,-133.0,0.0
8.0,23.0,28.0,-7.0,2.0,-16.0,-10.0,16.0,-16.0,-112.0,0.0
18.0,24.0,35.0,-4.0,16.0,-8.0,-3.0,-2.0,-8.0,-77.0,0.0
25.0,17.0,29.0,0.0,21.0,3.0,1.0,-15.0,-13.0,-76.0,0.0
38.0,9.0,23.0,1.0,18.0,-10.0,-10.0,-15.0,-54.0,-100.0,0.0
30.0,-2.0,12.0,3.0,7.0,-2.0,-14.0,-13.0,-71.0,-151.0,0.0
-15.0,-10.0,-3.0,-5.0,7.0,2.0,-19.0,-1.0,-53.0,-137.0,0.0
-42.0,-28.0,-4.0,-5.0,-3.0,-7.0,-8.0,10.0,-8.0,-74.0,0.0
-50.0,-21.0,10.0,-5.0,-4.0,-1.0,-11.0,12.0,0.0,-75.0,0.0
-34.0,-2.0,7.0,-5.0,0.0,-12.0,-27.0,1.0,-18.0,-74.0,0.0
1.0,13.0,5.0,-5.0,-5.0,-13.0,-38.0,-27.0,-31.0,-74.0,0.0
-8.0,15.0,7.0,-7.0,-8.0,-10.0,-41.0,-22.0,-57.0,-109.0,0.0
-35.0,7.0,12.0,-11.0,-6.0,-21.0,-32.0,7.0,-19.0,-112.0,0.0
-41.0,5.0,16.0,-4.0,8.0,-23.0,-20.0,11.0,2.0,-115.0,0.0
-14.0,20.0,4.0,-18.0,8.0,-21.0,-37.0,-22.0,-45.0,-97.0,0.0
-12.0,18.0,-4.0,-17.0,5.0,-25.0,-47.0,-24.0,-33.0,-57.0,0.0
-10.0,6.0,0.0,-23.0,20.0,-22.0,-39.0,-29.0,-11.0,-12.0,0.0
11.0,10.0,-7.0,-38.0,21.0,-17.0,-35.0,-19.0,24.0,28.0,0.0
18.0,17.0,0.0,-35.0,17.0,-5.0,-22.0,25.0,93.0,81.0,0.0
11.0,2.0,12.0,-26.0,25.0,7.0,-14.0,50.0,130.0,79.0,0.0
20.0,-12.0,-4.0,-13.0,25.0,-5.0,-17.0,30.0,111.0,95.0,0.0
52.0,-14.0,-6.0,-19.0,7.0,-14.0,-40.0,10.0,94.0,123.0,0.0
80.0,-10.0,-1.0,-14.0,-3.0,-12.0,-63.0,-19.0,-11.0,31.0,0.0
46.0,-9.0,8.0,8.0,-3.0,-16.0,-44.0,-33.0,-80.0,-96.0,0.0
-32.0,-16.0,5.0,-4.0,-9.0,-6.0,-20.0,-30.0,-109.0,-175.0,0.0
-61.0,-15.0,8.0,-3.0,0.0,25.0,-1.0,-28.0,-120.0,-210.0,0.0
-44.0,-9.0,18.0,2.0,14.0,25.0,5.0,-14.0,-117.0,-210.0,0.0
-50.0,-4.0,16.0,3.0,24.0,26.0,1.0,-16.0,-95.0,-166.0,0.0
-55.0,-7.0,15.0,5.0,34.0,22.0,6.0,-4.0,-24.0,-81.0,0.0
-54.0,-12.0,10.0,9.0,34.0,16.0,-1.0,8.0,1.0,-6.0,0.0
-43.0,-26.0,-5.0,6.0,23.0,23.0,5.0,0.0,2.0,22.0,0.0
10.0,-20.0,-23.0,-1.0,21.0,5.0,-15.0,-50.0,-78.0,-39.0,0.0
15.0,-25.0,-18.0,2.0,26.0,15.0,-24.0,-86.0,-180.0,-169.0,0.0
-8.0,-19.0,-11.0,16.0,28.0,20.0,-20.0,-91.0,-198.0,-201.0,0.0
-9.0,-4.0,0.0,21.0,26.0,22.0,-15.0,-88.0,-176.0,-166.0,0.0
-11.0,-4.0,-1.0,5.0,19.0,16.0,-14.0,-67.0,-144.0,-125.0,0.0
-6.0,1.0,4.0,4.0,19.0,3.0,-18.0,-45.0,-100.0,-77.0,0.0
3.0,0.0,20.0,6.0,27.0,-4.0,-29.0,-52.0,-80.0,-47.0,0.0
4.0,-4.0,12.0,1.0,23.0,-25.0,-39.0,-66.0,-63.0,-48.0,0.0
19.0,6.0,15.0,1.0,14.0,-39.0,-48.0,-58.0,-38.0,-5.0,0.0
37.0,20.0,26.0,-5.0,0.0,-50.0,-49.0,7.0,75.0,79.0,0.0
69.0,24.0,32.0,5.0,-3.0,-64.0,-65.0,56.0,174.0,131.0,0.0
70.0,24.0,19.0,30.0,-10.0,-42.0,-69.0,43.0,133.0,129.0,0.0
75.0,16.0,-9.0,14.0,-15.0,-19.0,-31.0,25.0,96.0,184.0,0.0
96.0,4.0,-39.0,-1.0,-22.0,-24.0,-8.0,28.0,107.0,281.0,0.0
104.0,-5.0,-50.0,0.0,-21.0,-19.0,2.0,33.0,124.0,319.0,0.0
108.0,9.0,-27.0,10.0,-12.0,-19.0,-16.0,40.0,116.0,259.0,0.0
71.0,21.0,-6.0,18.0,-2.0,-5.0,-34.0,34.0,76.0,107.0,0.0
-2.0,10.0,-8.0,35.0,8.0,1.0,-10.0,28.0,42.0,-41.0,0.0
-76.0,-25.0,-10.0,45.0,28.0,23.0,15.0,43.0,11.0,-167.0,0.0
-107.0,-43.0,-8.0,38.0,30.0,47.0,47.0,22.0,-45.0,-218.0,0.0
-97.0,-40.0,-37.0,5.0,9.0,54.0,95.0,10.0,-86.0,-206.0,0.0
-57.0,-11.0,-36.0,0.0,0.0,43.0,86.0,9.0,-78.0,-142.0,0.0
-20.0,-2.0,-14.0,16.0,-1.0,32.0,54.0,8.0,-41.0,-94.0,0.0
-9.0,-5.0,-10.0,26.0,7.0,27.0,29.0,-6.0,-44.0,-58.0,0.0
-4.0,-1.0,-17.0,18.0,11.0,9.0,31.0,-9.0,-51.0,-37.0,0.0
0.0,24.0,-9.0,0.0,-5.0,-1.0,29.0,-13.0,-64.0,-23.0,0.0
-11.0,30.0,-16.0,-25.0,-13.0,-15.0,16.0,-21.0,-70.0,-16.0,0.0
-24.0,7.0,-24.0,-33.0,-14.0,-22.0,18.0,-10.0,-47.0,9.0,0.0
-27.0,5.0,-10.0,-35.0,-11.0,-16.0,23.0,-6.0,-47.0,10.0,0.0
-19.0,0.0,-1.0,-27.0,-17.0,-3.0,16.0,-18.0,-38.0,10.0,0.0
-7.0,-5.0,4.0,-17.0,-17.0,-13.0,10.0,-20.0,-16.0,41.0,0.0
-2.0,0.0,10.0,-18.0,-16.0,-24.0,15.0,-14.0,2.0,41.0,0.0
-1.0,4.0,15.0,-22.0,-15.0,-22.0,1.0,-16.0,-17.0,41.0,0.0
3.0,3.0,6.0,-14.0,-8.0,-7.0,4.0,-6.0,-24.0,31.0,0.0
8.0,1.0,2.0,-1.0,-5.0,-7.0,13.0,-7.0,-15.0,21.0,0.0
17.0,-3.0,16.0,4.0,2.0,-5.0,3.0,-2.0,-16.0,30.0,0.0
29.0,0.0,14.0,0.0,0.0,-11.0,-10.0,15.0,1.0,113.0,0.0
49.0,18.0,11.0,3.0,-1.0,-11.0,-24.0,13.0,41.0,242.0,0.0
55.0,18.0,17.0,9.0,-1.0,-9.0,-20.0,-13.0,48.0,305.0,0.0
56.0,15.0,7.0,1.0,-3.0,-17.0,-23.0,-40.0,8.0,351.0,0.0
61.0,6.0,-3.0,-7.0,-12.0,-20.0,-38.0,-63.0,-75.0,204.0,0.0
42.0,13.0,-1.0,-3.0,-5.0,-17.0,-37.0,-73.0,-184.0,-91.0,0.0
18.0,24.0,21.0,6.0,2.0,-20.0,-43.0,-76.0,-204.0,-192.0,0.0
-3.0,10.0,21.0,7.0,6.0,-10.0,-17.0,-20.0,-74.0,-180.0,0.0
-35.0,-6.0,7.0,3.0,8.0,16.0,13.0,60.0,46.0,-158.0,0.0
-54.0,-14.0,4.0,2.0,9.0,13.0,21.0,74.0,85.0,-113.0,0.0
-45.0,-14.0,15.0,4.0,9.0,6.0,10.0,73.0,142.0,-40.0,0.0
-24.0,-5.0,23.0,-4.0,8.0,2.0,-3.0,56.0,126.0,-31.0,0.0
-5.0,10.0,15.0,-6.0,-1.0,-15.0,-12.0,11.0,44.0,-64.0,0.0
-8.0,12.0,8.0,-14.0,-3.0,-15.0,-22.0,-12.0,-26.0,-90.0,0.0
-12.0,6.0,0.0,-15.0,-4.0,14.0,-7.0,-17.0,-71.0,-105.0,0.0
-1.0,2.0,0.0,-9.0,0.0,44.0,48.0,-32.0,-79.0,-105.0,0.0
12.0,9.0,4.0,3.0,0.0,48.0,66.0,-39.0,-90.0,-84.0,0.0
13.0,21.0,-2.0,-2.0,6.0,34.0,39.0,-45.0,-115.0,-63.0,0.0
15.0,25.0,-4.0,4.0,5.0,22.0,11.0,-41.0,-130.0,-43.0,0.0
20.0,32.0,-18.0,-9.0,-16.0,17.0,2.0,-13.0,-56.0,21.0,0.0
40.0,35.0,-27.0,-27.0,-27.0,-2.0,-2.0,25.0,80.0,127.0,0.0
44.0,18.0,-25.0,-39.0,-33.0,-12.0,0.0,65.0,155.0,189.0,0.0
16.0,4.0,-31.0,-43.0,-30.0,-7.0,16.0,95.0,217.0,201.0,0.0
-2.0,1.0,-24.0,-26.0,-18.0,0.0,12.0,78.0,178.0,162.0,0.0
-3.0,-5.0,-14.0,-16.0,-7.0,4.0,27.0,58.0,128.0,99.0,0.0
-7.0,-22.0,-3.0,2.0,3.0,9.0,29.0,42.0,77.0,22.0,0.0
-36.0,-26.0,2.0,8.0,8.0,11.0,9.0,18.0,-4.0,-61.0,0.0
-55.0,-20.0,11.0,7.0,8.0,9.0,4.0,1.0,-48.0,-98.0,0.0
-50.0,-25.0,7.0,-1.0,3.0,12.0,11.0,2.0,-31.0,-79.0,0.0
-45.0,-21.0,4.0,-1.0,-9.0,7.0,2.0,-8.0,-39.0,-65.0,0.0
-40.0,-18.0,-18.0,-10.0,-12.0,3.0,-9.0,-26.0,-38.0,-46.0,0.0
-25.0,-18.0,-28.0,-13.0,-18.0,-6.0,-17.0,-39.0,-29.0,-7.0,0.0
-6.0,-8.0,-21.0,-11.0,-13.0,-15.0,-28.0,-43.0,-41.0,-1.0,0.0
-3.0,-8.0,-7.0,13.0,-12.0,-16.0,-32.0,-53.0,-36.0,2.0,0.0
-1.0,-6.0,0.0,13.0,-16.0,-20.0,-31.0,-41.0,-5.0,33.0,0.0
12.0,3.0,8.0,14.0,-16.0,-31.0,-29.0,-24.0,6.0,42.0,0.0
9.0,12.0,25.0,25.0,1.0,-33.0,-42.0,-32.0,4.0,34.0,0.0
2.0,0.0,29.0,39.0,13.0,-21.0,-26.0,-16.0,23.0,43.0,0.0
5.0,3.0,15.0,38.0,8.0,6.0,-1.0,5.0,25.0,68.0,0.0
0.0,16.0,1.0,28.0,0.0,6.0,6.0,-20.0,5.0,75.0,0.0
15.0,11.0,-9.0,15.0,-6.0,-1.0,8.0,-38.0,2.0,129.0,0.0
53.0,8.0,-14.0,10.0,2.0,18.0,27.0,-34.0,34.0,219.0,0.0
54.0,5.0,-9.0,6.0,0.0,21.0,42.0,-18.0,43.0,246.0,0.0
37.0,22.0,-6.0,7.0,3.0,14.0,30.0,-17.0,12.0,176.0,0.0
23.0,30.0,-10.0,21.0,6.0,4.0,23.0,-29.0,-13.0,44.0,0.0
-4.0,19.0,-20.0,29.0,10.0,-7.0,7.0,-39.0,-72.0,-51.0,0.0
-17.0,-1.0,-24.0,21.0,8.0,-5.0,-5.0,-12.0,-71.0,-60.0,0.0
7.0,0.0,-8.0,30.0,0.0,-12.0,-8.0,16.0,-15.0,-32.0,0.0
42.0,2.0,-2.0,25.0,-3.0,-17.0,-4.0,5.0,12.0,10.0,0.0
58.0,-6.0,-13.0,7.0,-7.0,-7.0,26.0,3.0,78.0,104.0,0.0
59.0,12.0,-2.0,5.0,-1.0,0.0,38.0,15.0,185.0,263.0,0.0
66.0,42.0,15.0,26.0,-5.0,-8.0,1.0,8.0,165.0,232.0,0.0
51.0,42.0,10.0,28.0,-6.0,-26.0,-11.0,-15.0,108.0,83.0,0.0
-14.0,9.0,-3.0,32.0,-6.0,-15.0,17.0,4.0,101.0,-21.0,0.0
-103.0,-15.0,-2.0,32.0,-10.0,12.0,25.0,23.0,31.0,-157.0,0.0
-147.0,-24.0,8.0,41.0,1.0,24.0,29.0,22.0,-41.0,-258.0,0.0
-171.0,-39.0,9.0,40.0,5.0,36.0,40.0,34.0,-46.0,-227.0,0.0
-209.0,-52.0,-5.0,29.0,10.0,61.0,77.0,34.0,-71.0,-225.0,0.0
-190.0,-46.0,-7.0,15.0,13.0,65.0,87.0,14.0,-81.0,-195.0,0.0
-103.0,-25.0,-14.0,11.0,7.0,44.0,62.0,-3.0,-74.0,-136.0,0.0
-10.0,-3.0,-9.0,-1.0,4.0,26.0,32.0,-6.0,-51.0,-97.0,0.0
56.0,-7.0,10.0,-8.0,3.0,6.0,5.0,-3.0,-33.0,-49.0,0.0
75.0,-17.0,11.0,4.0,0.0,1.0,2.0,-4.0,-26.0,-31.0,0.0
69.0,-16.0,2.0,0.0,4.0,1.0,4.0,0.0,-22.0,-5.0,0.0
62.0,-19.0,-7.0,-16.0,7.0,-12.0,0.0,-10.0,-43.0,9.0,0.0
27.0,-28.0,-30.0,-14.0,7.0,-14.0,-19.0,-32.0,-91.0,-25.0,0.0
5.0,-25.0,-34.0,-15.0,0.0,-20.0,-30.0,-41.0,-103.0,-35.0,0.0
26.0,0.0,-20.0,-23.0,-15.0,-34.0,-13.0,-29.0,-73.0,9.0,0.0
29.0,20.0,-14.0,-20.0,-20.0,-46.0,1.0,-10.0,-12.0,55.0,0.0
10.0,-1.0,-18.0,-16.0,-20.0,-39.0,-8.0,2.0,12.0,72.0,0.0
3.0,-23.0,-10.0,-11.0,-12.0,-26.0,-22.0,3.0,20.0,93.0,0.0
-6.0,-23.0,2.0,20.0,-4.0,-12.0,-10.0,-6.0,10.0,97.0,0.0
-18.0,-15.0,-6.0,40.0,3.0,-12.0,-14.0,-33.0,-91.0,14.0,0.0
-20.0,-9.0,-8.0,43.0,7.0,-2.0,-12.0,-44.0,-145.0,-39.0,0.0
-20.0,-12.0,2.0,47.0,8.0,10.0,3.0,-40.0,-126.0,-30.0,0.0
-16.0,1.0,10.0,30.0,14.0,4.0,20.0,-27.0,-82.0,5.0,0.0
5.0,6.0,5.0,22.0,8.0,0.0,30.0,1.0,1.0,45.0,0.0
19.0,9.0,11.0,33.0,1.0,3.0,23.0,6.0,63.0,69.0,0.0
28.0,3.0,19.0,36.0,2.0,-12.0,-4.0,4.0,7.0,64.0,0.0
27.0,-3.0,19.0,35.0,0.0,-19.0,-14.0,34.0,24.0,53.0,0.0
16.0,13.0,10.0,35.0,7.0,0.0,-9.0,26.0,50.0,44.0,0.0
20.0,11.0,8.0,42.0,5.0,4.0,-10.0,2.0,18.0,56.0,0.0
45.0,10.0,18.0,35.0,-5.0,-9.0,-30.0,-4.0,18.0,91.0,0.0
61.0,15.0,7.0,22.0,-16.0,-6.0,-38.0,1.0,39.0,115.0,0.0
66.0,15.0,-4.0,18.0,-5.0,-1.0,-43.0,6.0,52.0,130.0,0.0
68.0,20.0,-11.0,28.0,9.0,-9.0,-20.0,0.0,15.0,104.0,0.0
71.0,15.0,-15.0,29.0,5.0,-9.0,17.0,16.0,18.0,67.0,0.0
44.0,-10.0,-22.0,21.0,-2.0,6.0,35.0,58.0,74.0,54.0,0.0
19.0,-9.0,-15.0,31.0,7.0,18.0,49.0,72.0,101.0,40.0,0.0
0.0,-7.0,5.0,35.0,10.0,30.0,45.0,57.0,67.0,33.0,0.0
8.0,2.0,-9.0,24.0,11.0,18.0,17.0,49.0,80.0,73.0,0.0
3.0,9.0,-10.0,15.0,9.0,-15.0,14.0,47.0,101.0,70.0,0.0
-11.0,3.0,4.0,20.0,7.0,-3.0,12.0,44.0,63.0,16.0,0.0
-6.0,-8.0,13.0,26.0,2.0,4.0,1.0,47.0,57.0,20.0,0.0
-2.0,-13.0,13.0,21.0,0.0,-2.0,-12.0,44.0,71.0,73.0,0.0
26.0,-8.0,-1.0,12.0,6.0,-8.0,-25.0,23.0,61.0,119.0,0.0
64.0,2.0,0.0,8.0,4.0,-7.0,-33.0,3.0,41.0,148.0,0.0
99.0,18.0,13.0,14.0,7.0,-25.0,-39.0,-23.0,15.0,178.0,0.0
118.0,33.0,7.0,18.0,-2.0,-41.0,-31.0,-50.0,7.0,207.0,0.0
104.0,29.0,7.0,14.0,-3.0,-36.0,-17.0,-36.0,57.0,269.0,0.0
59.0,13.0,2.0,-6.0,-1.0,-20.0,-8.0,-34.0,34.0,177.0,0.0
16.0,-3.0,-2.0,-5.0,0.0,-9.0,-8.0,-51.0,-62.0,-125.0,0.0
-3.0,-11.0,-2.0,7.0,8.0,5.0,13.0,-37.0,-120.0,-307.0,0.0
-33.0,-22.0,-5.0,14.0,21.0,17.0,24.0,-26.0,-145.0,-339.0,0.0
-63.0,-21.0,-6.0,12.0,32.0,41.0,39.0,-20.0,-164.0,-344.0,0.0
-42.0,-23.0,-6.0,0.0,24.0,36.0,52.0,-14.0,-159.0,-288.0,0.0
-15.0,-32.0,-13.0,-6.0,14.0,28.0,61.0,3.0,-77.0,-174.0,0.0
-8.0,-23.0,-20.0,-23.0,-4.0,23.0,56.0,15.0,8.0,-66.0,0.0
-7.0,-9.0,-15.0,-26.0,-10.0,12.0,29.0,36.0,30.0,-35.0,0.0
-13.0,-12.0,-20.0,-6.0,-3.0,6.0,19.0,71.0,97.0,-18.0,0.0
-8.0,-17.0,-15.0,-3.0,2.0,0.0,27.0,80.0,157.0,0.0,0.0
0.0,-22.0,6.0,-1.0,1.0,10.0,15.0,36.0,96.0,-11.0,0.0
15.0,-12.0,9.0,-5.0,-10.0,22.0,5.0,8.0,26.0,-18.0,0.0
28.0,-2.0,0.0,-5.0,-8.0,13.0,-7.0,0.0,-8.0,-8.0,0.0
38.0,7.0,-9.0,7.0,0.0,20.0,0.0,-8.0,-24.0,-3.0,0.0
48.0,25.0,-1.0,7.0,-10.0,12.0,-2.0,-10.0,-50.0,-11.0,0.0
49.0,25.0,5.0,5.0,-12.0,-2.0,-17.0,-30.0,-82.0,-30.0,0.0
36.0,16.0,-5.0,14.0,-2.0,0.0,-21.0,-41.0,-91.0,-43.0,0.0
42.0,12.0,-10.0,5.0,4.0,-11.0,-18.0,-29.0,-75.0,-26.0,0.0
27.0,7.0,-21.0,7.0,5.0,-10.0,-16.0,-17.0,-68.0,-12.0,0.0
1.0,2.0,-19.0,13.0,3.0,2.0,-20.0,-23.0,-76.0,-46.0,0.0
-22.0,-3.0,-28.0,-7.0,0.0,-2.0,-2.0,-6.0,-4.0,-51.0,0.0
-51.0,-36.0,-49.0,-45.0,-17.0,7.0,48.0,27.0,76.0,-19.0,0.0
-44.0,-40.0,-49.0,-46.0,-23.0,34.0,79.0,38.0,83.0,-4.0,0.0
-7.0,-24.0,-40.0,-36.0,-17.0,32.0,71.0,35.0,62.0,7.0,0.0
20.0,-2.0,-38.0,-31.0,-14.0,13.0,43.0,35.0,65.0,45.0,0.0
39.0,3.0,-31.0,-39.0,-11.0,-10.0,5.0,34.0,62.0,81.0,0.0
45.0,11.0,-20.0,-32.0,-8.0,-19.0,-20.0,13.0,29.0,62.0,0.0
43.0,25.0,-11.0,-17.0,0.0,-5.0,7.0,6.0,15.0,22.0,0.0
20.0,23.0,-3.0,-1.0,8.0,-10.0,16.0,1.0,20.0,3.0,0.0
0.0,10.0,-1.0,9.0,14.0,-2.0,13.0,3.0,28.0,0.0,0.0
-30.0,-1.0,3.0,14.0,12.0,10.0,13.0,1.0,19.0,-33.0,0.0
-56.0,-19.0,7.0,6.0,15.0,18.0,22.0,-4.0,-10.0,-76.0,0.0
-44.0,-28.0,-1.0,8.0,13.0,32.0,31.0,-10.0,-15.0,-45.0,0.0
0.0,-12.0,-7.0,5.0,6.0,25.0,45.0,-11.0,16.0,36.0,0.0
20.0,0.0,-1.0,1.0,4.0,22.0,33.0,0.0,39.0,66.0,0.0
0.0,-6.0,3.0,-10.0,2.0,31.0,15.0,5.0,23.0,43.0,0.0
-22.0,-18.0,0.0,-16.0,3.0,32.0,11.0,-22.0,-16.0,6.0,0.0
-29.0,-13.0,0.0,-13.0,6.0,22.0,13.0,-44.0,-31.0,24.0,0.0
-12.0,6.0,2.0,-7.0,-6.0,3.0,-12.0,-76.0,-79.0,28.0,0.0
8.0,23.0,3.0,-4.0,-10.0,-3.0,-45.0,-101.0,-127.0,29.0,0.0
8.0,8.0,-5.0,-14.0,-5.0,-2.0,-41.0,-99.0,-152.0,-26.0,0.0
-6.0,-13.0,0.0,0.0,6.0,14.0,-16.0,-80.0,-147.0,-121.0,0.0
-20.0,-4.0,13.0,5.0,15.0,29.0,1.0,-55.0,-99.0,-136.0,0.0
-14.0,18.0,21.0,-8.0,15.0,32.0,12.0,-27.0,-40.0,-74.0,0.0
-13.0,19.0,19.0,0.0,7.0,27.0,16.0,-14.0,-10.0,-47.0,0.0
-17.0,8.0,1.0,0.0,0.0,17.0,16.0,-6.0,-24.0,-43.0,0.0
-18.0,5.0,-3.0,-5.0,-17.0,-4.0,20.0,39.0,48.0,-11.0,0.0
1.0,0.0,8.0,-4.0,-20.0,-2.0,4.0,52.0,112.0,67.0,0.0
43.0,7.0,21.0,-5.0,-19.0,-14.0,-15.0,44.0,130.0,150.0,0.0
89.0,28.0,6.0,-1.0,-16.0,-23.0,-37.0,26.0,99.0,161.0,0.0
71.0,28.0,4.0,-8.0,-13.0,-17.0,-58.0,-16.0,-2.0,80.0,0.0
38.0,22.0,2.0,-4.0,-18.0,-34.0,-66.0,-26.0,-42.0,4.0,0.0
28.0,29.0,19.0,2.0,-12.0,-52.0,-67.0,15.0,49.0,29.0,0.0
13.0,33.0,31.0,-7.0,-4.0,-47.0,-71.0,29.0,87.0,52.0,0.0
-13.0,21.0,25.0,-10.0,3.0,-31.0,-69.0,7.0,59.0,67.0,0.0
-12.0,10.0,15.0,-14.0,-2.0,-30.0,-49.0,-13.0,-20.0,44.0,0.0
22.0,10.0,5.0,-6.0,-2.0,-21.0,-54.0,-32.0,-142.0,-43.0,0.0
64.0,4.0,9.0,-5.0,1.0,9.0,-37.0,-17.0,-146.0,-81.0,0.0
81.0,2.0,12.0,-11.0,-9.0,22.0,23.0,20.0,-71.0,-85.0,0.0
62.0,4.0,-1.0,-34.0,-3.0,22.0,56.0,14.0,-62.0,-103.0,0.0
36.0,4.0,-3.0,-40.0,-10.0,20.0,58.0,-9.0,-57.0,-50.0,0.0
27.0,-6.0,-14.0,-39.0,-21.0,6.0,31.0,-8.0,-2.0,80.0,0.0
21.0,-11.0,-16.0,-37.0,-22.0,9.0,4.0,-11.0,17.0,160.0,0.0
-27.0,-11.0,-10.0,-35.0,-22.0,-2.0,-6.0,2.0,31.0,165.0,0.0
-57.0,-16.0,-3.0,-32.0,-11.0,-9.0,-19.0,3.0,-4.0,86.0,0.0
-69.0,-19.0,3.0,-23.0,-1.0,8.0,-18.0,-20.0,-86.0,-128.0,0.0
-62.0,-15.0,11.0,-5.0,1.0,21.0,2.0,-27.0,-113.0,-235.0,0.0
-48.0,-8.0,10.0,3.0,12.0,26.0,14.0,-20.0,-107.0,-219.0,0.0
-36.0,-12.0,5.0,8.0,21.0,19.0,12.0,-14.0,-97.0,-184.0,0.0
-40.0,-8.0,-1.0,3.0,22.0,16.0,4.0,-9.0,-72.0,-147.0,0.0
-52.0,16.0,8.0,2.0,13.0,-4.0,1.0,-15.0,-70.0,-124.0,0.0
-71.0,10.0,10.0,-8.0,1.0,-18.0,-18.0,-14.0,-57.0,-96.0,0.0
-73.0,-3.0,-5.0,-24.0,-13.0,-17.0,-15.0,53.0,96.0,-9.0,0.0
-37.0,-10.0,-19.0,-27.0,-9.0,-20.0,-12.0,102.0,254.0,110.0,0.0
16.0,6.0,0.0,-18.0,-4.0,-20.0,-9.0,91.0,243.0,137.0,0.0
57.0,20.0,4.0,1.0,2.0,-10.0,-18.0,69.0,140.0,110.0,0.0
68.0,13.0,5.0,8.0,10.0,-5.0,0.0,56.0,88.0,67.0,0.0
43.0,5.0,14.0,5.0,12.0,-3.0,12.0,39.0,64.0,-16.0,0.0
-40.0,-19.0,-1.0,-7.0,16.0,4.0,-6.0,17.0,12.0,-90.0,0.0
-98.0,-38.0,-6.0,-7.0,16.0,-8.0,-20.0,6.0,-2.0,-115.0,0.0
-88.0,-28.0,5.0,19.0,14.0,-8.0,-25.0,-2.0,-10.0,-90.0,0.0
-69.0,-17.0,-3.0,30.0,4.0,-1.0,-29.0,-15.0,-42.0,-61.0,0.0
-52.0,-15.0,7.0,21.0,-2.0,-12.0,-27.0,-36.0,-77.0,-56.0,0.0
-40.0,-3.0,13.0,19.0,2.0,-24.0,-38.0,-47.0,-81.0,-46.0,0.0
-15.0,15.0,12.0,23.0,6.0,-25.0,-35.0,-36.0,-50.0,-11.0,0.0
13.0,24.0,12.0,25.0,8.0,-20.0,-21.0,-30.0,2.0,39.0,0.0
36.0,15.0,16.0,19.0,8.0,-24.0,-18.0,-7.0,25.0,79.0,0.0
31.0,2.0,7.0,18.0,15.0,-13.0,-15.0,14.0,55.0,81.0,0.0
27.0,5.0,2.0,16.0,7.0,-4.0,-19.0,31.0,72.0,60.0,0.0
41.0,19.0,12.0,17.0,6.0,-15.0,-39.0,12.0,81.0,58.0,0.0
24.0,21.0,16.0,23.0,11.0,-9.0,-36.0,-11.0,76.0,62.0,0.0
-13.0,-4.0,-5.0,14.0,14.0,15.0,-6.0,1.0,78.0,48.0,0.0
-15.0,-13.0,-13.0,7.0,9.0,12.0,0.0,30.0,88.0,25.0,0.0
16.0,-3.0,-12.0,11.0,-1.0,7.0,-15.0,28.0,76.0,19.0,0.0
30.0,9.0,-11.0,20.0,0.0,10.0,-25.0,15.0,66.0,39.0,0.0
46.0,5.0,3.0,8.0,5.0,2.0,-34.0,14.0,35.0,70.0,0.0
46.0,-2.0,-4.0,2.0,6.0,5.0,-26.0,11.0,16.0,75.0,0.0
41.0,-7.0,0.0,0.0,3.0,5.0,0.0,5.0,19.0,66.0,0.0
39.0,8.0,-1.0,-16.0,2.0,-1.0,17.0,-1.0,24.0,58.0,0.0
2.0,3.0,-8.0,-20.0,0.0,0.0,4.0,-23.0,-24.0,34.0,0.0
-29.0,-1.0,3.0,14.0,-8.0,5.0,-9.0,-33.0,-67.0,-22.0,0.0
-25.0,5.0,6.0,25.0,-4.0,12.0,0.0,-38.0,-65.0,-60.0,0.0
-34.0,8.0,11.0,13.0,1.0,11.0,12.0,-40.0,-58.0,-69.0,0.0
-47.0,-11.0,-4.0,12.0,17.0,6.0,21.0,-32.0,-57.0,-83.0,0.0
-39.0,-10.0,1.0,13.0,25.0,17.0,14.0,-34.0,-82.0,-87.0,0.0
-32.0,-13.0,1.0,2.0,17.0,0.0,10.0,-37.0,-88.0,-90.0,0.0
-19.0,-20.0,3.0,2.0,7.0,-11.0,11.0,-17.0,9.0,-39.0,0.0
3.0,-21.0,7.0,-4.0,7.0,-6.0,4.0,8.0,85.0,22.0,0.0
17.0,-16.0,12.0,-6.0,14.0,-5.0,1.0,-1.0,74.0,8.0,0.0
29.0,-15.0,6.0,0.0,3.0,-5.0,-17.0,-21.0,27.0,-10.0,0.0
33.0,-13.0,-13.0,-1.0,0.0,-1.0,-7.0,-12.0,26.0,3.0,0.0
41.0,-10.0,-10.0,-12.0,0.0,-21.0,-6.0,0.0,35.0,55.0,0.0
34.0,-7.0,-14.0,-17.0,1.0,-25.0,10.0,17.0,78.0,103.0,0.0
37.0,1.0,-21.0,-22.0,0.0,-11.0,15.0,38.0,95.0,97.0,0.0
42.0,14.0,-17.0,-25.0,-7.0,-12.0,17.0,26.0,96.0,79.0,0.0
23.0,15.0,-14.0,-25.0,2.0,-18.0,25.0,7.0,85.0,44.0,0.0
10.0,7.0,-10.0,-7.0,5.0,-12.0,24.0,13.0,74.0,18.0,0.0
13.0,12.0,-8.0,-3.0,0.0,-7.0,20.0,5.0,50.0,23.0,0.0
25.0,22.0,-13.0,-7.0,-3.0,-13.0,15.0,-5.0,57.0,46.0,0.0
40.0,23.0,-17.0,-4.0,-8.0,-24.0,9.0,12.0,112.0,91.0,0.0
49.0,20.0,-31.0,-16.0,-6.0,-25.0,0.0,12.0,121.0,110.0,0.0
35.0,14.0,-28.0,-31.0,-7.0,-22.0,-5.0,-15.0,56.0,60.0,0.0
24.0,9.0,-15.0,-37.0,-8.0,-14.0,-19.0,-34.0,1.0,46.0,0.0
27.0,14.0,-6.0,-20.0,-6.0,-14.0,-25.0,-44.0,-17.0,101.0,0.0
34.0,19.0,-2.0,7.0,-4.0,-14.0,-17.0,-50.0,-18.0,157.0,0.0
44.0,11.0,3.0,6.0,-5.0,-18.0,-14.0,-51.0,-19.0,202.0,0.0
28.0,3.0,-8.0,2.0,-2.0,-23.0,-19.0,-55.0,-45.0,77.0,0.0
9.0,-6.0,-10.0,5.0,-2.0,-18.0,-15.0,-21.0,-39.0,-55.0,0.0
-2.0,-19.0,-11.0,-2.0,-7.0,-24.0,7.0,42.0,53.0,-27.0,0.0
-6.0,-16.0,-19.0,-7.0,-11.0,-3.0,18.0,74.0,105.0,7.0,0.0
-28.0,-16.0,-24.0,3.0,10.0,22.0,20.0,67.0,33.0,-56.0,0.0
-49.0,-21.0,-14.0,16.0,16.0,16.0,23.0,29.0,-38.0,-112.0,0.0
-33.0,-11.0,0.0,18.0,8.0,2.0,-2.0,2.0,-86.0,-158.0,0.0
-13.0,-7.0,-2.0,12.0,7.0,0.0,-14.0,-1.0,-80.0,-152.0,0.0
-23.0,-15.0,9.0,9.0,15.0,3.0,-8.0,1.0,-69.0,-137.0,0.0
-26.0,-15.0,23.0,3.0,21.0,-5.0,-4.0,0.0,-78.0,-129.0,0.0
-11.0,-3.0,16.0,7.0,3.0,-10.0,-1.0,2.0,-63.0,-88.0,0.0
5.0,22.0,13.0,12.0,-8.0,-15.0,-12.0,-11.0,-56.0,-45.0,0.0
4.0,31.0,12.0,22.0,-11.0,-26.0,-21.0,-27.0,-31.0,26.0,0.0
-2.0,28.0,11.0,3.0,-27.0,-19.0,-40.0,-32.0,-9.0,107.0,0.0
-9.0,7.0,-4.0,-15.0,-36.0,10.0,-22.0,-25.0,1.0,119.0,0.0
-20.0,-9.0,-22.0,1.0,-28.0,34.0,4.0,-29.0,-43.0,24.0,0.0
-17.0,-17.0,-23.0,8.0,-15.0,26.0,17.0,-25.0,-57.0,5.0,0.0
-25.0,-20.0,-24.0,20.0,0.0,37.0,33.0,-5.0,-45.0,3.0,0.0
-43.0,-16.0,-24.0,26.0,19.0,40.0,46.0,7.0,-30.0,-28.0,0.0
-38.0,-4.0,-6.0,24.0,16.0,19.0,37.0,16.0,9.0,-18.0,0.0
-21.0,3.0,-16.0,10.0,4.0,12.0,20.0,24.0,72.0,-51.0,0.0
-13.0,-1.0,-21.0,14.0,2.0,12.0,23.0,-1.0,51.0,-118.0,0.0
-18.0,-9.0,-18.0,11.0,1.0,13.0,27.0,-20.0,-7.0,-145.0,0.0
-39.0,-9.0,-17.0,3.0,4.0,7.0,20.0,-2.0,-13.0,-121.0,0.0
-52.0,-10.0,-18.0,7.0,-1.0,3.0,23.0,26.0,19.0,-67.0,0.0
-40.0,-7.0,-21.0,15.0,-11.0,8.0,16.0,37.0,21.0,-43.0,0.0
-25.0,10.0,-14.0,7.0,-8.0,2.0,11.0,34.0,33.0,-20.0,0.0
-24.0,12.0,-8.0,4.0,-2.0,-9.0,17.0,33.0,53.0,22.0,0.0
-14.0,2.0,-3.0,2.0,0.0,0.0,4.0,19.0,61.0,36.0,0.0
-9.0,6.0,0.0,3.0,0.0,1.0,5.0,13.0,35.0,23.0,0.0
-15.0,16.0,3.0,6.0,3.0,-10.0,-2.0,6.0,4.0,-2.0,0.0
8.0,10.0,4.0,5.0,3.0,-14.0,-9.0,-13.0,-37.0,-23.0,0.0
39.0,20.0,14.0,6.0,8.0,-18.0,-23.0,-16.0,-77.0,-38.0,0.0
19.0,0.0,12.0,1.0,12.0,-10.0,-4.0,-2.0,-76.0,-44.0,0.0
17.0,-12.0,-15.0,-1.0,4.0,-7.0,5.0,0.0,-84.0,-53.0,0.0
32.0,-17.0,-17.0,-1.0,-7.0,-3.0,-5.0,-2.0,-53.0,-15.0,0.0
41.0,-13.0,-10.0,0.0,-8.0,0.0,-18.0,14.0,0.0,51.0,0.0
29.0,-11.0,-8.0,-8.0,-2.0,-9.0,-14.0,46.0,114.0,100.0,0.0
21.0,-2.0,-15.0,-9.0,-1.0,-22.0,-23.0,62.0,181.0,112.0,0.0
0.0,-3.0,-28.0,-12.0,-6.0,-21.0,-15.0,37.0,97.0,46.0,0.0
-32.0,-10.0,-27.0,-13.0,-13.0,-7.0,36.0,7.0,25.0,-32.0,0.0
-52.0,-20.0,-14.0,2.0,-4.0,15.0,67.0,17.0,11.0,-72.0,0.0
-49.0,-30.0,-10.0,8.0,-4.0,20.0,49.0,27.0,16.0,-73.0,0.0
-47.0,-14.0,-11.0,7.0,-6.0,17.0,27.0,26.0,19.0,-40.0,0.0
-24.0,0.0,-9.0,-1.0,-6.0,7.0,18.0,14.0,18.0,-22.0,0.0
-6.0,-1.0,-13.0,-1.0,-10.0,-2.0,2.0,10.0,7.0,-30.0,0.0
-1.0,13.0,-14.0,-1.0,0.0,-3.0,-10.0,-7.0,6.0,-39.0,0.0
6.0,12.0,-8.0,-2.0,4.0,-10.0,-14.0,-20.0,14.0,-13.0,0.0
-9.0,0.0,-16.0,-5.0,-2.0,-11.0,-16.0,-18.0,6.0,12.0,0.0
-37.0,-7.0,-28.0,2.0,-1.0,7.0,-9.0,-16.0,-7.0,-15.0,0.0
-27.0,-6.0,-26.0,-3.0,-8.0,11.0,20.0,0.0,-1.0,-9.0,0.0
-16.0,0.0,-12.0,1.0,-5.0,6.0,31.0,6.0,-5.0,10.0,0.0
2.0,5.0,-16.0,9.0,-4.0,-3.0,17.0,-11.0,-10.0,13.0,0.0
6.0,13.0,-17.0,17.0,-8.0,-1.0,-5.0,-12.0,0.0,14.0,0.0
-6.0,19.0,-5.0,8.0,-19.0,-17.0,-20.0,-6.0,17.0,12.0,0.0
-21.0,21.0,-1.0,-4.0,-23.0,-20.0,-19.0,-5.0,30.0,16.0,0.0
-25.0,17.0,-5.0,2.0,-21.0,-8.0,-20.0,11.0,33.0,31.0,0.0
-11.0,8.0,-2.0,8.0,-12.0,-4.0,-10.0,-3.0,22.0,31.0,0.0
-3.0,8.0,-7.0,-3.0,-13.0,-11.0,0.0,-1.0,20.0,37.0,0.0
16.0,8.0,-10.0,-18.0,-13.0,-2.0,1.0,-3.0,21.0,36.0,0.0
59.0,7.0,-2.0,-10.0,-9.0,2.0,-9.0,-24.0,1.0,18.0,0.0
74.0,11.0,7.0,-7.0,-13.0,-7.0,-50.0,-50.0,-58.0,-7.0,0.0
42.0,7.0,22.0,-3.0,-18.0,-25.0,-68.0,-63.0,-87.0,-17.0,0.0
11.0,15.0,24.0,13.0,-5.0,-23.0,-63.0,-63.0,-91.0,-19.0,0.0
-9.0,15.0,16.0,13.0,-6.0,-10.0,-64.0,-57.0,-94.0,-14.0,0.0
-18.0,17.0,23.0,20.0,-6.0,-9.0,-63.0,-39.0,-74.0,-1.0,0.0
-31.0,0.0,21.0,18.0,-14.0,-16.0,-60.0,-22.0,-51.0,-2.0,0.0
-14.0,-4.0,9.0,15.0,-18.0,-22.0,-36.0,11.0,0.0,8.0,0.0
12.0,6.0,2.0,8.0,-26.0,-28.0,-11.0,4.0,59.0,75.0,0.0
50.0,22.0,-4.0,-10.0,-29.0,-22.0,-1.0,-15.0,35.0,132.0,0.0
66.0,22.0,-9.0,-15.0,-36.0,-21.0,0.0,-16.0,23.0,133.0,0.0
59.0,22.0,7.0,-7.0,-36.0,-2.0,-9.0,-10.0,30.0,80.0,0.0
25.0,14.0,15.0,0.0,-20.0,3.0,11.0,-3.0,38.0,-1.0,0.0
-29.0,2.0,10.0,6.0,0.0,10.0,43.0,18.0,57.0,-60.0,0.0
-50.0,1.0,-1.0,5.0,0.0,24.0,33.0,25.0,34.0,-100.0,0.0
-44.0,-4.0,1.0,3.0,-5.0,19.0,21.0,1.0,23.0,-96.0,0.0
-41.0,-2.0,-1.0,4.0,0.0,18.0,23.0,2.0,71.0,-30.0,0.0
-34.0,-14.0,-3.0,3.0,-3.0,26.0,36.0,17.0,115.0,24.0,0.0
-14.0,-17.0,0.0,-4.0,-4.0,6.0,26.0,22.0,138.0,91.0,0.0
16.0,-13.0,-1.0,-17.0,-1.0,-9.0,7.0,7.0,95.0,127.0,0.0
25.0,-20.0,-3.0,-15.0,9.0,7.0,12.0,3.0,0.0,15.0,0.0
21.0,-17.0,9.0,-13.0,16.0,25.0,34.0,26.0,-49.0,-106.0,0.0
3.0,-6.0,12.0,-12.0,17.0,25.0,43.0,14.0,-61.0,-137.0,0.0
-15.0,2.0,7.0,-1.0,12.0,27.0,15.0,-13.0,-117.0,-165.0,0.0
-33.0,-1.0,29.0,3.0,7.0,21.0,-2.0,-16.0,-121.0,-173.0,0.0
-43.0,1.0,26.0,-2.0,5.0,3.0,0.0,-26.0,-94.0,-159.0,0.0
-11.0,21.0,24.0,4.0,6.0,-4.0,-7.0,-31.0,-81.0,-107.0,0.0
12.0,40.0,23.0,0.0,-6.0,-19.0,-26.0,-33.0,-59.0,-33.0,0.0
24.0,35.0,1.0,-23.0,-17.0,-32.0,-37.0,-30.0,-4.0,34.0,0.0
38.0,24.0,1.0,-20.0,-19.0,-40.0,-22.0,-15.0,30.0,76.0,0.0
38.0,18.0,2.0,-13.0,-23.0,-31.0,-15.0,-12.0,11.0,59.0,0.0
29.0,7.0,6.0,-19.0,-20.0,-15.0,-17.0,-35.0,-38.0,-28.0,0.0
5.0,-3.0,7.0,-5.0,-6.0,6.0,-15.0,-42.0,-64.0,-80.0,0.0
-14.0,-18.0,12.0,-1.0,6.0,13.0,7.0,-6.0,-30.0,-82.0,0.0
-16.0,-25.0,21.0,6.0,17.0,15.0,30.0,3.0,-21.0,-87.0,0.0
0.0,-5.0,39.0,23.0,13.0,24.0,16.0,-10.0,-44.0,-77.0,0.0
2.0,8.0,38.0,18.0,7.0,3.0,-6.0,-27.0,-72.0,-51.0,0.0
-14.0,-5.0,11.0,9.0,8.0,-10.0,0.0,-18.0,-77.0,-60.0,0.0
-26.0,-32.0,-10.0,-2.0,2.0,3.0,26.0,-11.0,-69.0,-60.0,0.0
0.0,-36.0,-15.0,-18.0,-6.0,9.0,25.0,-19.0,-78.0,-47.0,0.0
14.0,-31.0,-10.0,-14.0,-9.0,4.0,2.0,-35.0,-82.0,-44.0,0.0
17.0,-16.0,-2.0,-15.0,-17.0,-11.0,-12.0,-24.0,-60.0,0.0,0.0
29.0,-9.0,-3.0,-24.0,-23.0,-26.0,-9.0,0.0,0.0,65.0,0.0
38.0,-7.0,-1.0,-24.0,-36.0,-18.0,-15.0,25.0,46.0,94.0,0.0
11.0,-21.0,-5.0,-23.0,-35.0,-6.0,3.0,48.0,69.0,116.0,0.0
-18.0,-32.0,-25.0,-21.0,-28.0,2.0,29.0,57.0,58.0,97.0,0.0
-29.0,-21.0,-21.0,-11.0,-12.0,26.0,45.0,41.0,17.0,25.0,0.0
-37.0,-31.0,-9.0,6.0,0.0,34.0,57.0,3.0,-20.0,-37.0,0.0
-49.0,-36.0,5.0,0.0,11.0,15.0,55.0,-7.0,-21.0,-47.0,0.0
-50.0,-33.0,6.0,-3.0,16.0,15.0,39.0,10.0,0.0,-42.0,0.0
-41.0,-21.0,5.0,-8.0,7.0,0.0,32.0,11.0,31.0,-22.0,0.0
-20.0,-13.0,6.0,-17.0,-5.0,-16.0,29.0,-3.0,18.0,18.0,0.0
0.0,-15.0,-5.0,-15.0,-13.0,-17.0,11.0,-16.0,-45.0,33.0,0.0
5.0,-1.0,-12.0,-11.0,-2.0,-10.0,3.0,-16.0,-60.0,10.0,0.0
-3.0,6.0,-4.0,-22.0,2.0,-7.0,-9.0,0.0,23.0,6.0,0.0
-11.0,7.0,9.0,-20.0,6.0,-12.0,-6.0,15.0,54.0,5.0,0.0
-35.0,14.0,3.0,-16.0,12.0,-7.0,23.0,7.0,15.0,15.0,0.0
-58.0,4.0,-10.0,1.0,9.0,26.0,40.0,11.0,3.0,35.0,0.0
-52.0,5.0,-1.0,12.0,6.0,27.0,34.0,12.0,-17.0,48.0,0.0
-41.0,9.0,12.0,15.0,5.0,11.0,25.0,-5.0,-34.0,5.0,0.0
-12.0,-2.0,11.0,10.0,4.0,16.0,-2.0,-16.0,-56.0,-51.0,0.0
44.0,-18.0,-4.0,0.0,-2.0,6.0,1.0,-7.0,-39.0,-83.0,0.0
33.0,-44.0,-20.0,-11.0,3.0,12.0,16.0,33.0,23.0,-53.0,0.0
3.0,-45.0,-18.0,-11.0,3.0,18.0,33.0,82.0,103.0,-24.0,0.0
-1.0,-19.0,-26.0,-5.0,6.0,4.0,20.0,57.0,75.0,-28.0,0.0
7.0,9.0,-29.0,-7.0,3.0,-5.0,-1.0,32.0,27.0,8.0,0.0
-17.0,16.0,-19.0,-9.0,5.0,4.0,-2.0,19.0,22.0,22.0,0.0
-18.0,0.0,-11.0,-11.0,17.0,9.0,6.0,17.0,-8.0,7.0,0.0
27.0,6.0,-8.0,-15.0,15.0,-3.0,2.0,3.0,-28.0,5.0,0.0
69.0,9.0,-7.0,-29.0,13.0,10.0,4.0,0.0,-21.0,20.0,0.0
87.0,8.0,-9.0,-20.0,21.0,11.0,5.0,-5.0,-32.0,16.0,0.0
55.0,-6.0,-18.0,-11.0,26.0,0.0,0.0,-26.0,-40.0,-1.0,0.0
6.0,-20.0,-22.0,-2.0,24.0,14.0,-6.0,-16.0,-22.0,21.0,0.0
-7.0,-21.0,-3.0,17.0,25.0,21.0,-5.0,7.0,-14.0,22.0,0.0
15.0,0.0,3.0,12.0,34.0,8.0,-9.0,0.0,-23.0,-29.0,0.0
31.0,0.0,8.0,17.0,34.0,0.0,-11.0,-3.0,-26.0,-62.0,0.0
21.0,2.0,12.0,28.0,24.0,-3.0,-18.0,0.0,-21.0,-38.0,0.0
23.0,2.0,4.0,29.0,13.0,-12.0,-34.0,-2.0,-20.0,21.0,0.0
48.0,8.0,19.0,15.0,12.0,-17.0,-52.0,-1.0,-12.0,90.0,0.0
71.0,17.0,4.0,3.0,6.0,-23.0,-68.0,-2.0,16.0,177.0,0.0
66.0,20.0,-3.0,0.0,0.0,-19.0,-50.0,-3.0,43.0,222.0,0.0
47.0,-10.0,-9.0,-12.0,-4.0,-19.0,-20.0,6.0,37.0,167.0,0.0
46.0,-27.0,-11.0,-28.0,-7.0,-9.0,14.0,5.0,10.0,94.0,0.0
53.0,-7.0,1.0,-25.0,2.0,-2.0,39.0,11.0,23.0,59.0,0.0
29.0,4.0,17.0,-1.0,6.0,-3.0,44.0,13.0,10.0,42.0,0.0
19.0,5.0,23.0,-1.0,2.0,-11.0,8.0,7.0,-5.0,53.0,0.0
11.0,5.0,35.0,7.0,1.0,-22.0,-12.0,-11.0,-10.0,62.0,0.0
-9.0,-12.0,29.0,21.0,2.0,-16.0,-13.0,-18.0,-15.0,-19.0,0.0
-42.0,-18.0,31.0,14.0,8.0,-1.0,-3.0,-3.0,-34.0,-133.0,0.0
-46.0,-9.0,27.0,-1.0,2.0,5.0,12.0,5.0,-36.0,-159.0,0.0
-31.0,-1.0,21.0,-23.0,0.0,8.0,14.0,11.0,-39.0,-144.0,0.0
-20.0,5.0,25.0,-31.0,-4.0,19.0,23.0,-5.0,-51.0,-109.0,0.0
-6.0,8.0,25.0,-23.0,-11.0,23.0,19.0,-14.0,-32.0,-50.0,0.0
6.0,7.0,19.0,-6.0,-11.0,26.0,9.0,-6.0,-20.0,-29.0,0.0
-2.0,9.0,8.0,14.0,-5.0,27.0,12.0,6.0,-13.0,-25.0,0.0
-29.0,4.0,9.0,18.0,-3.0,16.0,22.0,9.0,6.0,-23.0,0.0
-40.0,-2.0,18.0,21.0,-1.0,21.0,34.0,27.0,21.0,-23.0,0.0
-26.0,-7.0,17.0,16.0,-4.0,14.0,34.0,17.0,-6.0,-25.0,0.0
-23.0,-19.0,10.0,5.0,3.0,11.0,22.0,-3.0,-47.0,-32.0,0.0
-9.0,-10.0,-3.0,6.0,11.0,24.0,20.0,5.0,-30.0,-15.0,0.0
1.0,1.0,0.0,8.0,3.0,15.0,18.0,9.0,-18.0,9.0,0.0
5.0,-6.0,6.0,12.0,-6.0,-3.0,16.0,15.0,-4.0,23.0,0.0
9.0,-8.0,6.0,18.0,-7.0,0.0,7.0,28.0,11.0,31.0,0.0
7.0,0.0,9.0,25.0,-3.0,-11.0,-9.0,18.0,5.0,44.0,0.0
0.0,6.0,-5.0,9.0,-5.0,-36.0,-22.0,12.0,8.0,58.0,0.0
-19.0,11.0,0.0,-2.0,-13.0,-39.0,-24.0,21.0,9.0,68.0,0.0
-26.0,14.0,13.0,-2.0,-18.0,-20.0,-17.0,5.0,0.0,62.0,0.0
-12.0,10.0,7.0,-9.0,-28.0,-8.0,-11.0,-6.0,-28.0,45.0,0.0
41.0,14.0,4.0,3.0,-30.0,-17.0,0.0,-13.0,-33.0,58.0,0.0
93.0,26.0,0.0,14.0,-27.0,-13.0,18.0,-8.0,-13.0,92.0,0.0
123.0,28.0,9.0,25.0,-26.0,-4.0,14.0,1.0,2.0,105.0,0.0
106.0,18.0,14.0,23.0,-10.0,-4.0,-1.0,3.0,27.0,64.0,0.0
46.0,1.0,4.0,22.0,-11.0,-16.0,-16.0,8.0,54.0,34.0,0.0
1.0,-3.0,1.0,22.0,-5.0,-30.0,-32.0,28.0,90.0,48.0,0.0
-26.0,-10.0,-15.0,17.0,6.0,-24.0,-41.0,38.0,66.0,18.0,0.0
-55.0,-30.0,-26.0,11.0,11.0,9.0,-23.0,28.0,-4.0,-49.0,0.0
-61.0,-31.0,-22.0,8.0,7.0,8.0,-8.0,16.0,-27.0,-61.0,0.0
-39.0,-7.0,-7.0,26.0,23.0,-1.0,-7.0,9.0,-20.0,-31.0,0.0
-10.0,-1.0,3.0,26.0,13.0,-7.0,-9.0,-12.0,-27.0,-10.0,0.0
11.0,14.0,-1.0,25.0,-3.0,-12.0,-11.0,-35.0,-37.0,25.0,0.0
32.0,11.0,-5.0,26.0,-2.0,-7.0,-10.0,-37.0,-42.0,65.0,0.0
24.0,4.0,-9.0,13.0,2.0,3.0,-3.0,-33.0,-33.0,78.0,0.0
10.0,-1.0,-27.0,4.0,-3.0,27.0,38.0,-3.0,-17.0,56.0,0.0
-4.0,-11.0,-34.0,0.0,-8.0,36.0,61.0,12.0,-3.0,31.0,0.0
-5.0,-23.0,-22.0,-3.0,-4.0,25.0,40.0,19.0,17.0,29.0,0.0
2.0,-8.0,-19.0,-1.0,-6.0,17.0,10.0,27.0,52.0,57.0,0.0
10.0,-5.0,-15.0,0.0,-22.0,2.0,0.0,24.0,71.0,62.0,0.0
19.0,-14.0,-10.0,-18.0,-29.0,-7.0,3.0,12.0,9.0,33.0,0.0
35.0,-10.0,-12.0,-18.0,-14.0,-2.0,14.0,-10.0,-34.0,20.0,0.0
42.0,0.0,-9.0,10.0,-9.0,3.0,8.0,-31.0,-55.0,13.0,0.0
34.0,10.0,-14.0,29.0,-10.0,10.0,-7.0,-38.0,-64.0,-3.0,0.0
22.0,7.0,5.0,22.0,2.0,22.0,-9.0,-46.0,-85.0,-14.0,0.0
22.0,2.0,4.0,14.0,7.0,15.0,-9.0,-51.0,-96.0,-7.0,0.0
12.0,9.0,1.0,23.0,-1.0,-4.0,-11.0,-43.0,-64.0,69.0,0.0
16.0,12.0,15.0,30.0,-7.0,2.0,-13.0,-13.0,6.0,213.0,0.0
8.0,1.0,15.0,16.0,-11.0,5.0,-13.0,18.0,73.0,288.0,0.0
-5.0,0.0,0.0,13.0,-15.0,-16.0,-3.0,52.0,132.0,344.0,0.0
-4.0,-7.0,-8.0,-2.0,-30.0,-26.0,-5.0,86.0,195.0,330.0,0.0
-20.0,-18.0,-3.0,0.0,-23.0,-14.0,-7.0,84.0,152.0,112.0,0.0
-2.0,-2.0,12.0,2.0,-5.0,-8.0,-24.0,39.0,25.0,-50.0,0.0
29.0,11.0,25.0,0.0,10.0,-16.0,-34.0,-21.0,-59.0,-112.0,0.0
38.0,5.0,21.0,11.0,26.0,0.0,-31.0,-51.0,-124.0,-164.0,0.0
5.0,-23.0,27.0,16.0,23.0,13.0,-12.0,-57.0,-148.0,-168.0,0.0
-11.0,-28.0,16.0,9.0,19.0,3.0,-6.0,-68.0,-126.0,-75.0,0.0
-17.0,-25.0,15.0,9.0,17.0,-3.0,-8.0,-92.0,-114.0,-21.0,0.0
-31.0,-25.0,33.0,-16.0,16.0,2.0,-13.0,-104.0,-118.0,-43.0,0.0
-40.0,-26.0,27.0,-35.0,21.0,5.0,-11.0,-85.0,-110.0,-79.0,0.0
-50.0,-35.0,12.0,-36.0,26.0,-9.0,4.0,-45.0,-66.0,-88.0,0.0
-53.0,-49.0,3.0,-31.0,15.0,-10.0,36.0,39.0,34.0,-46.0,0.0
-41.0,-44.0,14.0,-28.0,17.0,-1.0,35.0,88.0,70.0,-14.0,0.0
-16.0,-19.0,18.0,-24.0,17.0,-2.0,33.0,64.0,71.0,11.0,0.0
-13.0,15.0,-4.0,-34.0,5.0,-22.0,3.0,40.0,84.0,-6.0,0.0
-19.0,42.0,-15.0,-30.0,0.0,-29.0,-27.0,37.0,154.0,-2.0,0.0
-3.0,27.0,0.0,-21.0,11.0,-1.0,-10.0,25.0,156.0,39.0,0.0
17.0,14.0,2.0,4.0,24.0,14.0,-3.0,24.0,110.0,88.0,0.0
42.0,4.0,-7.0,21.0,20.0,11.0,-6.0,19.0,86.0,149.0,0.0
60.0,-4.0,-12.0,18.0,11.0,20.0,-8.0,3.0,97.0,206.0,0.0
63.0,-1.0,-7.0,9.0,5.0,19.0,-18.0,-3.0,51.0,173.0,0.0
89.0,5.0,-10.0,12.0,1.0,10.0,-16.0,-22.0,-49.0,32.0,0.0
86.0,2.0,-19.0,16.0,4.0,16.0,-15.0,-24.0,-101.0,-91.0,0.0
-2.0,-19.0,-24.0,13.0,8.0,16.0,-6.0,22.0,-15.0,-123.0,0.0
-63.0,-25.0,-12.0,0.0,13.0,27.0,20.0,71.0,111.0,-108.0,0.0
-63.0,-5.0,12.0,2.0,19.0,33.0,25.0,56.0,114.0,-77.0,0.0
-45.0,2.0,21.0,8.0,21.0,4.0,19.0,15.0,41.0,-51.0,0.0
-18.0,8.0,11.0,3.0,18.0,0.0,1.0,-6.0,18.0,16.0,0.0
18.0,9.0,-3.0,-9.0,-9.0,1.0,-16.0,-20.0,26.0,136.0,0.0
53.0,16.0,-6.0,-17.0,-23.0,-10.0,-20.0,-28.0,45.0,260.0,0.0
81.0,26.0,-2.0,-16.0,-16.0,-17.0,-5.0,-26.0,40.0,276.0,0.0
66.0,24.0,-2.0,-7.0,-6.0,-5.0,-6.0,-39.0,-27.0,141.0,0.0
5.0,5.0,-4.0,1.0,-1.0,4.0,6.0,-41.0,-87.0,-92.0,0.0
-88.0,-37.0,-4.0,16.0,-1.0,19.0,18.0,-20.0,-122.0,-252.0,0.0
-139.0,-59.0,-6.0,18.0,0.0,38.0,20.0,-14.0,-160.0,-302.0,0.0
-121.0,-47.0,-10.0,25.0,3.0,27.0,26.0,-24.0,-158.0,-266.0,0.0
-75.0,-31.0,-19.0,16.0,-1.0,22.0,13.0,-20.0,-111.0,-176.0,0.0
-49.0,-25.0,-26.0,1.0,-22.0,14.0,7.0,25.0,17.0,-44.0,0.0
-30.0,-18.0,-26.0,-5.0,-23.0,8.0,8.0,72.0,140.0,49.0,0.0
5.0,-5.0,-11.0,-5.0,-24.0,19.0,15.0,96.0,197.0,42.0,0.0
20.0,8.0,11.0,-9.0,-18.0,6.0,22.0,77.0,196.0,27.0,0.0
17.0,6.0,11.0,-4.0,-5.0,-9.0,3.0,32.0,100.0,-2.0,0.0
7.0,-5.0,4.0,4.0,-12.0,-3.0,-9.0,5.0,24.0,-8.0,0.0
-1.0,-9.0,0.0,0.0,-15.0,0.0,-7.0,-3.0,19.0,-6.0,0.0
-6.0,-17.0,-4.0,-2.0,-10.0,1.0,2.0,-3.0,14.0,-25.0,0.0
-20.0,-29.0,-8.0,0.0,-7.0,1.0,6.0,-15.0,1.0,-38.0,0.0
-12.0,-26.0,-5.0,9.0,-3.0,4.0,20.0,-11.0,10.0,-30.0,0.0
12.0,-16.0,5.0,13.0,1.0,10.0,18.0,-2.0,12.0,-16.0,0.0
34.0,5.0,13.0,13.0,3.0,3.0,3.0,0.0,4.0,1.0,0.0
47.0,24.0,10.0,4.0,3.0,-7.0,2.0,-9.0,2.0,31.0,0.0
51.0,31.0,12.0,2.0,15.0,4.0,-4.0,-8.0,-15.0,50.0,0.0
41.0,31.0,11.0,9.0,9.0,4.0,-21.0,-13.0,-33.0,38.0,0.0
32.0,29.0,10.0,16.0,0.0,-12.0,-28.0,-14.0,-23.0,18.0,0.0
15.0,27.0,19.0,9.0,-1.0,-24.0,-37.0,-34.0,-37.0,-1.0,0.0
-26.0,4.0,9.0,-11.0,-13.0,-8.0,-17.0,-52.0,-54.0,-29.0,0.0
-74.0,-41.0,-2.0,-23.0,-4.0,-1.0,19.0,-32.0,-32.0,-29.0,0.0
-66.0,-44.0,3.0,-15.0,7.0,7.0,12.0,-15.0,-24.0,-30.0,0.0
-26.0,-26.0,17.0,-9.0,8.0,13.0,-8.0,-9.0,-27.0,-6.0,0.0
-9.0,-23.0,15.0,-20.0,6.0,12.0,8.0,-13.0,-32.0,7.0,0.0
25.0,-8.0,17.0,-25.0,3.0,22.0,21.0,-19.0,-42.0,4.0,0.0
38.0,0.0,18.0,-26.0,9.0,1.0,9.0,-24.0,-49.0,0.0,0.0
33.0,5.0,7.0,-42.0,9.0,8.0,0.0,-15.0,-26.0,37.0,0.0
40.0,0.0,-2.0,-47.0,4.0,23.0,11.0,-6.0,-26.0,91.0,0.0
39.0,-7.0,0.0,-48.0,7.0,27.0,34.0,9.0,14.0,119.0,0.0
30.0,-10.0,-16.0,-43.0,-1.0,24.0,36.0,45.0,80.0,132.0,0.0
15.0,-9.0,-24.0,-47.0,-2.0,17.0,34.0,53.0,98.0,79.0,0.0
11.0,-8.0,-21.0,-37.0,-3.0,22.0,23.0,37.0,34.0,-30.0,0.0
18.0,-3.0,-16.0,-32.0,-6.0,17.0,12.0,11.0,-10.0,-56.0,0.0
22.0,0.0,-12.0,-7.0,-4.0,16.0,10.0,9.0,8.0,-29.0,0.0
16.0,4.0,-13.0,4.0,-7.0,16.0,5.0,28.0,25.0,7.0,0.0
31.0,1.0,-8.0,2.0,-6.0,22.0,0.0,30.0,54.0,81.0,0.0
32.0,1.0,1.0,5.0,-12.0,16.0,1.0,31.0,91.0,99.0,0.0
14.0,-10.0,-1.0,2.0,-17.0,18.0,-19.0,-9.0,18.0,-14.0,0.0
-22.0,-16.0,-1.0,16.0,-14.0,21.0,-27.0,-28.0,-50.0,-105.0,0.0
-36.0,0.0,5.0,32.0,-15.0,16.0,-24.0,-11.0,-37.0,-124.0,0.0
-45.0,9.0,20.0,38.0,-12.0,3.0,-36.0,-9.0,-49.0,-140.0,0.0
-44.0,3.0,26.0,42.0,-7.0,8.0,-31.0,-22.0,-66.0,-171.0,0.0
-37.0,-5.0,6.0,41.0,-11.0,31.0,-18.0,-15.0,-43.0,-148.0,0.0
-40.0,-26.0,-12.0,30.0,-1.0,50.0,10.0,1.0,-39.0,-107.0,0.0
-48.0,-43.0,-19.0,21.0,0.0,49.0,50.0,-3.0,-48.0,-108.0,0.0
-43.0,-37.0,-10.0,18.0,-2.0,47.0,76.0,-1.0,-33.0,-121.0,0.0
-17.0,-16.0,17.0,14.0,8.0,41.0,56.0,-3.0,-17.0,-97.0,0.0
-10.0,-4.0,25.0,2.0,0.0,32.0,7.0,-2.0,9.0,-48.0,0.0
-25.0,-5.0,13.0,0.0,-10.0,19.0,0.0,-7.0,10.0,-20.0,0.0
-37.0,-8.0,2.0,4.0,-8.0,7.0,0.0,-11.0,-4.0,-8.0,0.0
-17.0,-6.0,7.0,0.0,-3.0,15.0,4.0,-22.0,-4.0,13.0,0.0
3.0,-3.0,5.0,4.0,-8.0,19.0,17.0,-16.0,4.0,31.0,0.0
29.0,-2.0,10.0,6.0,-8.0,29.0,26.0,-7.0,14.0,19.0,0.0
69.0,1.0,18.0,15.0,3.0,35.0,28.0,6.0,1.0,10.0,0.0
91.0,6.0,20.0,28.0,4.0,29.0,11.0,13.0,-8.0,-4.0,0.0
81.0,10.0,21.0,17.0,14.0,17.0,4.0,14.0,-23.0,-33.0,0.0
23.0,15.0,12.0,9.0,9.0,18.0,6.0,0.0,-41.0,-64.0,0.0
0.0,22.0,16.0,2.0,-4.0,18.0,14.0,-12.0,-35.0,-63.0,0.0
13.0,18.0,17.0,-10.0,-3.0,16.0,18.0,-28.0,-28.0,-16.0,0.0
28.0,12.0,12.0,-7.0,-2.0,7.0,15.0,-39.0,-15.0,36.0,0.0
30.0,2.0,-5.0,0.0,-7.0,3.0,5.0,-37.0,2.0,59.0,0.0
11.0,-3.0,-13.0,-1.0,-6.0,0.0,-2.0,-40.0,-3.0,31.0,0.0
-13.0,-4.0,-13.0,-4.0,-6.0,5.0,-16.0,-32.0,0.0,30.0,0.0
-8.0,-3.0,8.0,-2.0,-7.0,0.0,-26.0,-44.0,-21.0,47.0,0.0
-21.0,4.0,12.0,10.0,5.0,0.0,-24.0,-44.0,-31.0,54.0,0.0
-41.0,4.0,3.0,17.0,9.0,9.0,-9.0,-20.0,-29.0,43.0,0.0
-44.0,0.0,9.0,21.0,0.0,6.0,3.0,-2.0,-5.0,39.0,0.0
-54.0,-3.0,1.0,5.0,-7.0,-9.0,16.0,35.0,50.0,-66.0,0.0
-55.0,4.0,-1.0,0.0,1.0,-12.0,16.0,59.0,86.0,-173.0,0.0
-50.0,-4.0,8.0,8.0,6.0,-9.0,16.0,55.0,96.0,-151.0,0.0
-39.0,6.0,4.0,15.0,10.0,-9.0,17.0,51.0,84.0,-96.0,0.0
-28.0,8.0,3.0,10.0,5.0,-9.0,11.0,29.0,21.0,-56.0,0.0
-9.0,1.0,5.0,15.0,10.0,-13.0,-5.0,7.0,-31.0,-27.0,0.0
3.0,2.0,8.0,14.0,4.0,-8.0,-16.0,-19.0,-43.0,-7.0,0.0
-3.0,13.0,6.0,13.0,1.0,-12.0,-9.0,-27.0,-54.0,16.0,0.0
14.0,30.0,14.0,13.0,4.0,-12.0,-10.0,-24.0,-61.0,21.0,0.0
29.0,29.0,11.0,17.0,7.0,-6.0,-27.0,-22.0,-80.0,-9.0,0.0
18.0,8.0,3.0,22.0,26.0,7.0,-33.0,-17.0,-74.0,-29.0,0.0
19.0,-3.0,0.0,28.0,17.0,20.0,-20.0,-16.0,-32.0,63.0,0.0
44.0,5.0,6.0,31.0,-2.0,6.0,-19.0,-10.0,38.0,167.0,0.0
18.0,4.0,6.0,20.0,-11.0,-17.0,-31.0,-7.0,95.0,183.0,0.0
-13.0,11.0,8.0,3.0,-15.0,-14.0,-47.0,-8.0,43.0,143.0,0.0
-41.0,5.0,2.0,-6.0,-14.0,-17.0,-42.0,-1.0,-26.0,-28.0,0.0
-57.0,-7.0,7.0,-6.0,-7.0,-3.0,-22.0,-3.0,-49.0,-224.0,0.0
-57.0,-8.0,9.0,-1.0,-12.0,10.0,-20.0,26.0,-14.0,-214.0,0.0
-41.0,-4.0,11.0,6.0,-7.0,20.0,1.0,67.0,67.0,-130.0,0.0
-37.0,3.0,19.0,-2.0,3.0,25.0,21.0,78.0,89.0,-110.0,0.0
-35.0,1.0,15.0,-17.0,8.0,20.0,2.0,47.0,50.0,-104.0,0.0
-24.0,3.0,12.0,-19.0,20.0,10.0,-9.0,27.0,19.0,-89.0,0.0
-9.0,9.0,23.0,-18.0,21.0,-9.0,-37.0,5.0,-3.0,-85.0,0.0
-29.0,18.0,19.0,-24.0,2.0,-7.0,-50.0,-6.0,-7.0,-96.0,0.0
-49.0,2.0,13.0,-35.0,-7.0,6.0,-32.0,0.0,6.0,-103.0,0.0
-62.0,-19.0,0.0,-40.0,-6.0,16.0,-11.0,6.0,-16.0,-100.0,0.0
-57.0,-21.0,-21.0,-34.0,-2.0,22.0,-14.0,6.0,-40.0,-92.0,0.0
-14.0,-11.0,-13.0,-21.0,6.0,30.0,-14.0,-3.0,-53.0,-74.0,0.0
26.0,7.0,-3.0,0.0,9.0,43.0,8.0,-8.0,-60.0,-74.0,0.0
42.0,-2.0,0.0,31.0,16.0,46.0,24.0,-9.0,-69.0,-91.0,0.0
2.0,-25.0,-5.0,31.0,13.0,32.0,15.0,-18.0,-52.0,-116.0,0.0
-41.0,-32.0,-13.0,33.0,11.0,21.0,-7.0,-20.0,-33.0,-95.0,0.0
-44.0,-16.0,-15.0,33.0,3.0,25.0,0.0,-10.0,-26.0,-32.0,0.0
-23.0,15.0,-17.0,28.0,-1.0,12.0,-3.0,-29.0,-55.0,9.0,0.0
1.0,26.0,-14.0,24.0,-7.0,-8.0,-29.0,-39.0,-60.0,31.0,0.0
16.0,30.0,0.0,14.0,-16.0,-21.0,-23.0,-13.0,1.0,29.0,0.0
20.0,21.0,-1.0,11.0,-9.0,-6.0,0.0,9.0,49.0,14.0,0.0
26.0,25.0,8.0,27.0,11.0,-2.0,13.0,5.0,75.0,32.0,0.0
27.0,31.0,21.0,28.0,12.0,-3.0,1.0,-2.0,30.0,13.0,0.0
33.0,31.0,20.0,31.0,9.0,-8.0,-17.0,-9.0,-23.0,10.0,0.0
17.0,6.0,0.0,10.0,-5.0,-21.0,-6.0,5.0,6.0,18.0,0.0
-12.0,-23.0,-19.0,-18.0,-6.0,-8.0,32.0,42.0,49.0,21.0,0.0
-19.0,-21.0,-14.0,-2.0,0.0,17.0,57.0,43.0,53.0,14.0,0.0
-23.0,-13.0,-4.0,10.0,5.0,18.0,44.0,31.0,45.0,1.0,0.0
-30.0,-15.0,-2.0,9.0,-3.0,9.0,43.0,31.0,36.0,1.0,0.0
-27.0,-12.0,4.0,12.0,2.0,18.0,43.0,12.0,26.0,2.0,0.0
-17.0,0.0,3.0,14.0,1.0,16.0,34.0,-1.0,0.0,5.0,0.0
-1.0,0.0,9.0,20.0,-2.0,7.0,31.0,0.0,-11.0,24.0,0.0
5.0,14.0,3.0,19.0,0.0,1.0,32.0,-13.0,-17.0,41.0,0.0
16.0,18.0,-5.0,8.0,0.0,0.0,20.0,-34.0,-46.0,50.0,0.0
42.0,28.0,-12.0,-1.0,-2.0,-4.0,7.0,-46.0,-85.0,45.0,0.0
58.0,41.0,-14.0,3.0,-9.0,0.0,3.0,-34.0,-84.0,64.0,0.0
68.0,43.0,-16.0,2.0,-14.0,0.0,2.0,-13.0,-51.0,87.0,0.0
52.0,48.0,-16.0,0.0,-23.0,-14.0,1.0,-19.0,-50.0,102.0,0.0
42.0,45.0,-19.0,-2.0,-31.0,-20.0,-6.0,-35.0,-65.0,101.0,0.0
20.0,14.0,-15.0,-6.0,-29.0,-20.0,-5.0,-38.0,-79.0,59.0,0.0
-6.0,-1.0,-21.0,0.0,-24.0,-5.0,0.0,-13.0,-37.0,-11.0,0.0
-38.0,-25.0,-16.0,-3.0,-20.0,-6.0,9.0,46.0,104.0,44.0,0.0
-53.0,-34.0,-14.0,0.0,-18.0,2.0,42.0,107.0,226.0,134.0,0.0
-74.0,-36.0,-22.0,15.0,-9.0,3.0,41.0,96.0,187.0,97.0,0.0
-49.0,-34.0,-25.0,13.0,-8.0,11.0,20.0,68.0,140.0,79.0,0.0
-20.0,-19.0,-19.0,13.0,-15.0,7.0,-7.0,35.0,71.0,72.0,0.0
7.0,0.0,-22.0,16.0,-19.0,-11.0,-11.0,3.0,22.0,77.0,0.0
28.0,9.0,-21.0,11.0,-17.0,-17.0,2.0,-1.0,35.0,109.0,0.0
6.0,4.0,-21.0,16.0,-10.0,-22.0,0.0,-2.0,17.0,43.0,0.0
-4.0,-10.0,-15.0,18.0,-6.0,-22.0,-13.0,-13.0,-26.0,-40.0,0.0
11.0,-22.0,-12.0,13.0,-3.0,-13.0,-13.0,0.0,-23.0,-35.0,0.0
16.0,-16.0,-17.0,18.0,-7.0,-2.0,1.0,22.0,0.0,-18.0,0.0
12.0,0.0,-6.0,2.0,-12.0,-10.0,-2.0,4.0,-6.0,-31.0,0.0
9.0,17.0,-9.0,-3.0,-5.0,-23.0,-8.0,-15.0,-12.0,-49.0,0.0
2.0,12.0,0.0,-1.0,0.0,-26.0,-3.0,-15.0,-7.0,-58.0,0.0
-17.0,-1.0,-1.0,3.0,-1.0,-28.0,-11.0,-20.0,-6.0,-67.0,0.0
-36.0,-6.0,-15.0,8.0,0.0,-2.0,-5.0,-15.0,-8.0,-86.0,0.0
-23.0,0.0,-11.0,3.0,6.0,12.0,-2.0,-8.0,-21.0,-71.0,0.0
-14.0,0.0,-4.0,7.0,0.0,3.0,-12.0,-25.0,-40.0,-36.0,0.0
-16.0,8.0,-7.0,13.0,0.0,-7.0,-12.0,-24.0,-40.0,-18.0,0.0
-6.0,13.0,-8.0,19.0,0.0,-18.0,-26.0,-20.0,-41.0,7.0,0.0
-2.0,0.0,-8.0,15.0,1.0,-8.0,-34.0,-17.0,-28.0,15.0,0.0
-13.0,-4.0,-11.0,4.0,-3.0,-9.0,-38.0,-22.0,-17.0,-6.0,0.0
-20.0,-8.0,-7.0,0.0,-14.0,-14.0,-21.0,-26.0,-18.0,-43.0,0.0
-10.0,-19.0,-11.0,4.0,-17.0,-15.0,-6.0,-4.0,1.0,-42.0,0.0
-2.0,-18.0,-10.0,7.0,-16.0,-8.0,-8.0,6.0,28.0,-22.0,0.0
13.0,1.0,-2.0,11.0,-18.0,-18.0,-19.0,10.0,16.0,-12.0,0.0
21.0,2.0,6.0,0.0,-7.0,-30.0,-20.0,-3.0,-21.0,-29.0,0.0
30.0,-8.0,11.0,-11.0,-10.0,-17.0,-21.0,-9.0,-45.0,-43.0,0.0
-10.0,-12.0,11.0,-10.0,-8.0,-12.0,-13.0,-1.0,-28.0,-14.0,0.0
-49.0,-23.0,-7.0,-5.0,2.0,1.0,4.0,9.0,-8.0,38.0,0.0
-60.0,-32.0,-13.0,-7.0,20.0,5.0,18.0,13.0,-4.0,91.0,0.0
-36.0,-29.0,-11.0,-2.0,24.0,19.0,20.0,27.0,-3.0,109.0,0.0
-3.0,-29.0,-6.0,-2.0,27.0,22.0,26.0,27.0,-8.0,83.0,0.0
33.0,-28.0,7.0,-9.0,35.0,20.0,21.0,7.0,-22.0,29.0,0.0
43.0,-19.0,26.0,-1.0,33.0,8.0,9.0,-7.0,-31.0,-6.0,0.0
33.0,-13.0,26.0,7.0,36.0,-8.0,0.0,-5.0,-20.0,6.0,0.0
47.0,-10.0,21.0,15.0,32.0,-8.0,-2.0,3.0,10.0,24.0,0.0
47.0,0.0,17.0,16.0,19.0,-13.0,-12.0,5.0,-8.0,14.0,0.0
31.0,1.0,27.0,21.0,28.0,-10.0,-1.0,5.0,-31.0,-2.0,0.0
24.0,14.0,37.0,9.0,31.0,-8.0,0.0,-13.0,-36.0,-23.0,0.0
17.0,26.0,20.0,-4.0,16.0,-10.0,-10.0,-31.0,-52.0,-38.0,0.0
11.0,36.0,13.0,-20.0,8.0,-22.0,-34.0,-48.0,-51.0,-32.0,0.0
12.0,32.0,11.0,-20.0,15.0,-34.0,-56.0,-52.0,-23.0,34.0,0.0
-2.0,10.0,14.0,-21.0,6.0,-40.0,-58.0,-23.0,11.0,91.0,0.0
-13.0,-2.0,-3.0,-24.0,-5.0,-36.0,-19.0,8.0,34.0,97.0,0.0
-8.0,-5.0,-10.0,-19.0,2.0,-25.0,12.0,-8.0,8.0,46.0,0.0
-5.0,-5.0,-9.0,-21.0,0.0,-16.0,20.0,-29.0,-23.0,-38.0,0.0
-7.0,-4.0,-14.0,-27.0,-1.0,-15.0,9.0,-37.0,-85.0,-121.0,0.0
12.0,15.0,-13.0,-14.0,9.0,-7.0,14.0,-36.0,-103.0,-102.0,0.0
24.0,6.0,-11.0,-9.0,12.0,0.0,23.0,-32.0,-78.0,-52.0,0.0
23.0,-9.0,-15.0,-10.0,2.0,7.0,28.0,-20.0,-68.0,-16.0,0.0
14.0,-15.0,-13.0,-16.0,-4.0,-3.0,16.0,0.0,-51.0,-1.0,0.0
39.0,7.0,-1.0,-21.0,-4.0,-13.0,-23.0,2.0,0.0,13.0,0.0
60.0,8.0,-1.0,-24.0,9.0,-10.0,-26.0,30.0,105.0,65.0,0.0
51.0,-7.0,-2.0,-17.0,16.0,-4.0,-15.0,39.0,121.0,92.0,0.0
45.0,5.0,10.0,-15.0,13.0,-7.0,-19.0,11.0,45.0,67.0,0.0
52.0,23.0,8.0,-12.0,18.0,-32.0,-30.0,-2.0,10.0,75.0,0.0
47.0,24.0,-2.0,-3.0,16.0,-41.0,-27.0,5.0,15.0,74.0,0.0
38.0,23.0,18.0,3.0,17.0,-30.0,-11.0,-5.0,27.0,37.0,0.0
37.0,8.0,7.0,-5.0,14.0,-28.0,-7.0,-20.0,6.0,10.0,0.0
4.0,-16.0,-17.0,-21.0,7.0,-12.0,25.0,-23.0,-22.0,-22.0,0.0
-25.0,-36.0,-28.0,-20.0,7.0,5.0,61.0,-15.0,-29.0,-47.0,0.0
-12.0,-35.0,-26.0,-8.0,6.0,0.0,56.0,1.0,-12.0,-23.0,0.0
-2.0,-22.0,-18.0,-14.0,11.0,-11.0,38.0,4.0,2.0,10.0,0.0
6.0,-8.0,-10.0,-12.0,9.0,-12.0,20.0,-4.0,-1.0,49.0,0.0
14.0,0.0,0.0,-12.0,2.0,-16.0,15.0,-18.0,-46.0,41.0,0.0
1.0,1.0,7.0,-6.0,0.0,-15.0,0.0,-25.0,-92.0,-9.0,0.0
-15.0,3.0,14.0,-5.0,6.0,-19.0,-6.0,-6.0,-83.0,-40.0,0.0
-14.0,16.0,3.0,-1.0,14.0,-23.0,-4.0,7.0,-24.0,-53.0,0.0
-1.0,30.0,0.0,3.0,16.0,-11.0,-4.0,-4.0,-11.0,-42.0,0.0
-6.0,17.0,1.0,-5.0,24.0,-5.0,10.0,-6.0,-19.0,-11.0,0.0
-21.0,14.0,-6.0,-3.0,21.0,-7.0,21.0,8.0,-5.0,10.0,0.0
-28.0,18.0,-15.0,-9.0,10.0,6.0,8.0,8.0,15.0,18.0,0.0
-41.0,16.0,-9.0,-10.0,-3.0,-9.0,14.0,14.0,16.0,20.0,0.0
-38.0,4.0,5.0,-3.0,-1.0,-12.0,28.0,6.0,14.0,32.0,0.0
-12.0,8.0,0.0,-5.0,-3.0,-1.0,19.0,-13.0,-2.0,42.0,0.0
15.0,11.0,-8.0,0.0,-4.0,4.0,12.0,-14.0,-18.0,45.0,0.0
40.0,0.0,-7.0,7.0,-6.0,17.0,15.0,-6.0,-17.0,49.0,0.0
48.0,0.0,-3.0,7.0,-6.0,7.0,10.0,6.0,-27.0,24.0,0.0
16.0,-1.0,4.0,14.0,-9.0,-1.0,3.0,17.0,1.0,-9.0,0.0
-22.0,-8.0,1.0,-1.0,-7.0,2.0,-10.0,38.0,66.0,29.0,0.0
-10.0,-8.0,2.0,-8.0,0.0,7.0,-18.0,39.0,82.0,96.0,0.0
-6.0,-18.0,2.0,-1.0,0.0,15.0,-23.0,24.0,80.0,92.0,0.0
-5.0,-25.0,19.0,0.0,3.0,10.0,-28.0,7.0,67.0,99.0,0.0
12.0,-4.0,19.0,-5.0,-1.0,10.0,-27.0,-14.0,19.0,119.0,0.0
22.0,5.0,9.0,-6.0,2.0,-10.0,-25.0,-29.0,-21.0,128.0,0.0
35.0,8.0,9.0,-17.0,9.0,-9.0,-26.0,-31.0,-43.0,130.0,0.0
34.0,10.0,0.0,-36.0,13.0,2.0,-6.0,-21.0,-34.0,127.0,0.0
31.0,12.0,-8.0,-18.0,14.0,7.0,17.0,-23.0,-36.0,79.0,0.0
19.0,5.0,-11.0,-2.0,7.0,0.0,18.0,-8.0,-4.0,68.0,0.0
12.0,8.0,-1.0,-8.0,8.0,-5.0,-5.0,20.0,69.0,108.0,0.0
1.0,-9.0,-2.0,-12.0,4.0,-11.0,-8.0,56.0,111.0,95.0,0.0
-25.0,-22.0,0.0,-7.0,0.0,-8.0,-6.0,49.0,58.0,-40.0,0.0
-35.0,-21.0,1.0,8.0,0.0,-5.0,-25.0,15.0,-20.0,-144.0,0.0
-22.0,-7.0,7.0,14.0,6.0,-2.0,-28.0,-6.0,-30.0,-106.0,0.0
-6.0,-5.0,7.0,4.0,4.0,0.0,-22.0,-6.0,-32.0,-76.0,0.0
-6.0,-5.0,-2.0,-12.0,3.0,-14.0,-17.0,-7.0,-36.0,-59.0,0.0
-1.0,10.0,2.0,-17.0,-5.0,-13.0,-10.0,-12.0,-50.0,-53.0,0.0
-12.0,0.0,21.0,-16.0,-13.0,9.0,23.0,-7.0,-47.0,-85.0,0.0
-40.0,-15.0,30.0,-6.0,0.0,29.0,61.0,-6.0,-51.0,-125.0,0.0
-33.0,-13.0,44.0,4.0,4.0,31.0,68.0,-19.0,-61.0,-110.0,0.0
-11.0,0.0,47.0,0.0,-1.0,6.0,49.0,-26.0,-45.0,-59.0,0.0
8.0,0.0,41.0,-10.0,-13.0,-4.0,22.0,-4.0,-5.0,-18.0,0.0
16.0,-10.0,27.0,-21.0,-26.0,-16.0,0.0,22.0,16.0,15.0,0.0
24.0,4.0,23.0,-23.0,-18.0,-4.0,2.0,15.0,38.0,26.0,0.0
36.0,28.0,6.0,-39.0,-14.0,0.0,-2.0,1.0,28.0,38.0,0.0
41.0,28.0,7.0,-41.0,-9.0,-4.0,-8.0,-18.0,19.0,10.0,0.0
34.0,28.0,4.0,-25.0,-3.0,2.0,-14.0,-27.0,-6.0,-24.0,0.0
10.0,9.0,-10.0,-16.0,2.0,5.0,-6.0,-2.0,6.0,-42.0,0.0
-15.0,-12.0,-13.0,-7.0,2.0,17.0,9.0,5.0,20.0,-42.0,0.0
-33.0,-15.0,-15.0,9.0,2.0,3.0,9.0,0.0,16.0,-45.0,0.0
-19.0,-1.0,-9.0,15.0,-3.0,-15.0,1.0,3.0,11.0,-32.0,0.0
10.0,31.0,-1.0,19.0,2.0,-8.0,-9.0,10.0,32.0,8.0,0.0
31.0,44.0,5.0,22.0,3.0,-27.0,-20.0,15.0,45.0,53.0,0.0
30.0,43.0,-4.0,22.0,2.0,-28.0,-30.0,-4.0,42.0,71.0,0.0
65.0,46.0,-1.0,25.0,4.0,-22.0,-43.0,-13.0,57.0,142.0,0.0
100.0,52.0,15.0,22.0,-9.0,-38.0,-55.0,-32.0,64.0,224.0,0.0
88.0,41.0,22.0,8.0,-9.0,-37.0,-44.0,-39.0,79.0,246.0,0.0
44.0,29.0,16.0,6.0,-13.0,-28.0,-18.0,-32.0,76.0,230.0,0.0
-2.0,24.0,7.0,-4.0,-13.0,-11.0,11.0,-32.0,21.0,61.0,0.0
-37.0,2.0,-7.0,-8.0,0.0,3.0,19.0,-15.0,-38.0,-151.0,0.0
-48.0,-2.0,2.0,1.0,6.0,5.0,26.0,16.0,18.0,-166.0,0.0
-36.0,12.0,17.0,16.0,8.0,16.0,23.0,31.0,40.0,-156.0,0.0
-42.0,1.0,34.0,33.0,25.0,0.0,20.0,25.0,4.0,-208.0,0.0
-63.0,-18.0,31.0,30.0,31.0,-1.0,26.0,8.0,-39.0,-259.0,0.0
-60.0,-23.0,24.0,15.0,29.0,4.0,22.0,-9.0,-59.0,-236.0,0.0
-46.0,-2.0,23.0,11.0,26.0,-9.0,2.0,-20.0,-68.0,-182.0,0.0
-54.0,7.0,11.0,13.0,21.0,-20.0,-13.0,-5.0,-31.0,-132.0,0.0
-51.0,8.0,-3.0,0.0,8.0,-14.0,-15.0,24.0,54.0,-69.0,0.0
-36.0,7.0,-14.0,-1.0,9.0,0.0,-3.0,31.0,80.0,-68.0,0.0
-30.0,7.0,-11.0,8.0,8.0,-4.0,5.0,27.0,45.0,-91.0,0.0
-28.0,1.0,-6.0,7.0,7.0,-6.0,7.0,40.0,50.0,-87.0,0.0
-14.0,8.0,-7.0,7.0,2.0,-9.0,3.0,49.0,67.0,-48.0,0.0
13.0,8.0,3.0,6.0,7.0,-29.0,-2.0,27.0,60.0,-6.0,0.0
29.0,20.0,0.0,0.0,4.0,-42.0,-29.0,16.0,37.0,10.0,0.0
23.0,31.0,-9.0,-9.0,2.0,-36.0,-39.0,11.0,28.0,8.0,0.0
5.0,27.0,-18.0,-9.0,0.0,-24.0,-31.0,6.0,18.0,-9.0,0.0
10.0,15.0,-14.0,-5.0,0.0,-16.0,-23.0,-2.0,-21.0,-76.0,0.0
3.0,17.0,8.0,12.0,3.0,3.0,-8.0,-12.0,-48.0,-137.0,0.0
-2.0,16.0,3.0,12.0,4.0,0.0,-6.0,-27.0,-74.0,-158.0,0.0
-15.0,21.0,-16.0,8.0,7.0,-9.0,-23.0,-36.0,-96.0,-176.0,0.0
-14.0,23.0,-9.0,6.0,1.0,-22.0,-18.0,-20.0,-68.0,-121.0,0.0
-5.0,0.0,-5.0,7.0,0.0,-15.0,-10.0,3.0,-4.0,-25.0,0.0
-14.0,-16.0,-20.0,-9.0,-3.0,-1.0,7.0,26.0,39.0,46.0,0.0
-28.0,-27.0,-31.0,-36.0,-14.0,-3.0,13.0,34.0,37.0,93.0,0.0
-5.0,-32.0,-16.0,-20.0,-14.0,-10.0,5.0,26.0,21.0,101.0,0.0
26.0,-14.0,-12.0,-1.0,-9.0,-1.0,0.0,20.0,43.0,30.0,0.0
40.0,4.0,-9.0,2.0,3.0,8.0,-2.0,33.0,42.0,-11.0,0.0
37.0,22.0,2.0,2.0,8.0,-3.0,-16.0,1.0,-51.0,-42.0,0.0
16.0,29.0,4.0,17.0,10.0,-12.0,-23.0,-24.0,-90.0,-80.0,0.0
4.0,38.0,6.0,19.0,1.0,-18.0,-31.0,-9.0,-8.0,-66.0,0.0
5.0,37.0,8.0,16.0,-2.0,-15.0,-29.0,0.0,63.0,-36.0,0.0
22.0,10.0,9.0,10.0,5.0,-13.0,-6.0,34.0,96.0,25.0,0.0
22.0,2.0,11.0,17.0,8.0,-23.0,-8.0,44.0,79.0,50.0,0.0
25.0,10.0,14.0,23.0,3.0,-30.0,-9.0,29.0,74.0,58.0,0.0
35.0,15.0,15.0,16.0,-10.0,-32.0,-24.0,11.0,46.0,58.0,0.0
44.0,26.0,8.0,7.0,-7.0,-28.0,-39.0,-4.0,3.0,30.0,0.0
47.0,19.0,-13.0,-4.0,-13.0,-2.0,-13.0,0.0,-2.0,16.0,0.0
32.0,3.0,-10.0,-11.0,-15.0,8.0,18.0,1.0,-1.0,25.0,0.0
19.0,7.0,9.0,6.0,-4.0,10.0,24.0,-5.0,-26.0,2.0,0.0
12.0,5.0,24.0,19.0,1.0,16.0,14.0,-15.0,-66.0,-54.0,0.0
9.0,6.0,18.0,17.0,5.0,8.0,16.0,-11.0,-66.0,-85.0,0.0
-29.0,-6.0,5.0,17.0,11.0,12.0,33.0,4.0,-55.0,-96.0,0.0
-57.0,-11.0,4.0,19.0,17.0,29.0,38.0,3.0,-56.0,-102.0,0.0
-47.0,-10.0,5.0,19.0,7.0,24.0,36.0,2.0,-37.0,-82.0,0.0
-45.0,-4.0,-7.0,7.0,-10.0,0.0,29.0,-3.0,-2.0,-48.0,0.0
-39.0,0.0,-11.0,-1.0,-20.0,-5.0,18.0,4.0,21.0,-16.0,0.0
-19.0,11.0,-6.0,-5.0,-19.0,-2.0,17.0,10.0,36.0,7.0,0.0
-5.0,18.0,7.0,-13.0,-16.0,-5.0,6.0,13.0,23.0,19.0,0.0
7.0,11.0,11.0,-15.0,-15.0,-14.0,-5.0,2.0,22.0,36.0,0.0
22.0,14.0,12.0,-17.0,-19.0,-18.0,-13.0,-5.0,-1.0,48.0,0.0
35.0,10.0,1.0,-8.0,-28.0,-8.0,-13.0,2.0,10.0,61.0,0.0
29.0,11.0,-4.0,-16.0,-18.0,-5.0,-18.0,-8.0,7.0,51.0,0.0
21.0,8.0,7.0,-12.0,-14.0,-20.0,-15.0,-13.0,-2.0,43.0,0.0
28.0,1.0,17.0,-16.0,-13.0,-22.0,-16.0,-7.0,21.0,39.0,0.0
7.0,-8.0,2.0,-17.0,-18.0,-7.0,-17.0,-7.0,38.0,52.0,0.0
-1.0,-21.0,-7.0,-28.0,-13.0,11.0,-1.0,-3.0,64.0,101.0,0.0
42.0,-12.0,-2.0,-43.0,-26.0,6.0,20.0,12.0,104.0,177.0,0.0
86.0,7.0,-1.0,-52.0,-32.0,-3.0,4.0,9.0,79.0,215.0,0.0
103.0,26.0,1.0,-53.0,-33.0,-5.0,-25.0,-8.0,17.0,173.0,0.0
89.0,39.0,6.0,-44.0,-34.0,-9.0,-24.0,-11.0,-3.0,112.0,0.0
50.0,32.0,2.0,-32.0,-24.0,-8.0,-8.0,-13.0,-26.0,44.0,0.0
-7.0,10.0,-2.0,-18.0,-5.0,-19.0,-8.0,-27.0,-77.0,-66.0,0.0
-59.0,1.0,-15.0,-16.0,1.0,-17.0,-1.0,-27.0,-116.0,-204.0,0.0
-82.0,-11.0,-7.0,6.0,4.0,3.0,23.0,12.0,-69.0,-216.0,0.0
-67.0,-11.0,5.0,16.0,12.0,22.0,28.0,28.0,-16.0,-132.0,0.0
-51.0,-8.0,8.0,13.0,6.0,21.0,23.0,32.0,1.0,-76.0,0.0
-45.0,-14.0,-13.0,7.0,3.0,19.0,23.0,41.0,1.0,-58.0,0.0
-34.0,-10.0,-8.0,2.0,-5.0,22.0,22.0,35.0,8.0,-33.0,0.0
-14.0,-9.0,0.0,8.0,1.0,12.0,23.0,14.0,2.0,-19.0,0.0
-15.0,-8.0,5.0,23.0,3.0,23.0,20.0,-14.0,-27.0,-42.0,0.0
-23.0,5.0,4.0,18.0,4.0,26.0,17.0,-26.0,-50.0,-69.0,0.0
-43.0,10.0,-2.0,17.0,4.0,27.0,13.0,-22.0,-72.0,-85.0,0.0
-43.0,-10.0,-12.0,21.0,11.0,39.0,21.0,-12.0,-91.0,-79.0,0.0
-38.0,-27.0,-22.0,17.0,21.0,32.0,16.0,-22.0,-98.0,-74.0,0.0
-32.0,-30.0,-16.0,16.0,14.0,28.0,5.0,-10.0,-81.0,-60.0,0.0
-20.0,-15.0,-10.0,6.0,-4.0,23.0,-3.0,4.0,-54.0,-30.0,0.0
7.0,-2.0,-9.0,0.0,-19.0,-5.0,-3.0,32.0,23.0,18.0,0.0
15.0,-1.0,0.0,-8.0,-23.0,-25.0,-2.0,71.0,102.0,65.0,0.0
7.0,-8.0,6.0,-14.0,-20.0,-23.0,-17.0,70.0,94.0,75.0,0.0
15.0,-23.0,-2.0,-2.0,-8.0,-18.0,-34.0,57.0,58.0,77.0,0.0
16.0,-21.0,-13.0,10.0,-11.0,-14.0,-20.0,62.0,58.0,95.0,0.0
11.0,-3.0,-14.0,4.0,-14.0,-4.0,-20.0,38.0,21.0,86.0,0.0
10.0,-1.0,-7.0,3.0,-6.0,-5.0,-14.0,28.0,22.0,84.0,0.0
9.0,-3.0,0.0,7.0,-3.0,-12.0,-4.0,27.0,31.0,84.0,0.0
8.0,-1.0,7.0,7.0,2.0,-19.0,-8.0,4.0,1.0,63.0,0.0
1.0,-1.0,6.0,7.0,-1.0,-20.0,-22.0,-12.0,-19.0,34.0,0.0
-1.0,0.0,-2.0,23.0,-10.0,-8.0,-20.0,-10.0,-25.0,26.0,0.0
2.0,7.0,-6.0,20.0,-17.0,3.0,-15.0,-16.0,-28.0,46.0,0.0
3.0,7.0,15.0,11.0,-14.0,-8.0,-16.0,-11.0,-20.0,66.0,0.0
2.0,6.0,16.0,12.0,-17.0,-6.0,-28.0,-19.0,-3.0,77.0,0.0
13.0,0.0,4.0,9.0,-18.0,4.0,-36.0,-18.0,10.0,106.0,0.0
3.0,-16.0,-8.0,-9.0,-15.0,-2.0,-24.0,11.0,68.0,156.0,0.0
-27.0,-23.0,-19.0,-14.0,-11.0,-15.0,-12.0,50.0,120.0,156.0,0.0
-29.0,-24.0,-15.0,-2.0,2.0,-13.0,-11.0,30.0,60.0,60.0,0.0
-27.0,-16.0,0.0,15.0,4.0,1.0,-11.0,-2.0,-29.0,-49.0,0.0
-23.0,-7.0,12.0,14.0,1.0,6.0,-8.0,-11.0,-66.0,-87.0,0.0
-45.0,-7.0,14.0,10.0,7.0,-2.0,7.0,0.0,-54.0,-105.0,0.0
-68.0,-13.0,14.0,8.0,3.0,1.0,9.0,15.0,4.0,-87.0,0.0
-56.0,-12.0,0.0,7.0,2.0,20.0,25.0,32.0,59.0,-21.0,0.0
-25.0,-8.0,-2.0,-1.0,12.0,18.0,21.0,27.0,58.0,-4.0,0.0
-10.0,7.0,10.0,-14.0,15.0,8.0,1.0,7.0,36.0,-6.0,0.0
3.0,6.0,8.0,-29.0,9.0,9.0,-14.0,0.0,31.0,5.0,0.0
10.0,16.0,6.0,-28.0,-5.0,11.0,-12.0,-12.0,27.0,3.0,0.0
4.0,14.0,5.0,-20.0,-7.0,11.0,0.0,-13.0,5.0,-9.0,0.0
6.0,13.0,7.0,-19.0,-3.0,19.0,0.0,-18.0,-14.0,-3.0,0.0
16.0,29.0,-4.0,-15.0,8.0,1.0,-31.0,-26.0,-20.0,6.0,0.0
9.0,34.0,-9.0,-17.0,17.0,-3.0,-35.0,-33.0,-11.0,12.0,0.0
-3.0,15.0,-20.0,-18.0,1.0,3.0,0.0,-33.0,-11.0,1.0,0.0
3.0,10.0,-28.0,-21.0,-5.0,3.0,10.0,-30.0,-41.0,-8.0,0.0
9.0,18.0,-22.0,-24.0,0.0,-19.0,0.0,-54.0,-88.0,-27.0,0.0
12.0,17.0,-18.0,-2.0,-1.0,-18.0,-3.0,-69.0,-122.0,-34.0,0.0
10.0,2.0,-10.0,22.0,-4.0,-5.0,-17.0,-74.0,-128.0,-13.0,0.0
-4.0,-29.0,-12.0,29.0,-6.0,10.0,-14.0,-61.0,-99.0,-3.0,0.0
-24.0,-57.0,-11.0,25.0,1.0,31.0,0.0,-42.0,-68.0,-25.0,0.0
-28.0,-73.0,-13.0,25.0,11.0,63.0,9.0,-21.0,-47.0,-25.0,0.0
-31.0,-71.0,-12.0,20.0,8.0,55.0,11.0,-10.0,-22.0,-6.0,0.0
-11.0,-42.0,-19.0,0.0,-13.0,21.0,24.0,34.0,80.0,68.0,0.0
11.0,0.0,-20.0,-2.0,-23.0,1.0,26.0,84.0,178.0,116.0,0.0
14.0,16.0,-30.0,10.0,-27.0,19.0,17.0,114.0,174.0,119.0,0.0
16.0,44.0,-18.0,22.0,-11.0,35.0,22.0,90.0,130.0,101.0,0.0
37.0,46.0,18.0,48.0,17.0,17.0,29.0,55.0,94.0,101.0,0.0
42.0,6.0,25.0,65.0,32.0,10.0,37.0,61.0,99.0,118.0,0.0
40.0,-11.0,21.0,86.0,23.0,-22.0,29.0,73.0,122.0,139.0,0.0
28.0,-33.0,45.0,178.0,21.0,-56.0,9.0,56.0,114.0,160.0,0.0
34.0,-47.0,71.0,229.0,17.0,-82.0,-13.0,32.0,107.0,187.0,0.0
16.0,-50.0,77.0,178.0,16.0,-83.0,-39.0,1.0,56.0,143.0,0.0
0.0,-56.0,66.0,93.0,9.0,-75.0,-49.0,-20.0,-9.0,53.0,0.0
4.0,-32.0,77.0,35.0,9.0,-59.0,-47.0,-14.0,-33.0,8.0,0.0
-2.0,-1.0,62.0,1.0,13.0,-39.0,-52.0,-26.0,-56.0,-52.0,0.0
3.0,16.0,52.0,15.0,45.0,-1.0,-33.0,-33.0,-84.0,-75.0,0.0
34.0,58.0,79.0,52.0,110.0,76.0,37.0,22.0,-40.0,-30.0,0.0
77.0,109.0,94.0,0.0,118.0,115.0,93.0,71.0,2.0,15.0,0.0
50.0,81.0,20.0,-93.0,33.0,44.0,40.0,29.0,-30.0,-4.0,0.0
31.0,57.0,-49.0,-139.0,-52.0,-25.0,-44.0,-26.0,-66.0,12.0,0.0
63.0,66.0,21.0,-96.0,-62.0,-19.0,-60.0,-21.0,-3.0,154.0,0.0
47.0,54.0,-5.0,-130.0,-106.0,-63.0,-85.0,-37.0,59.0,254.0,0.0
9.0,38.0,-116.0,-203.0,-160.0,-124.0,-122.0,-79.0,73.0,308.0,0.0
19.0,46.0,-104.0,-163.0,-121.0,-102.0,-89.0,-66.0,52.0,325.0,0.0
-20.0,25.0,-81.0,-138.0,-85.0,-59.0,-48.0,-31.0,-33.0,65.0,0.0
-58.0,32.0,-68.0,-91.0,-51.0,-11.0,-15.0,-11.0,-106.0,-232.0,0.0
-81.0,34.0,-43.0,-41.0,-6.0,20.0,4.0,-40.0,-164.0,-310.0,0.0
-90.0,25.0,-24.0,-12.0,10.0,30.0,16.0,-43.0,-177.0,-321.0,0.0
-85.0,33.0,-22.0,-6.0,-2.0,23.0,19.0,-25.0,-186.0,-275.0,0.0
-92.0,36.0,-19.0,-9.0,-12.0,5.0,10.0,-18.0,-183.0,-206.0,0.0
-75.0,40.0,-21.0,-12.0,-21.0,0.0,-9.0,-19.0,-157.0,-146.0,0.0
-58.0,56.0,-32.0,-13.0,-26.0,-11.0,-19.0,-2.0,-65.0,-107.0,0.0
-41.0,64.0,-23.0,-16.0,-20.0,-18.0,-3.0,7.0,36.0,-71.0,0.0
-25.0,53.0,-20.0,-12.0,-11.0,-19.0,-7.0,-4.0,49.0,-41.0,0.0
-22.0,45.0,-11.0,-10.0,0.0,-11.0,-17.0,-25.0,21.0,-42.0,0.0
-27.0,34.0,-10.0,6.0,14.0,-10.0,-30.0,-38.0,5.0,-50.0,0.0
-35.0,21.0,-1.0,17.0,15.0,-2.0,-27.0,-26.0,0.0,-23.0,0.0
-33.0,-7.0,-1.0,18.0,29.0,3.0,-2.0,10.0,57.0,32.0,0.0
-30.0,-38.0,-7.0,15.0,34.0,3.0,12.0,32.0,108.0,104.0,0.0
9.0,-30.0,-1.0,0.0,20.0,-4.0,19.0,46.0,140.0,241.0,0.0
77.0,-22.0,1.0,-11.0,10.0,-20.0,2.0,26.0,136.0,434.0,0.0
119.0,-18.0,-7.0,-15.0,-3.0,-28.0,-30.0,-10.0,91.0,503.0,0.0
122.0,-16.0,7.0,-18.0,-25.0,-21.0,-40.0,-34.0,33.0,414.0,0.0
129.0,-14.0,23.0,-22.0,-36.0,-10.0,-33.0,-41.0,-8.0,248.0,0.0
100.0,-33.0,18.0,-7.0,-36.0,-4.0,-27.0,-46.0,-73.0,-12.0,0.0
33.0,-63.0,19.0,12.0,-6.0,13.0,-9.0,-41.0,-116.0,-235.0,0.0
-63.0,-85.0,25.0,9.0,28.0,36.0,23.0,-16.0,-110.0,-353.0,0.0
-129.0,-97.0,20.0,20.0,32.0,60.0,47.0,16.0,-85.0,-357.0,0.0
-110.0,-59.0,19.0,19.0,21.0,43.0,50.0,20.0,-64.0,-279.0,0.0
-66.0,-18.0,13.0,2.0,6.0,20.0,33.0,17.0,-22.0,-194.0,0.0
-37.0,-14.0,9.0,0.0,-7.0,14.0,19.0,7.0,-8.0,-116.0,0.0
-20.0,3.0,0.0,3.0,-14.0,9.0,12.0,-1.0,0.0,-70.0,0.0
-17.0,12.0,-6.0,8.0,-14.0,-2.0,-4.0,4.0,6.0,-52.0,0.0
-27.0,4.0,2.0,6.0,-3.0,15.0,2.0,2.0,0.0,-46.0,0.0
-22.0,6.0,2.0,12.0,10.0,26.0,-3.0,-6.0,-23.0,-43.0,0.0
-17.0,3.0,0.0,14.0,17.0,15.0,9.0,-1.0,-53.0,-58.0,0.0
-19.0,1.0,-2.0,16.0,31.0,22.0,27.0,3.0,-58.0,-68.0,0.0
-14.0,14.0,5.0,19.0,27.0,30.0,8.0,-9.0,-77.0,-60.0,0.0
9.0,38.0,17.0,18.0,28.0,8.0,-4.0,-19.0,-76.0,-45.0,0.0
7.0,52.0,19.0,16.0,24.0,10.0,-4.0,-21.0,-60.0,-27.0,0.0
-11.0,63.0,12.0,21.0,14.0,20.0,-7.0,-11.0,-37.0,-15.0,0.0
-36.0,55.0,15.0,16.0,12.0,3.0,-7.0,1.0,-17.0,-18.0,0.0
-54.0,49.0,29.0,23.0,15.0,0.0,-2.0,12.0,-6.0,-28.0,0.0
-65.0,50.0,40.0,38.0,8.0,10.0,8.0,16.0,5.0,-28.0,0.0
-62.0,51.0,38.0,44.0,-3.0,8.0,-5.0,6.0,-11.0,-23.0,0.0
-43.0,31.0,35.0,33.0,-9.0,-9.0,-19.0,-6.0,-10.0,-13.0,0.0
-21.0,32.0,17.0,32.0,-2.0,-10.0,-13.0,-3.0,8.0,28.0,0.0
8.0,40.0,8.0,21.0,-1.0,-1.0,-13.0,-3.0,12.0,57.0,0.0
25.0,47.0,0.0,8.0,-2.0,-7.0,-22.0,-12.0,25.0,76.0,0.0
21.0,38.0,2.0,8.0,-4.0,-12.0,-24.0,7.0,45.0,74.0,0.0
-3.0,34.0,8.0,4.0,-3.0,-5.0,-22.0,26.0,42.0,26.0,0.0
-17.0,22.0,4.0,15.0,-3.0,0.0,-19.0,10.0,17.0,-14.0,0.0
-12.0,16.0,-2.0,15.0,0.0,-3.0,-15.0,15.0,16.0,-6.0,0.0
0.0,9.0,9.0,6.0,1.0,-2.0,-7.0,22.0,31.0,13.0,0.0
2.0,9.0,8.0,7.0,9.0,9.0,1.0,12.0,21.0,2.0,0.0
-9.0,6.0,8.0,10.0,4.0,15.0,13.0,10.0,-1.0,-14.0,0.0
-15.0,12.0,-6.0,14.0,0.0,12.0,7.0,-1.0,-27.0,-18.0,0.0
-13.0,29.0,-5.0,7.0,-11.0,-1.0,-3.0,-29.0,-32.0,-33.0,0.0
-2.0,34.0,-1.0,-4.0,-18.0,-1.0,-9.0,-45.0,-36.0,-47.0,0.0
9.0,37.0,0.0,5.0,-8.0,1.0,-2.0,-27.0,-33.0,-13.0,0.0
0.0,29.0,3.0,14.0,-3.0,-1.0,18.0,-2.0,-9.0,11.0,0.0
-23.0,25.0,10.0,12.0,-2.0,15.0,21.0,0.0,-8.0,2.0,0.0
-12.0,27.0,12.0,3.0,1.0,24.0,13.0,4.0,-6.0,-3.0,0.0
0.0,39.0,3.0,8.0,-4.0,6.0,4.0,-6.0,-15.0,1.0,0.0
8.0,34.0,12.0,9.0,0.0,2.0,-8.0,-14.0,-32.0,-8.0,0.0
15.0,33.0,19.0,3.0,4.0,16.0,-16.0,-18.0,-54.0,-5.0,0.0
20.0,31.0,11.0,-8.0,8.0,6.0,-17.0,-26.0,-41.0,9.0,0.0
18.0,24.0,14.0,-9.0,12.0,0.0,-22.0,-51.0,-54.0,4.0,0.0
6.0,6.0,13.0,-1.0,16.0,7.0,-32.0,-54.0,-75.0,-11.0,0.0
0.0,-2.0,-1.0,5.0,12.0,11.0,-30.0,-29.0,-34.0,-5.0,0.0
-1.0,-17.0,-20.0,3.0,1.0,-2.0,-22.0,0.0,31.0,24.0,0.0
3.0,-18.0,-2.0,6.0,4.0,1.0,-8.0,10.0,40.0,28.0,0.0
-2.0,-8.0,6.0,4.0,8.0,11.0,4.0,0.0,19.0,-29.0,0.0
-24.0,-27.0,-1.0,-8.0,8.0,7.0,11.0,7.0,13.0,-54.0,0.0
-32.0,-31.0,5.0,-11.0,18.0,12.0,8.0,23.0,-4.0,-53.0,0.0
-16.0,-28.0,19.0,0.0,15.0,10.0,0.0,50.0,43.0,-22.0,0.0
3.0,-13.0,19.0,1.0,7.0,-6.0,-12.0,49.0,104.0,22.0,0.0
17.0,-2.0,13.0,1.0,11.0,-9.0,-25.0,6.0,41.0,12.0,0.0
13.0,-6.0,6.0,-5.0,17.0,1.0,-23.0,-16.0,-47.0,-41.0,0.0
0.0,-4.0,1.0,-10.0,12.0,4.0,-38.0,-16.0,-105.0,-75.0,0.0
-7.0,0.0,2.0,4.0,15.0,5.0,-49.0,-23.0,-137.0,-82.0,0.0
-10.0,-8.0,3.0,11.0,18.0,13.0,-42.0,-45.0,-154.0,-81.0,0.0
-5.0,-16.0,2.0,11.0,13.0,5.0,-40.0,-53.0,-129.0,-48.0,0.0
-1.0,-26.0,-1.0,7.0,4.0,0.0,-34.0,-24.0,-80.0,-2.0,0.0
7.0,-30.0,7.0,3.0,-4.0,-3.0,-21.0,14.0,14.0,39.0,0.0
8.0,-33.0,1.0,2.0,-6.0,-3.0,-7.0,67.0,195.0,77.0,0.0
26.0,-20.0,17.0,7.0,5.0,-8.0,5.0,96.0,293.0,131.0,0.0
35.0,-10.0,18.0,16.0,11.0,-5.0,-3.0,61.0,198.0,97.0,0.0
47.0,-5.0,11.0,-11.0,6.0,-3.0,-12.0,25.0,108.0,77.0,0.0
60.0,12.0,9.0,-35.0,0.0,-20.0,-29.0,17.0,93.0,81.0,0.0
37.0,8.0,4.0,-33.0,-4.0,-20.0,-24.0,4.0,75.0,53.0,0.0
3.0,-25.0,-14.0,-42.0,-14.0,9.0,-4.0,23.0,68.0,37.0,0.0
6.0,-35.0,-14.0,-43.0,-6.0,21.0,12.0,37.0,63.0,13.0,0.0
13.0,-32.0,-13.0,-29.0,7.0,15.0,9.0,37.0,64.0,18.0,0.0
20.0,-19.0,-12.0,-20.0,12.0,6.0,16.0,36.0,79.0,59.0,0.0
0.0,-5.0,-10.0,-23.0,13.0,0.0,15.0,17.0,43.0,20.0,0.0
-9.0,2.0,-7.0,-27.0,15.0,-8.0,8.0,-7.0,-8.0,-14.0,0.0
-13.0,-6.0,-3.0,-26.0,17.0,-11.0,18.0,-17.0,-13.0,-10.0,0.0
-15.0,-14.0,1.0,-15.0,22.0,0.0,29.0,-19.0,-16.0,-9.0,0.0
-9.0,-16.0,-8.0,-10.0,18.0,0.0,17.0,-27.0,-29.0,-21.0,0.0
-3.0,-8.0,-10.0,-15.0,18.0,-14.0,14.0,-34.0,-49.0,-28.0,0.0
12.0,-8.0,-5.0,-14.0,20.0,-16.0,15.0,-33.0,-49.0,-25.0,0.0
5.0,-9.0,-19.0,-5.0,19.0,-21.0,12.0,-39.0,-28.0,-33.0,0.0
13.0,-12.0,-19.0,-12.0,19.0,-11.0,8.0,-37.0,-16.0,-12.0,0.0
18.0,-9.0,-11.0,-13.0,17.0,-16.0,4.0,-11.0,11.0,47.0,0.0
24.0,-10.0,-5.0,7.0,12.0,-28.0,0.0,6.0,53.0,84.0,0.0
34.0,-4.0,-9.0,23.0,8.0,-31.0,-1.0,30.0,97.0,104.0,0.0
37.0,-3.0,-12.0,23.0,1.0,-17.0,-15.0,24.0,83.0,64.0,0.0
24.0,-23.0,-19.0,14.0,-5.0,0.0,-5.0,-12.0,2.0,-39.0,0.0
0.0,-39.0,-32.0,6.0,-2.0,4.0,45.0,-21.0,-54.0,-101.0,0.0
-12.0,-29.0,-18.0,17.0,1.0,2.0,63.0,-25.0,-70.0,-76.0,0.0
-7.0,-11.0,-24.0,23.0,11.0,12.0,54.0,-13.0,-59.0,-25.0,0.0
11.0,-2.0,-21.0,28.0,10.0,9.0,51.0,-13.0,-39.0,-13.0,0.0
23.0,-3.0,-10.0,30.0,-5.0,-6.0,29.0,-24.0,-42.0,-25.0,0.0
1.0,-16.0,-9.0,24.0,-10.0,-5.0,20.0,-24.0,-34.0,-41.0,0.0
-22.0,-12.0,-23.0,27.0,2.0,20.0,46.0,-8.0,6.0,-55.0,0.0
-38.0,-27.0,-28.0,17.0,4.0,19.0,46.0,-2.0,4.0,-64.0,0.0
-37.0,-15.0,-27.0,5.0,-4.0,16.0,41.0,-6.0,0.0,-54.0,0.0
-15.0,1.0,-31.0,14.0,-9.0,45.0,43.0,-4.0,-1.0,-12.0,0.0
-2.0,-2.0,-18.0,17.0,0.0,40.0,55.0,2.0,12.0,20.0,0.0
-6.0,-2.0,-16.0,22.0,3.0,38.0,57.0,3.0,37.0,29.0,0.0
-10.0,-9.0,-22.0,21.0,0.0,22.0,41.0,-4.0,36.0,26.0,0.0
0.0,-28.0,-16.0,12.0,8.0,17.0,35.0,-29.0,-11.0,-1.0,0.0
-4.0,-29.0,-17.0,6.0,4.0,26.0,32.0,-44.0,-59.0,-54.0,0.0
0.0,-13.0,-22.0,9.0,4.0,36.0,35.0,-31.0,-46.0,-48.0,0.0
5.0,-12.0,-21.0,23.0,3.0,38.0,24.0,-34.0,-78.0,-26.0,0.0
2.0,-8.0,-10.0,20.0,-2.0,19.0,18.0,-44.0,-103.0,3.0,0.0
17.0,-5.0,8.0,13.0,-8.0,15.0,10.0,-39.0,-42.0,30.0,0.0
26.0,7.0,10.0,15.0,0.0,-5.0,24.0,-17.0,45.0,43.0,0.0
24.0,9.0,0.0,9.0,4.0,1.0,18.0,-16.0,51.0,2.0,0.0
7.0,-1.0,2.0,1.0,6.0,3.0,2.0,-19.0,30.0,-38.0,0.0
-2.0,2.0,-1.0,3.0,8.0,-5.0,11.0,10.0,65.0,-11.0,0.0
-17.0,9.0,-4.0,6.0,11.0,1.0,36.0,49.0,109.0,1.0,0.0
-27.0,0.0,-9.0,4.0,4.0,14.0,34.0,40.0,100.0,5.0,0.0
-32.0,-12.0,-18.0,-8.0,-2.0,10.0,24.0,20.0,90.0,9.0,0.0
-26.0,-5.0,-23.0,-24.0,-4.0,14.0,25.0,23.0,80.0,34.0,0.0
-14.0,5.0,-12.0,-19.0,-7.0,15.0,17.0,28.0,71.0,49.0,0.0
6.0,7.0,-12.0,-9.0,-8.0,7.0,20.0,18.0,77.0,46.0,0.0
6.0,6.0,-11.0,-6.0,-12.0,11.0,8.0,17.0,49.0,56.0,0.0
-12.0,-7.0,-14.0,-2.0,-12.0,20.0,12.0,25.0,42.0,37.0,0.0
-34.0,-27.0,-19.0,-9.0,-12.0,20.0,23.0,27.0,42.0,14.0,0.0
-31.0,-30.0,-19.0,-21.0,-18.0,20.0,44.0,38.0,75.0,55.0,0.0
-16.0,-16.0,-4.0,-21.0,-23.0,26.0,52.0,52.0,118.0,101.0,0.0
-1.0,-1.0,-11.0,-25.0,-26.0,11.0,45.0,44.0,121.0,129.0,0.0
7.0,-5.0,-14.0,-39.0,-41.0,19.0,46.0,23.0,116.0,148.0,0.0
18.0,5.0,-11.0,-50.0,-44.0,20.0,36.0,-5.0,49.0,100.0,0.0
24.0,9.0,-16.0,-47.0,-36.0,17.0,18.0,-29.0,-29.0,-18.0,0.0
30.0,6.0,-15.0,-39.0,-37.0,10.0,19.0,-17.0,-21.0,-57.0,0.0
45.0,6.0,-8.0,-35.0,-25.0,14.0,12.0,-10.0,-7.0,-41.0,0.0
60.0,10.0,4.0,-30.0,-20.0,11.0,3.0,-14.0,-7.0,52.0,0.0
55.0,5.0,3.0,-10.0,-21.0,-3.0,11.0,-20.0,0.0,98.0,0.0
27.0,4.0,-1.0,-17.0,-18.0,5.0,9.0,-26.0,-25.0,73.0,0.0
12.0,-4.0,-8.0,-12.0,-20.0,4.0,16.0,-20.0,-17.0,58.0,0.0
-13.0,-15.0,-9.0,0.0,-12.0,9.0,20.0,-12.0,-18.0,-63.0,0.0
-54.0,-19.0,-8.0,0.0,-2.0,20.0,22.0,0.0,-33.0,-166.0,0.0
-58.0,-32.0,-7.0,-15.0,3.0,26.0,43.0,18.0,10.0,-97.0,0.0
-51.0,-34.0,7.0,-13.0,7.0,15.0,36.0,15.0,14.0,-50.0,0.0
-29.0,-25.0,2.0,-28.0,10.0,10.0,9.0,-5.0,0.0,-23.0,0.0
30.0,-19.0,1.0,-36.0,-1.0,0.0,-5.0,-11.0,25.0,111.0,0.0
61.0,-11.0,8.0,-43.0,-10.0,-12.0,-18.0,9.0,82.0,238.0,0.0
51.0,0.0,12.0,-35.0,-19.0,-2.0,-3.0,7.0,100.0,284.0,0.0
45.0,0.0,3.0,-22.0,-19.0,0.0,-6.0,15.0,83.0,224.0,0.0
13.0,-7.0,3.0,-1.0,-16.0,6.0,-18.0,-6.0,5.0,-7.0,0.0
-34.0,-19.0,5.0,13.0,0.0,12.0,-4.0,-8.0,-41.0,-188.0,0.0
-59.0,-27.0,1.0,21.0,2.0,21.0,17.0,4.0,-40.0,-240.0,0.0
-71.0,-30.0,11.0,24.0,0.0,23.0,27.0,20.0,-39.0,-260.0,0.0
-63.0,-22.0,11.0,35.0,5.0,25.0,13.0,18.0,-39.0,-225.0,0.0
-36.0,-23.0,7.0,24.0,3.0,3.0,6.0,1.0,-41.0,-161.0,0.0
-41.0,-44.0,-14.0,6.0,2.0,5.0,11.0,-11.0,-50.0,-132.0,0.0
-30.0,-54.0,-11.0,0.0,5.0,1.0,15.0,-5.0,-27.0,-94.0,0.0
-6.0,-30.0,0.0,-10.0,3.0,-7.0,9.0,-2.0,-15.0,-52.0,0.0
11.0,-11.0,10.0,-10.0,5.0,-23.0,-1.0,-11.0,-15.0,-9.0,0.0
31.0,2.0,12.0,-24.0,2.0,-36.0,-17.0,-9.0,-13.0,11.0,0.0
38.0,-7.0,5.0,-22.0,-4.0,-31.0,-21.0,-16.0,-12.0,12.0,0.0
27.0,-6.0,14.0,-16.0,7.0,-28.0,-24.0,-28.0,-25.0,15.0,0.0
20.0,-5.0,21.0,1.0,10.0,-38.0,-34.0,-24.0,-26.0,24.0,0.0
24.0,-3.0,19.0,7.0,11.0,-29.0,-39.0,-20.0,-18.0,28.0,0.0
6.0,-15.0,7.0,5.0,13.0,-2.0,-25.0,-7.0,-10.0,36.0,0.0
15.0,-19.0,-1.0,-9.0,10.0,-6.0,-6.0,-1.0,24.0,85.0,0.0
42.0,-8.0,-1.0,-18.0,-1.0,-26.0,8.0,20.0,69.0,180.0,0.0
48.0,0.0,-1.0,-8.0,-5.0,-19.0,11.0,28.0,55.0,190.0,0.0
30.0,1.0,0.0,5.0,2.0,-8.0,-1.0,3.0,-7.0,116.0,0.0
22.0,2.0,16.0,22.0,16.0,0.0,-24.0,-20.0,-73.0,47.0,0.0
2.0,4.0,35.0,27.0,30.0,10.0,-24.0,-47.0,-114.0,-39.0,0.0
