channel0,channel1,channel2,channel3,channel4,channel5,channel6,channel7,channel8,channel9,true_locs
-51.0,5.0,-29.0,-16.0,39.0,68.0,56.0,83.0,26.0,-169.0,0.0
-28.0,-14.0,-28.0,-2.0,34.0,60.0,61.0,51.0,11.0,-98.0,0.0
-27.0,-32.0,-20.0,9.0,22.0,48.0,64.0,45.0,9.0,-45.0,0.0
-34.0,-38.0,-3.0,12.0,6.0,23.0,46.0,34.0,10.0,-19.0,0.0
-35.0,-37.0,11.0,14.0,-11.0,2.0,29.0,27.0,1.0,-23.0,0.0
-51.0,-40.0,-27.0,-9.0,-27.0,-23.0,5.0,20.0,-9.0,-37.0,0.0
-54.0,-43.0,-46.0,-36.0,-56.0,-48.0,-27.0,-4.0,-18.0,-33.0,0.0
-33.0,0.0,-9.0,-15.0,-46.0,-42.0,-31.0,-8.0,-17.0,25.0,0.0
33.0,40.0,27.0,12.0,-32.0,-23.0,-10.0,0.0,2.0,131.0,0.0
128.0,64.0,53.0,18.0,-28.0,-18.0,-9.0,-8.0,3.0,205.0,0.0
131.0,69.0,54.0,2.0,-27.0,-12.0,-25.0,-10.0,-16.0,189.0,0.0
83.0,50.0,49.0,1.0,-19.0,-12.0,-17.0,-5.0,-24.0,91.0,0.0
46.0,29.0,43.0,15.0,-16.0,-20.0,1.0,-15.0,-22.0,-18.0,0.0
12.0,0.0,47.0,16.0,-16.0,-39.0,-11.0,-38.0,-27.0,-55.0,0.0
-5.0,-12.0,39.0,16.0,-8.0,-32.0,-14.0,-25.0,-4.0,-69.0,0.0
-25.0,-25.0,12.0,14.0,-10.0,-5.0,10.0,-3.0,15.0,-133.0,0.0
-57.0,-29.0,-17.0,-13.0,-13.0,15.0,18.0,10.0,2.0,-160.0,0.0
-66.0,-19.0,-30.0,-29.0,-16.0,9.0,19.0,1.0,-11.0,-164.0,0.0
-58.0,3.0,-26.0,-30.0,-33.0,-11.0,2.0,-20.0,-18.0,-118.0,0.0
-29.0,15.0,-9.0,-22.0,-44.0,-16.0,-9.0,-18.0,-15.0,-89.0,0.0
0.0,46.0,4.0,-4.0,-38.0,-4.0,-4.0,-9.0,-19.0,-65.0,0.0
6.0,75.0,43.0,3.0,-31.0,-8.0,-13.0,-21.0,-10.0,-18.0,0.0
30.0,93.0,64.0,18.0,-6.0,-8.0,-12.0,-25.0,-8.0,25.0,0.0
56.0,103.0,64.0,30.0,18.0,0.0,-6.0,-13.0,0.0,44.0,0.0
49.0,116.0,39.0,32.0,29.0,16.0,9.0,-3.0,-8.0,49.0,0.0
31.0,116.0,6.0,26.0,25.0,23.0,26.0,8.0,-3.0,42.0,0.0
19.0,97.0,-16.0,19.0,19.0,31.0,18.0,15.0,0.0,43.0,0.0
31.0,65.0,-14.0,13.0,15.0,19.0,3.0,13.0,3.0,43.0,0.0
21.0,39.0,20.0,18.0,4.0,-5.0,-19.0,-9.0,-4.0,16.0,0.0
-3.0,-2.0,38.0,7.0,-14.0,-24.0,-38.0,-22.0,-16.0,-26.0,0.0
-24.0,-49.0,41.0,-12.0,-34.0,-39.0,-56.0,-13.0,-27.0,-48.0,0.0
-30.0,-79.0,15.0,-10.0,-38.0,-36.0,-52.0,-14.0,-19.0,-67.0,0.0
-21.0,-112.0,-11.0,-10.0,-26.0,-21.0,-38.0,-7.0,-13.0,-67.0,0.0
-18.0,-116.0,-14.0,-3.0,-7.0,-13.0,-29.0,0.0,-7.0,-51.0,0.0
-20.0,-42.0,-26.0,-17.0,-17.0,-12.0,-32.0,-1.0,-13.0,-5.0,0.0
-40.0,41.0,-61.0,-73.0,-54.0,-35.0,-47.0,-8.0,-18.0,96.0,0.0
-58.0,66.0,-113.0,-116.0,-85.0,-51.0,-44.0,-2.0,-13.0,178.0,0.0
-29.0,38.0,-112.0,-106.0,-72.0,-56.0,-27.0,21.0,5.0,132.0,0.0
-3.0,1.0,-75.0,-84.0,-47.0,-46.0,-17.0,24.0,18.0,137.0,0.0
7.0,-40.0,-42.0,-61.0,-31.0,-50.0,-34.0,1.0,-10.0,213.0,0.0
12.0,-60.0,-27.0,-44.0,-32.0,-53.0,-36.0,-11.0,-38.0,175.0,0.0
0.0,-67.0,0.0,-15.0,-11.0,-31.0,-10.0,3.0,-12.0,115.0,0.0
-13.0,-40.0,62.0,44.0,41.0,11.0,37.0,56.0,43.0,31.0,0.0
-22.0,-9.0,83.0,70.0,71.0,65.0,79.0,104.0,83.0,-138.0,0.0
-38.0,-11.0,63.0,68.0,63.0,76.0,101.0,113.0,74.0,-247.0,0.0
-38.0,-9.0,67.0,64.0,59.0,67.0,99.0,80.0,51.0,-201.0,0.0
-15.0,-1.0,79.0,62.0,56.0,55.0,74.0,49.0,34.0,-146.0,0.0
-11.0,-2.0,76.0,58.0,33.0,48.0,35.0,32.0,26.0,-96.0,0.0
-3.0,-5.0,58.0,34.0,16.0,27.0,35.0,22.0,19.0,-64.0,0.0
0.0,1.0,23.0,13.0,15.0,10.0,35.0,13.0,13.0,-42.0,0.0
-10.0,0.0,3.0,4.0,2.0,-9.0,17.0,2.0,7.0,15.0,0.0
1.0,23.0,6.0,-2.0,-1.0,-18.0,-1.0,-6.0,0.0,40.0,0.0
22.0,27.0,20.0,2.0,10.0,-21.0,-16.0,-22.0,-4.0,43.0,0.0
45.0,30.0,21.0,-8.0,0.0,-41.0,-24.0,-20.0,-20.0,93.0,0.0
45.0,43.0,25.0,-14.0,-4.0,-49.0,-19.0,-15.0,-10.0,136.0,0.0
46.0,56.0,19.0,-13.0,-23.0,-50.0,-26.0,-37.0,-19.0,171.0,0.0
64.0,58.0,3.0,-19.0,-42.0,-68.0,-56.0,-61.0,-36.0,195.0,0.0
69.0,48.0,-13.0,-16.0,-40.0,-77.0,-68.0,-54.0,-33.0,169.0,0.0
74.0,49.0,-16.0,-9.0,-29.0,-65.0,-77.0,-55.0,-39.0,75.0,0.0
72.0,51.0,-13.0,-12.0,-26.0,-69.0,-73.0,-57.0,-39.0,4.0,0.0
52.0,41.0,-26.0,-9.0,-32.0,-77.0,-72.0,-48.0,-38.0,-46.0,0.0
-5.0,25.0,-33.0,-1.0,-20.0,-59.0,-54.0,-20.0,-22.0,-162.0,0.0
-56.0,3.0,-47.0,-3.0,-4.0,-35.0,-25.0,7.0,-10.0,-177.0,0.0
-60.0,-24.0,-80.0,-29.0,-10.0,-25.0,-7.0,17.0,-12.0,-85.0,0.0
-49.0,-39.0,-82.0,-48.0,-17.0,-18.0,-13.0,6.0,-11.0,0.0,0.0
-46.0,-52.0,-56.0,-63.0,-14.0,12.0,2.0,2.0,-7.0,47.0,0.0
-48.0,-65.0,-38.0,-62.0,0.0,40.0,33.0,17.0,2.0,81.0,0.0
-34.0,-68.0,-15.0,-26.0,13.0,45.0,45.0,32.0,30.0,75.0,0.0
-19.0,-61.0,0.0,-5.0,36.0,63.0,67.0,45.0,42.0,-51.0,0.0
-29.0,-56.0,-8.0,-23.0,41.0,80.0,101.0,71.0,58.0,-155.0,0.0
-51.0,-48.0,4.0,-52.0,30.0,81.0,98.0,72.0,59.0,-203.0,0.0
-60.0,-46.0,35.0,-42.0,36.0,60.0,78.0,56.0,51.0,-247.0,0.0
-39.0,-44.0,51.0,-19.0,28.0,33.0,54.0,25.0,28.0,-187.0,0.0
-2.0,-21.0,54.0,-5.0,21.0,8.0,21.0,1.0,8.0,-96.0,0.0
24.0,2.0,57.0,1.0,21.0,-5.0,-4.0,0.0,0.0,-58.0,0.0
32.0,20.0,57.0,8.0,20.0,-9.0,-13.0,-2.0,13.0,-29.0,0.0
29.0,49.0,47.0,31.0,9.0,-22.0,-20.0,-18.0,15.0,-18.0,0.0
22.0,58.0,29.0,41.0,0.0,-22.0,-14.0,-23.0,9.0,-9.0,0.0
9.0,35.0,12.0,21.0,11.0,6.0,1.0,-13.0,3.0,0.0,0.0
-10.0,7.0,-21.0,8.0,25.0,38.0,25.0,7.0,10.0,0.0,0.0
-11.0,3.0,-33.0,12.0,31.0,47.0,18.0,12.0,-1.0,3.0,0.0
6.0,10.0,-13.0,30.0,31.0,40.0,-2.0,-5.0,-10.0,-7.0,0.0
14.0,23.0,8.0,39.0,25.0,22.0,-19.0,-29.0,-18.0,4.0,0.0
10.0,22.0,16.0,36.0,21.0,-8.0,-24.0,-51.0,-28.0,39.0,0.0
18.0,-1.0,-2.0,24.0,21.0,-20.0,-31.0,-57.0,-38.0,72.0,0.0
28.0,-15.0,-18.0,2.0,16.0,-14.0,-26.0,-39.0,-40.0,91.0,0.0
19.0,-16.0,-22.0,-18.0,9.0,-16.0,-28.0,-32.0,-32.0,118.0,0.0
25.0,-39.0,-41.0,-44.0,-3.0,-29.0,-38.0,-31.0,-23.0,157.0,0.0
23.0,-59.0,-90.0,-76.0,-12.0,-37.0,-20.0,-22.0,-11.0,174.0,0.0
19.0,-54.0,-120.0,-85.0,-12.0,-25.0,-13.0,-11.0,6.0,161.0,0.0
23.0,-32.0,-123.0,-60.0,-5.0,4.0,-2.0,8.0,16.0,113.0,0.0
-5.0,-18.0,-92.0,-29.0,8.0,25.0,12.0,22.0,28.0,-6.0,0.0
-28.0,0.0,-19.0,9.0,26.0,31.0,16.0,27.0,1.0,-169.0,0.0
-30.0,28.0,23.0,41.0,26.0,13.0,-6.0,21.0,-28.0,-234.0,0.0
-56.0,61.0,38.0,58.0,33.0,4.0,-16.0,0.0,-48.0,-240.0,0.0
-91.0,88.0,85.0,84.0,42.0,11.0,-24.0,-18.0,-58.0,-258.0,0.0
-114.0,83.0,113.0,79.0,29.0,0.0,-25.0,-32.0,-58.0,-233.0,0.0
-102.0,35.0,49.0,31.0,7.0,-19.0,-25.0,-39.0,-56.0,-117.0,0.0
-15.0,7.0,6.0,2.0,4.0,-8.0,-20.0,-28.0,-28.0,34.0,0.0
74.0,-6.0,0.0,7.0,15.0,0.0,-10.0,-12.0,8.0,90.0,0.0
60.0,-58.0,-9.0,-5.0,9.0,3.0,-3.0,4.0,28.0,102.0,1.0
32.0,-62.0,-20.0,-28.0,0.0,12.0,15.0,23.0,54.0,129.0,1.0
40.0,14.0,-13.0,-24.0,-1.0,21.0,40.0,41.0,54.0,101.0,1.0
29.0,67.0,-12.0,-21.0,4.0,21.0,39.0,28.0,39.0,55.0,1.0
16.0,64.0,-10.0,-24.0,16.0,18.0,23.0,22.0,36.0,37.0,1.0
11.0,14.0,-28.0,-7.0,22.0,19.0,27.0,29.0,42.0,41.0,1.0
18.0,-29.0,-52.0,1.0,9.0,19.0,20.0,18.0,40.0,36.0,1.0
21.0,-45.0,-48.0,1.0,5.0,7.0,-2.0,-8.0,22.0,26.0,1.0
25.0,-53.0,-19.0,5.0,-10.0,-13.0,-12.0,-14.0,-1.0,15.0,1.0
26.0,-58.0,1.0,3.0,-12.0,-19.0,-12.0,-18.0,0.0,15.0,1.0
12.0,-55.0,12.0,0.0,-7.0,-33.0,-11.0,-13.0,2.0,24.0,1.0
7.0,-37.0,30.0,11.0,-7.0,-49.0,-21.0,-24.0,-1.0,16.0,1.0
11.0,-9.0,48.0,31.0,-4.0,-45.0,-17.0,-28.0,-11.0,16.0,1.0
14.0,7.0,44.0,30.0,10.0,-35.0,-12.0,-26.0,-17.0,33.0,1.0
10.0,19.0,38.0,33.0,24.0,-22.0,1.0,-15.0,-13.0,48.0,1.0
2.0,14.0,34.0,40.0,31.0,-20.0,6.0,-15.0,-19.0,43.0,1.0
0.0,-28.0,24.0,41.0,30.0,-28.0,-8.0,-28.0,-34.0,12.0,1.0
5.0,-53.0,-3.0,15.0,18.0,-28.0,-26.0,-38.0,-22.0,-11.0,1.0
18.0,-27.0,-17.0,4.0,8.0,-27.0,-31.0,-32.0,-6.0,17.0,0.0
34.0,1.0,-45.0,0.0,-1.0,-11.0,-26.0,-25.0,3.0,31.0,0.0
29.0,12.0,-65.0,-21.0,-16.0,-16.0,-14.0,-30.0,4.0,0.0,0.0
7.0,9.0,-64.0,-40.0,-31.0,-24.0,-15.0,-36.0,-3.0,-4.0,0.0
-25.0,-11.0,-53.0,-61.0,-48.0,-32.0,-25.0,-48.0,-37.0,17.0,0.0
-30.0,-23.0,-24.0,-60.0,-49.0,-41.0,-27.0,-40.0,-49.0,42.0,0.0
-1.0,-2.0,41.0,-23.0,-23.0,-36.0,-16.0,-8.0,-24.0,4.0,0.0
15.0,32.0,106.0,27.0,10.0,-18.0,2.0,23.0,6.0,-13.0,0.0
4.0,28.0,95.0,43.0,11.0,-6.0,11.0,17.0,7.0,74.0,0.0
-1.0,41.0,27.0,31.0,-1.0,-13.0,9.0,-3.0,1.0,99.0,0.0
0.0,80.0,9.0,27.0,8.0,-3.0,15.0,-1.0,-5.0,76.0,0.0
11.0,119.0,36.0,32.0,24.0,23.0,57.0,24.0,12.0,-19.0,0.0
3.0,103.0,71.0,39.0,36.0,38.0,65.0,39.0,17.0,-60.0,0.0
0.0,56.0,97.0,41.0,40.0,37.0,55.0,32.0,16.0,0.0,0.0
2.0,0.0,81.0,30.0,45.0,36.0,63.0,34.0,21.0,20.0,0.0
16.0,-53.0,33.0,26.0,54.0,38.0,77.0,50.0,33.0,-40.0,0.0
7.0,-73.0,2.0,25.0,51.0,47.0,87.0,66.0,39.0,-121.0,0.0
-16.0,-88.0,-35.0,2.0,40.0,35.0,92.0,60.0,30.0,-155.0,0.0
-33.0,-96.0,-58.0,-22.0,25.0,20.0,69.0,44.0,27.0,-161.0,0.0
-11.0,-81.0,-59.0,-32.0,7.0,5.0,39.0,34.0,29.0,-104.0,0.0
1.0,-73.0,-42.0,-38.0,10.0,0.0,29.0,26.0,21.0,-31.0,0.0
1.0,-77.0,-30.0,-43.0,17.0,0.0,15.0,21.0,17.0,-6.0,0.0
1.0,-57.0,-10.0,-36.0,10.0,-8.0,5.0,7.0,9.0,-13.0,0.0
8.0,-27.0,2.0,-25.0,0.0,-10.0,0.0,4.0,2.0,-7.0,0.0
14.0,-32.0,5.0,-24.0,-3.0,-1.0,1.0,11.0,0.0,-19.0,0.0
24.0,-34.0,22.0,-18.0,1.0,-3.0,0.0,7.0,3.0,-26.0,0.0
18.0,-14.0,30.0,-10.0,2.0,0.0,1.0,0.0,2.0,-26.0,0.0
2.0,-23.0,19.0,-22.0,-6.0,0.0,4.0,-2.0,-6.0,-24.0,0.0
-13.0,-41.0,4.0,-36.0,-9.0,0.0,8.0,-7.0,-8.0,-26.0,0.0
-26.0,-43.0,-14.0,-45.0,-18.0,-4.0,-4.0,-12.0,-7.0,-4.0,0.0
-14.0,-30.0,-28.0,-53.0,-25.0,-17.0,-25.0,-11.0,-4.0,69.0,0.0
6.0,-47.0,-43.0,-50.0,-37.0,0.0,-31.0,0.0,10.0,167.0,0.0
6.0,-50.0,-64.0,-46.0,-47.0,13.0,-13.0,3.0,7.0,226.0,0.0
2.0,-30.0,-39.0,-21.0,-32.0,8.0,-3.0,2.0,-9.0,229.0,0.0
9.0,-7.0,-21.0,5.0,-10.0,1.0,-14.0,5.0,-3.0,223.0,0.0
25.0,15.0,2.0,31.0,10.0,3.0,-13.0,12.0,13.0,133.0,0.0
41.0,52.0,29.0,46.0,31.0,22.0,10.0,27.0,19.0,-88.0,0.0
36.0,67.0,44.0,48.0,48.0,46.0,19.0,29.0,4.0,-204.0,0.0
8.0,55.0,39.0,52.0,43.0,41.0,16.0,20.0,-3.0,-209.0,0.0
-32.0,19.0,23.0,40.0,21.0,29.0,14.0,14.0,-3.0,-247.0,0.0
-59.0,-23.0,-9.0,15.0,-6.0,26.0,10.0,4.0,0.0,-262.0,0.0
-60.0,-41.0,-42.0,-1.0,-29.0,14.0,10.0,11.0,7.0,-146.0,0.0
-48.0,-39.0,-55.0,-25.0,-49.0,-2.0,-12.0,-2.0,12.0,16.0,0.0
-31.0,-31.0,-45.0,-29.0,-46.0,-4.0,-31.0,-18.0,0.0,53.0,0.0
-28.0,-16.0,-26.0,-15.0,-40.0,-10.0,-16.0,-12.0,-3.0,49.0,0.0
-26.0,0.0,-31.0,-5.0,-30.0,-11.0,-12.0,10.0,7.0,62.0,0.0
-19.0,-4.0,-43.0,-10.0,-21.0,-7.0,-10.0,6.0,6.0,63.0,0.0
-13.0,-10.0,-39.0,-2.0,-19.0,-12.0,-14.0,-6.0,0.0,56.0,0.0
-11.0,-2.0,-30.0,11.0,-21.0,-10.0,-14.0,-19.0,-14.0,48.0,0.0
0.0,6.0,-23.0,2.0,-20.0,-4.0,-18.0,-18.0,-23.0,55.0,0.0
2.0,20.0,-24.0,-1.0,-25.0,-6.0,-25.0,-21.0,-12.0,61.0,0.0
-3.0,32.0,-17.0,4.0,-25.0,-11.0,-21.0,-25.0,-1.0,42.0,0.0
-6.0,45.0,-13.0,9.0,-20.0,-9.0,-12.0,-11.0,8.0,12.0,0.0
-11.0,37.0,-13.0,12.0,-16.0,3.0,-10.0,-6.0,9.0,7.0,0.0
-14.0,32.0,-7.0,12.0,-5.0,7.0,-2.0,-12.0,2.0,26.0,0.0
-3.0,16.0,3.0,24.0,-3.0,11.0,1.0,-12.0,4.0,26.0,0.0
0.0,-36.0,22.0,31.0,-5.0,-2.0,-4.0,-17.0,-9.0,21.0,0.0
4.0,-16.0,44.0,28.0,-5.0,-10.0,-21.0,-21.0,-24.0,-10.0,0.0
3.0,58.0,25.0,17.0,-6.0,-9.0,-27.0,-21.0,-34.0,-45.0,0.0
4.0,114.0,4.0,-4.0,-15.0,-19.0,-12.0,-9.0,-30.0,-65.0,0.0
-2.0,132.0,11.0,-10.0,-15.0,-33.0,-20.0,-9.0,-21.0,-97.0,0.0
1.0,100.0,27.0,9.0,-15.0,-44.0,-40.0,6.0,-24.0,-70.0,0.0
-8.0,46.0,27.0,5.0,-15.0,-48.0,-45.0,2.0,-17.0,-40.0,0.0
-39.0,7.0,37.0,3.0,-19.0,-37.0,-42.0,-2.0,-12.0,-9.0,0.0
-58.0,-33.0,20.0,3.0,-14.0,-16.0,-10.0,0.0,-4.0,20.0,0.0
-44.0,-56.0,-22.0,-19.0,1.0,11.0,7.0,20.0,-13.0,15.0,0.0
-24.0,-51.0,-23.0,-26.0,3.0,12.0,-5.0,21.0,-18.0,36.0,0.0
-7.0,-36.0,3.0,-23.0,4.0,5.0,-7.0,17.0,-13.0,100.0,0.0
0.0,-23.0,11.0,-27.0,-5.0,-3.0,-10.0,11.0,-7.0,139.0,0.0
-17.0,-52.0,-3.0,-43.0,-28.0,-34.0,-39.0,-24.0,-10.0,88.0,0.0
-62.0,-79.0,-24.0,-50.0,-57.0,-78.0,-87.0,-75.0,-54.0,-15.0,0.0
-88.0,-73.0,-3.0,-22.0,-64.0,-97.0,-109.0,-88.0,-70.0,-133.0,0.0
-83.0,-84.0,-8.0,-14.0,-65.0,-94.0,-104.0,-84.0,-66.0,-166.0,0.0
-80.0,-90.0,-30.0,-24.0,-55.0,-65.0,-84.0,-68.0,-61.0,-60.0,0.0
-56.0,-69.0,-32.0,-26.0,-37.0,-56.0,-59.0,-36.0,-41.0,86.0,0.0
-28.0,-39.0,-11.0,-1.0,-13.0,-33.0,-25.0,-6.0,-19.0,181.0,0.0
27.0,-5.0,44.0,44.0,39.0,10.0,32.0,27.0,14.0,235.0,0.0
119.0,41.0,85.0,71.0,69.0,39.0,53.0,51.0,39.0,181.0,0.0
139.0,77.0,90.0,83.0,71.0,59.0,67.0,62.0,45.0,-25.0,0.0
97.0,67.0,62.0,64.0,64.0,77.0,84.0,68.0,48.0,-99.0,0.0
54.0,30.0,35.0,28.0,51.0,75.0,73.0,52.0,30.0,-45.0,0.0
31.0,-8.0,34.0,13.0,46.0,69.0,55.0,38.0,32.0,-3.0,0.0
19.0,-1.0,29.0,26.0,58.0,66.0,64.0,42.0,59.0,0.0,0.0
11.0,18.0,30.0,30.0,68.0,64.0,70.0,61.0,63.0,-75.0,0.0
-10.0,11.0,18.0,14.0,43.0,45.0,53.0,48.0,28.0,-142.0,0.0
-37.0,-15.0,-5.0,-11.0,10.0,16.0,25.0,8.0,-9.0,-106.0,0.0
-15.0,10.0,6.0,-5.0,10.0,-2.0,-1.0,-12.0,-10.0,-54.0,0.0
2.0,55.0,42.0,19.0,13.0,-1.0,-12.0,-30.0,-29.0,-38.0,0.0
0.0,41.0,53.0,22.0,3.0,-20.0,-29.0,-39.0,-47.0,-50.0,0.0
-2.0,18.0,22.0,7.0,-8.0,-43.0,-49.0,-47.0,-46.0,-51.0,0.0
12.0,12.0,-16.0,-6.0,-28.0,-56.0,-64.0,-45.0,-44.0,26.0,0.0
16.0,-9.0,-65.0,-44.0,-46.0,-70.0,-81.0,-49.0,-45.0,153.0,0.0
32.0,-28.0,-77.0,-70.0,-45.0,-77.0,-75.0,-55.0,-41.0,252.0,0.0
34.0,-46.0,-66.0,-88.0,-35.0,-63.0,-63.0,-55.0,-34.0,276.0,0.0
21.0,-69.0,-66.0,-78.0,-31.0,-52.0,-41.0,-52.0,-26.0,251.0,0.0
21.0,-56.0,-49.0,-44.0,-13.0,-29.0,-26.0,-32.0,12.0,222.0,0.0
29.0,-3.0,-2.0,1.0,14.0,12.0,0.0,-1.0,39.0,152.0,0.0
17.0,49.0,58.0,34.0,45.0,60.0,39.0,42.0,65.0,-3.0,0.0
-10.0,29.0,62.0,54.0,65.0,59.0,50.0,53.0,57.0,-92.0,0.0
-44.0,6.0,60.0,73.0,73.0,57.0,44.0,51.0,36.0,-186.0,0.0
-54.0,21.0,82.0,88.0,75.0,52.0,33.0,27.0,3.0,-234.0,0.0
-44.0,15.0,67.0,87.0,55.0,26.0,19.0,0.0,-27.0,-209.0,0.0
-22.0,10.0,53.0,67.0,25.0,8.0,12.0,-6.0,-33.0,-198.0,0.0
-17.0,23.0,27.0,39.0,15.0,0.0,17.0,-1.0,-13.0,-190.0,0.0
-9.0,41.0,5.0,14.0,14.0,0.0,20.0,-14.0,-8.0,-137.0,0.0
3.0,72.0,5.0,3.0,8.0,0.0,8.0,-15.0,-13.0,-79.0,0.0
11.0,110.0,21.0,0.0,0.0,-7.0,-8.0,-14.0,-4.0,-51.0,0.0
17.0,114.0,22.0,18.0,5.0,-6.0,-16.0,-8.0,-4.0,-25.0,0.0
18.0,79.0,-8.0,-2.0,0.0,-14.0,-9.0,-6.0,-3.0,-7.0,0.0
12.0,22.0,-36.0,-36.0,-9.0,-3.0,10.0,6.0,13.0,23.0,0.0
7.0,-17.0,-41.0,-37.0,-8.0,22.0,31.0,19.0,30.0,73.0,0.0
1.0,-23.0,-43.0,-25.0,-4.0,39.0,44.0,31.0,44.0,82.0,0.0
3.0,-37.0,-54.0,-28.0,-16.0,38.0,39.0,47.0,47.0,71.0,0.0
-15.0,-41.0,-43.0,-51.0,-23.0,28.0,28.0,44.0,40.0,40.0,0.0
-29.0,-61.0,-21.0,-36.0,-14.0,19.0,13.0,17.0,21.0,19.0,0.0
-15.0,-92.0,-3.0,-34.0,-13.0,-2.0,-11.0,6.0,0.0,45.0,0.0
-1.0,-33.0,5.0,-47.0,-26.0,-16.0,-28.0,-5.0,-12.0,79.0,0.0
4.0,53.0,-5.0,-45.0,-29.0,-23.0,-34.0,0.0,-4.0,107.0,0.0
0.0,83.0,-23.0,-35.0,-26.0,-26.0,-21.0,-2.0,-13.0,112.0,0.0
6.0,83.0,-50.0,-36.0,-24.0,-22.0,4.0,0.0,-6.0,112.0,0.0
7.0,55.0,-55.0,-43.0,-21.0,-6.0,21.0,-9.0,-3.0,108.0,0.0
-14.0,11.0,-36.0,-38.0,-11.0,0.0,9.0,-13.0,-10.0,64.0,0.0
-16.0,-37.0,-41.0,-14.0,-5.0,0.0,-4.0,-13.0,-15.0,13.0,0.0
-29.0,-54.0,-50.0,0.0,5.0,15.0,20.0,1.0,4.0,-77.0,0.0
-38.0,-35.0,-31.0,13.0,14.0,21.0,27.0,21.0,12.0,-194.0,0.0
-17.0,-14.0,7.0,22.0,25.0,4.0,12.0,26.0,-3.0,-179.0,0.0
5.0,-24.0,25.0,20.0,24.0,-6.0,3.0,1.0,-6.0,-48.0,0.0
11.0,-44.0,22.0,17.0,24.0,-2.0,-17.0,-3.0,-1.0,11.0,0.0
1.0,-55.0,-7.0,-5.0,27.0,11.0,-18.0,-4.0,-2.0,0.0,0.0
-2.0,-47.0,-19.0,-16.0,21.0,8.0,-7.0,0.0,-8.0,1.0,0.0
-6.0,-49.0,-33.0,-21.0,4.0,11.0,1.0,6.0,-6.0,26.0,0.0
-11.0,-42.0,-25.0,-17.0,-7.0,9.0,2.0,20.0,17.0,47.0,0.0
-18.0,-28.0,-11.0,-5.0,-9.0,-1.0,-5.0,26.0,29.0,53.0,0.0
-19.0,-19.0,2.0,4.0,-14.0,-27.0,-34.0,4.0,5.0,36.0,0.0
-21.0,-9.0,36.0,2.0,-6.0,-37.0,-65.0,-27.0,-37.0,13.0,0.0
-34.0,-15.0,53.0,8.0,3.0,-35.0,-79.0,-39.0,-53.0,-12.0,0.0
-28.0,-6.0,42.0,-4.0,10.0,-30.0,-81.0,-27.0,-43.0,-34.0,0.0
-12.0,6.0,18.0,-12.0,9.0,-22.0,-54.0,-9.0,-29.0,-47.0,0.0
-1.0,23.0,20.0,-6.0,18.0,-12.0,-32.0,5.0,-19.0,-50.0,0.0
6.0,34.0,12.0,9.0,28.0,1.0,1.0,14.0,-6.0,-34.0,0.0
4.0,43.0,5.0,17.0,26.0,9.0,17.0,15.0,-14.0,-16.0,0.0
11.0,64.0,6.0,28.0,33.0,17.0,15.0,28.0,-11.0,-78.0,0.0
7.0,68.0,-21.0,9.0,24.0,3.0,10.0,31.0,3.0,-114.0,0.0
-1.0,33.0,-59.0,-19.0,13.0,-17.0,-7.0,14.0,5.0,-60.0,0.0
-15.0,-14.0,-64.0,-25.0,10.0,4.0,4.0,15.0,7.0,-36.0,0.0
-20.0,-66.0,-67.0,-34.0,8.0,20.0,17.0,12.0,-8.0,-38.0,0.0
-12.0,-96.0,-67.0,-37.0,-7.0,9.0,12.0,9.0,-24.0,22.0,0.0
-5.0,-72.0,-49.0,-42.0,-13.0,-6.0,-8.0,-1.0,-12.0,90.0,0.0
1.0,-57.0,-33.0,-30.0,-7.0,-14.0,-14.0,8.0,13.0,132.0,0.0
8.0,-64.0,-26.0,-17.0,-5.0,-1.0,-13.0,18.0,34.0,187.0,0.0
10.0,-59.0,-23.0,-12.0,5.0,7.0,-1.0,21.0,29.0,212.0,0.0
5.0,-37.0,2.0,2.0,19.0,13.0,3.0,29.0,14.0,174.0,0.0
0.0,-13.0,48.0,26.0,34.0,26.0,-5.0,34.0,12.0,41.0,0.0
19.0,-3.0,73.0,24.0,49.0,42.0,4.0,48.0,29.0,-131.0,0.0
15.0,-11.0,69.0,19.0,46.0,47.0,19.0,45.0,33.0,-184.0,0.0
4.0,-13.0,39.0,10.0,24.0,34.0,19.0,30.0,38.0,-113.0,0.0
-7.0,-14.0,21.0,6.0,11.0,32.0,2.0,27.0,29.0,-51.0,0.0
-9.0,-14.0,28.0,-5.0,16.0,20.0,13.0,7.0,5.0,-36.0,0.0
-12.0,0.0,30.0,-11.0,14.0,7.0,9.0,-10.0,8.0,-44.0,0.0
-8.0,10.0,21.0,10.0,12.0,-2.0,-3.0,-27.0,8.0,-47.0,0.0
-4.0,27.0,2.0,4.0,4.0,-16.0,-16.0,-26.0,-8.0,-52.0,0.0
7.0,35.0,-6.0,-17.0,1.0,-25.0,-22.0,-27.0,-12.0,-44.0,0.0
17.0,42.0,-1.0,-12.0,-8.0,-45.0,-20.0,-36.0,-6.0,-30.0,0.0
-1.0,53.0,0.0,2.0,-15.0,-50.0,-15.0,-44.0,-8.0,-44.0,0.0
-5.0,53.0,0.0,-20.0,-33.0,-57.0,-33.0,-60.0,-12.0,-30.0,0.0
25.0,34.0,19.0,-27.0,-43.0,-56.0,-45.0,-57.0,-13.0,68.0,0.0
68.0,40.0,30.0,-11.0,-22.0,-45.0,-39.0,-54.0,10.0,147.0,0.0
140.0,56.0,28.0,-6.0,-17.0,-60.0,-44.0,-68.0,-8.0,194.0,0.0
175.0,47.0,0.0,-30.0,-39.0,-87.0,-80.0,-96.0,-40.0,273.0,0.0
129.0,46.0,-11.0,-27.0,-33.0,-95.0,-68.0,-88.0,-42.0,298.0,0.0
91.0,52.0,0.0,-14.0,-21.0,-87.0,-58.0,-55.0,-20.0,316.0,0.0
86.0,46.0,27.0,2.0,0.0,-47.0,-46.0,-25.0,-1.0,299.0,0.0
64.0,37.0,48.0,22.0,33.0,0.0,-11.0,5.0,28.0,123.0,0.0
8.0,19.0,47.0,40.0,46.0,30.0,25.0,24.0,46.0,-27.0,0.0
-37.0,-3.0,50.0,55.0,57.0,62.0,69.0,49.0,38.0,-160.0,0.0
-72.0,-30.0,65.0,49.0,49.0,66.0,77.0,42.0,13.0,-225.0,0.0
-103.0,-80.0,70.0,39.0,30.0,37.0,41.0,27.0,11.0,-225.0,0.0
-103.0,-66.0,68.0,26.0,28.0,27.0,37.0,46.0,23.0,-259.0,0.0
-92.0,-13.0,44.0,26.0,35.0,57.0,61.0,70.0,27.0,-320.0,0.0
-60.0,18.0,8.0,27.0,48.0,75.0,60.0,70.0,26.0,-272.0,0.0
-17.0,31.0,16.0,22.0,51.0,69.0,40.0,61.0,22.0,-179.0,0.0
18.0,34.0,21.0,20.0,47.0,51.0,16.0,49.0,32.0,-152.0,0.0
5.0,20.0,4.0,-4.0,18.0,23.0,-10.0,25.0,9.0,-151.0,0.0
-36.0,-16.0,-23.0,-37.0,-22.0,-12.0,-21.0,-7.0,-21.0,-97.0,0.0
-34.0,-37.0,-31.0,-60.0,-34.0,-27.0,-34.0,-24.0,-34.0,-21.0,0.0
-10.0,-29.0,-17.0,-43.0,-25.0,-26.0,-16.0,-21.0,-19.0,24.0,0.0
13.0,-20.0,3.0,-13.0,-11.0,-11.0,-9.0,-8.0,-14.0,46.0,0.0
31.0,-26.0,13.0,-2.0,1.0,3.0,-1.0,-5.0,-13.0,74.0,0.0
39.0,-49.0,-1.0,-2.0,0.0,10.0,11.0,-2.0,-2.0,94.0,0.0
47.0,2.0,-11.0,-10.0,3.0,1.0,27.0,0.0,0.0,85.0,0.0
25.0,74.0,-20.0,-20.0,2.0,3.0,32.0,6.0,14.0,61.0,0.0
10.0,104.0,-23.0,-9.0,3.0,22.0,35.0,15.0,20.0,30.0,0.0
26.0,97.0,-7.0,2.0,1.0,27.0,18.0,7.0,3.0,-20.0,0.0
31.0,77.0,0.0,0.0,-15.0,1.0,-1.0,-5.0,-17.0,-9.0,0.0
18.0,53.0,-3.0,-9.0,-37.0,-33.0,-19.0,-20.0,-29.0,43.0,0.0
26.0,9.0,-10.0,-10.0,-34.0,-43.0,-23.0,-22.0,-8.0,65.0,0.0
17.0,-10.0,-6.0,7.0,-16.0,-31.0,-20.0,-13.0,0.0,13.0,0.0
6.0,-16.0,22.0,31.0,3.0,-9.0,-3.0,6.0,0.0,-74.0,0.0
10.0,-9.0,25.0,44.0,15.0,-1.0,3.0,12.0,1.0,-101.0,0.0
11.0,-9.0,15.0,45.0,17.0,9.0,1.0,8.0,0.0,-39.0,0.0
8.0,-13.0,9.0,38.0,9.0,22.0,14.0,3.0,-6.0,10.0,0.0
-2.0,-25.0,-1.0,23.0,5.0,33.0,25.0,1.0,-2.0,26.0,0.0
0.0,-19.0,2.0,22.0,8.0,17.0,11.0,-5.0,-3.0,37.0,0.0
7.0,4.0,7.0,23.0,0.0,0.0,2.0,-16.0,-6.0,43.0,0.0
16.0,8.0,6.0,23.0,0.0,-12.0,-9.0,-28.0,-5.0,36.0,0.0
21.0,-3.0,10.0,30.0,8.0,-17.0,-8.0,-25.0,-8.0,10.0,0.0
22.0,-5.0,11.0,21.0,7.0,-16.0,-8.0,-17.0,-16.0,-36.0,0.0
23.0,0.0,21.0,3.0,3.0,-25.0,-6.0,-17.0,-16.0,-72.0,0.0
4.0,-19.0,3.0,13.0,-9.0,-49.0,-30.0,-20.0,-10.0,-97.0,0.0
-42.0,-48.0,-37.0,3.0,-25.0,-40.0,-31.0,-7.0,-11.0,-78.0,0.0
-49.0,-50.0,-60.0,-21.0,-29.0,-28.0,-18.0,0.0,-3.0,-34.0,0.0
-40.0,-47.0,-83.0,-28.0,-32.0,-17.0,-12.0,-3.0,7.0,30.0,0.0
-32.0,-45.0,-85.0,-33.0,-43.0,-9.0,-11.0,-7.0,0.0,103.0,0.0
-11.0,-28.0,-48.0,-28.0,-29.0,0.0,-10.0,-2.0,3.0,170.0,0.0
-4.0,-8.0,-31.0,-4.0,-5.0,12.0,4.0,-2.0,2.0,159.0,0.0
-9.0,14.0,-13.0,28.0,11.0,18.0,19.0,6.0,5.0,59.0,0.0
13.0,49.0,-1.0,46.0,20.0,17.0,33.0,28.0,14.0,-99.0,0.0
34.0,85.0,9.0,57.0,29.0,21.0,36.0,40.0,26.0,-209.0,0.0
44.0,105.0,19.0,48.0,30.0,-4.0,21.0,26.0,15.0,-147.0,0.0
51.0,103.0,42.0,45.0,-3.0,-24.0,-2.0,4.0,7.0,-39.0,0.0
58.0,90.0,55.0,52.0,-10.0,-30.0,-23.0,-15.0,-1.0,35.0,0.0
31.0,66.0,46.0,39.0,-7.0,-35.0,-23.0,-14.0,-1.0,63.0,0.0
0.0,41.0,11.0,34.0,9.0,-11.0,2.0,-1.0,6.0,45.0,0.0
-17.0,25.0,-24.0,15.0,23.0,15.0,27.0,13.0,10.0,11.0,0.0
-27.0,-7.0,-25.0,-6.0,12.0,23.0,46.0,0.0,4.0,-18.0,0.0
-27.0,-48.0,-28.0,-15.0,6.0,33.0,53.0,7.0,7.0,-24.0,0.0
-35.0,-72.0,-37.0,-9.0,5.0,36.0,49.0,15.0,16.0,-15.0,0.0
-31.0,-60.0,-30.0,-8.0,3.0,30.0,38.0,20.0,10.0,-1.0,0.0
-15.0,-28.0,-20.0,-14.0,-6.0,11.0,22.0,5.0,8.0,9.0,0.0
-7.0,-12.0,-15.0,-16.0,-5.0,5.0,12.0,0.0,10.0,63.0,0.0
7.0,-14.0,-13.0,-25.0,3.0,5.0,0.0,4.0,11.0,123.0,0.0
31.0,-5.0,-36.0,-45.0,4.0,16.0,1.0,6.0,20.0,155.0,0.0
37.0,-6.0,-57.0,-41.0,11.0,28.0,15.0,31.0,31.0,100.0,0.0
24.0,-17.0,-58.0,-27.0,22.0,35.0,28.0,42.0,29.0,73.0,0.0
7.0,-27.0,-63.0,-31.0,0.0,21.0,17.0,40.0,17.0,83.0,0.0
-12.0,-57.0,-51.0,-53.0,-42.0,6.0,-1.0,16.0,-1.0,81.0,0.0
-29.0,-103.0,-28.0,-62.0,-43.0,1.0,-3.0,5.0,-1.0,66.0,0.0
-44.0,-117.0,-29.0,-40.0,-20.0,14.0,16.0,21.0,3.0,15.0,0.0
-33.0,-74.0,-21.0,-25.0,-4.0,40.0,33.0,32.0,11.0,-71.0,0.0
-43.0,-66.0,36.0,-24.0,-34.0,-47.0,-102.0,-78.0,-199.0,-226.0,0.0
-45.0,-51.0,44.0,-15.0,-25.0,-47.0,-108.0,-70.0,-184.0,-387.0,0.0
-34.0,-14.0,51.0,3.0,-18.0,-14.0,-73.0,-26.0,-97.0,-422.0,0.0
-19.0,-14.0,35.0,-3.0,-31.0,-28.0,-97.0,-26.0,-97.0,-210.0,0.0
9.0,2.0,18.0,-3.0,-35.0,-23.0,-78.0,-31.0,-33.0,89.0,0.0
41.0,43.0,-3.0,-3.0,-43.0,2.0,-39.0,-7.0,39.0,268.0,0.0
50.0,69.0,7.0,15.0,-18.0,23.0,-1.0,3.0,49.0,210.0,0.0
42.0,99.0,21.0,49.0,15.0,46.0,33.0,36.0,66.0,34.0,0.0
37.0,108.0,20.0,44.0,28.0,69.0,50.0,51.0,84.0,-21.0,0.0
36.0,96.0,39.0,48.0,41.0,99.0,65.0,55.0,96.0,-37.0,0.0
51.0,58.0,50.0,65.0,47.0,112.0,83.0,67.0,101.0,-27.0,0.0
54.0,71.0,59.0,72.0,43.0,87.0,62.0,46.0,71.0,-54.0,0.0
42.0,143.0,80.0,77.0,20.0,55.0,31.0,14.0,33.0,-56.0,0.0
35.0,211.0,105.0,78.0,6.0,38.0,2.0,-4.0,9.0,-20.0,0.0
35.0,205.0,112.0,74.0,0.0,24.0,-23.0,-13.0,12.0,12.0,0.0
24.0,138.0,100.0,48.0,-8.0,12.0,-29.0,-20.0,22.0,27.0,0.0
6.0,64.0,74.0,-5.0,-10.0,0.0,-24.0,-29.0,20.0,63.0,0.0
0.0,-5.0,36.0,-23.0,-25.0,-12.0,-26.0,-24.0,15.0,75.0,0.0
-20.0,-69.0,-30.0,-43.0,-48.0,-11.0,-17.0,-18.0,19.0,66.0,0.0
-38.0,-100.0,-80.0,-72.0,-52.0,5.0,-6.0,-16.0,15.0,63.0,0.0
-41.0,-120.0,-85.0,-86.0,-60.0,11.0,-13.0,-17.0,8.0,84.0,0.0
-49.0,-127.0,-76.0,-99.0,-63.0,0.0,-18.0,-11.0,19.0,97.0,0.0
-49.0,-132.0,-82.0,-104.0,-56.0,8.0,-5.0,-5.0,27.0,95.0,0.0
-58.0,-128.0,-92.0,-84.0,-50.0,20.0,5.0,-4.0,43.0,83.0,0.0
-65.0,-116.0,-84.0,-69.0,-49.0,19.0,4.0,-2.0,44.0,52.0,0.0
-71.0,-96.0,-59.0,-46.0,-43.0,15.0,12.0,0.0,31.0,-2.0,0.0
-62.0,-63.0,-38.0,-20.0,-16.0,12.0,15.0,7.0,34.0,-26.0,0.0
-61.0,-43.0,-14.0,-5.0,4.0,11.0,12.0,16.0,23.0,-16.0,0.0
-58.0,-36.0,11.0,23.0,18.0,12.0,17.0,23.0,21.0,-13.0,0.0
-42.0,-36.0,17.0,23.0,15.0,17.0,15.0,15.0,21.0,-31.0,0.0
-18.0,-28.0,12.0,16.0,9.0,18.0,5.0,14.0,34.0,-20.0,0.0
-15.0,-29.0,-15.0,10.0,-1.0,13.0,1.0,-3.0,25.0,12.0,0.0
-19.0,-26.0,-19.0,-1.0,-12.0,13.0,-8.0,-12.0,13.0,3.0,0.0
-25.0,-27.0,-24.0,-19.0,-23.0,-10.0,-23.0,-23.0,4.0,-26.0,0.0
-27.0,-28.0,-45.0,-30.0,-30.0,-20.0,-12.0,-27.0,6.0,-45.0,0.0
-23.0,-8.0,-57.0,-34.0,-26.0,-21.0,-13.0,-15.0,3.0,-36.0,0.0
-12.0,25.0,-40.0,-27.0,-14.0,-19.0,-16.0,-7.0,-6.0,12.0,0.0
-14.0,35.0,8.0,1.0,-20.0,-2.0,-10.0,-14.0,-11.0,66.0,0.0
-10.0,34.0,30.0,14.0,-22.0,4.0,-8.0,-8.0,-8.0,102.0,0.0
4.0,26.0,30.0,27.0,-19.0,6.0,3.0,8.0,19.0,126.0,0.0
5.0,6.0,35.0,39.0,-1.0,24.0,14.0,34.0,32.0,36.0,0.0
-7.0,-12.0,40.0,52.0,23.0,48.0,29.0,53.0,35.0,-137.0,0.0
12.0,-16.0,42.0,45.0,28.0,51.0,45.0,59.0,20.0,-175.0,0.0
41.0,6.0,26.0,29.0,22.0,42.0,38.0,47.0,18.0,-67.0,0.0
43.0,36.0,22.0,25.0,19.0,41.0,39.0,36.0,18.0,-20.0,0.0
37.0,61.0,4.0,20.0,17.0,45.0,38.0,55.0,15.0,-9.0,0.0
37.0,63.0,9.0,24.0,1.0,24.0,27.0,46.0,-2.0,3.0,0.0
30.0,36.0,20.0,20.0,-16.0,-6.0,-7.0,1.0,-20.0,31.0,0.0
15.0,23.0,16.0,14.0,-38.0,-33.0,-43.0,-34.0,-35.0,43.0,0.0
8.0,36.0,11.0,20.0,-41.0,-52.0,-51.0,-44.0,-35.0,11.0,0.0
-7.0,23.0,-18.0,11.0,-40.0,-53.0,-68.0,-54.0,-33.0,-15.0,0.0
-32.0,4.0,-35.0,8.0,-36.0,-31.0,-47.0,-51.0,-39.0,-29.0,0.0
-29.0,16.0,-34.0,18.0,-22.0,-20.0,-24.0,-41.0,-27.0,-10.0,0.0
-18.0,96.0,-1.0,10.0,-34.0,-19.0,-17.0,-14.0,-1.0,53.0,0.0
-1.0,111.0,5.0,5.0,-18.0,-17.0,-13.0,-18.0,-12.0,55.0,0.0
16.0,86.0,11.0,11.0,-6.0,-27.0,-32.0,-24.0,-50.0,14.0,0.0
4.0,0.0,-3.0,1.0,-16.0,-42.0,-70.0,-33.0,-112.0,-40.0,0.0
-16.0,-46.0,-29.0,-14.0,-29.0,-17.0,-31.0,-1.0,-16.0,-32.0,0.0
-26.0,-93.0,-41.0,-12.0,-34.0,-9.0,-10.0,19.0,9.0,3.0,0.0
-14.0,-93.0,-14.0,7.0,-22.0,-9.0,-8.0,30.0,-13.0,67.0,0.0
4.0,-65.0,5.0,22.0,-14.0,-4.0,13.0,40.0,30.0,158.0,0.0
25.0,-48.0,3.0,38.0,-3.0,5.0,25.0,40.0,51.0,182.0,0.0
26.0,-23.0,8.0,39.0,7.0,25.0,39.0,51.0,47.0,64.0,0.0
22.0,18.0,16.0,2.0,-20.0,-15.0,-5.0,-13.0,-24.0,13.0,0.0
26.0,-5.0,7.0,-21.0,-16.0,-44.0,-46.0,-41.0,-102.0,-11.0,0.0
14.0,-32.0,-7.0,-11.0,-11.0,-48.0,-67.0,-53.0,-139.0,-11.0,0.0
13.0,-22.0,-27.0,1.0,0.0,-19.0,-41.0,-31.0,-74.0,35.0,0.0
11.0,3.0,-19.0,6.0,13.0,27.0,0.0,-12.0,3.0,54.0,0.0
12.0,0.0,-4.0,21.0,24.0,37.0,7.0,-14.0,11.0,33.0,0.0
2.0,28.0,-30.0,11.0,29.0,24.0,-10.0,-17.0,39.0,56.0,0.0
-9.0,-23.0,-42.0,-19.0,9.0,2.0,-45.0,-39.0,-44.0,66.0,0.0
-8.0,-38.0,-39.0,-29.0,0.0,5.0,-47.0,-33.0,-89.0,56.0,0.0
-5.0,2.0,-16.0,-22.0,-6.0,13.0,-16.0,-14.0,-65.0,24.0,0.0
0.0,52.0,1.0,-13.0,-15.0,11.0,6.0,-6.0,-4.0,44.0,0.0
14.0,61.0,0.0,-10.0,7.0,29.0,22.0,0.0,21.0,37.0,0.0
39.0,-82.0,8.0,13.0,-6.0,-28.0,-17.0,-56.0,-5.0,-41.0,0.0
113.0,7.0,60.0,73.0,28.0,-10.0,9.0,-31.0,-2.0,-95.0,0.0
145.0,115.0,85.0,86.0,29.0,-1.0,1.0,-14.0,-16.0,-130.0,0.0
79.0,134.0,38.0,28.0,-4.0,-39.0,-43.0,-33.0,-75.0,-65.0,0.0
18.0,124.0,6.0,-6.0,-18.0,-43.0,-35.0,-31.0,-6.0,88.0,0.0
-31.0,90.0,17.0,9.0,-16.0,-27.0,-22.0,-15.0,34.0,194.0,0.0
-65.0,67.0,32.0,22.0,-5.0,-3.0,-20.0,-11.0,30.0,157.0,0.0
-66.0,61.0,64.0,31.0,22.0,10.0,-8.0,6.0,37.0,14.0,0.0
-50.0,32.0,72.0,26.0,22.0,16.0,11.0,18.0,36.0,-131.0,0.0
-41.0,-3.0,64.0,13.0,17.0,4.0,12.0,11.0,28.0,-85.0,0.0
-26.0,-27.0,53.0,11.0,15.0,-5.0,12.0,0.0,16.0,-25.0,0.0
-30.0,-46.0,39.0,13.0,18.0,0.0,11.0,-6.0,16.0,-9.0,0.0
-32.0,-64.0,15.0,17.0,25.0,29.0,20.0,10.0,32.0,-38.0,0.0
-33.0,-51.0,5.0,15.0,29.0,41.0,28.0,37.0,40.0,-84.0,0.0
-31.0,-45.0,0.0,3.0,15.0,27.0,35.0,36.0,45.0,-105.0,0.0
-42.0,-38.0,-7.0,3.0,-4.0,16.0,19.0,16.0,18.0,-105.0,0.0
-49.0,-48.0,-23.0,0.0,-12.0,5.0,-1.0,-5.0,-4.0,-73.0,0.0
-57.0,-46.0,-43.0,-22.0,-24.0,-7.0,-13.0,-19.0,-22.0,-14.0,0.0
-56.0,-35.0,-58.0,-45.0,-31.0,-13.0,-13.0,-18.0,-29.0,80.0,0.0
10.0,20.0,-29.0,-24.0,-34.0,-22.0,-38.0,-11.0,-28.0,262.0,0.0
19.0,45.0,3.0,0.0,-21.0,-29.0,-39.0,-5.0,-17.0,231.0,0.0
35.0,81.0,24.0,21.0,-1.0,-6.0,-21.0,0.0,3.0,112.0,0.0
36.0,45.0,46.0,28.0,12.0,-36.0,-68.0,-20.0,-119.0,-109.0,0.0
21.0,51.0,69.0,53.0,34.0,-39.0,-75.0,-22.0,-135.0,-196.0,0.0
21.0,92.0,72.0,87.0,49.0,11.0,-15.0,6.0,1.0,-160.0,0.0
-4.0,86.0,62.0,80.0,45.0,16.0,-2.0,1.0,5.0,-149.0,0.0
0.0,76.0,43.0,62.0,32.0,15.0,-9.0,-2.0,-3.0,-96.0,0.0
21.0,51.0,45.0,44.0,21.0,15.0,-12.0,-9.0,-2.0,-34.0,0.0
5.0,-2.0,55.0,30.0,11.0,11.0,1.0,-3.0,10.0,-15.0,0.0
-12.0,-48.0,8.0,1.0,-4.0,13.0,10.0,8.0,24.0,-41.0,0.0
-19.0,-82.0,-62.0,-32.0,-24.0,-1.0,0.0,6.0,40.0,-72.0,0.0
-14.0,-145.0,-135.0,-65.0,-28.0,4.0,-6.0,-3.0,23.0,-12.0,0.0
-11.0,-137.0,-118.0,-59.0,-24.0,0.0,-1.0,0.0,20.0,24.0,0.0
-25.0,-127.0,-100.0,-48.0,-13.0,5.0,15.0,5.0,-1.0,28.0,0.0
-52.0,-141.0,-87.0,-45.0,-11.0,-3.0,5.0,-12.0,-80.0,-8.0,0.0
-60.0,-99.0,-45.0,-26.0,-2.0,10.0,20.0,-5.0,-19.0,32.0,0.0
-45.0,-35.0,-12.0,-8.0,4.0,39.0,72.0,23.0,58.0,42.0,0.0
-28.0,-9.0,4.0,-12.0,8.0,54.0,90.0,53.0,75.0,-47.0,0.0
-11.0,-7.0,13.0,-9.0,9.0,64.0,95.0,65.0,79.0,-39.0,0.0
31.0,37.0,7.0,17.0,20.0,41.0,48.0,31.0,27.0,4.0,0.0
42.0,42.0,-3.0,22.0,17.0,27.0,42.0,23.0,18.0,2.0,0.0
42.0,29.0,-9.0,21.0,17.0,16.0,46.0,24.0,3.0,-10.0,0.0
20.0,16.0,-5.0,0.0,24.0,-3.0,27.0,14.0,-62.0,-87.0,0.0
16.0,45.0,-16.0,-8.0,21.0,11.0,50.0,23.0,-2.0,-113.0,0.0
10.0,47.0,-19.0,-9.0,0.0,2.0,43.0,19.0,28.0,-72.0,0.0
17.0,22.0,-28.0,-21.0,-14.0,-11.0,38.0,21.0,35.0,-27.0,0.0
32.0,32.0,-35.0,-20.0,-9.0,-20.0,37.0,15.0,55.0,6.0,0.0
54.0,75.0,-44.0,15.0,-3.0,-9.0,18.0,11.0,43.0,16.0,0.0
51.0,76.0,-31.0,45.0,11.0,-4.0,17.0,9.0,33.0,21.0,0.0
44.0,32.0,-10.0,49.0,18.0,-7.0,12.0,-7.0,-3.0,13.0,0.0
23.0,-27.0,-13.0,14.0,10.0,-45.0,2.0,-32.0,-83.0,-14.0,0.0
29.0,-14.0,-12.0,5.0,-2.0,-22.0,38.0,-10.0,7.0,21.0,0.0
30.0,8.0,-2.0,0.0,-14.0,-19.0,32.0,1.0,28.0,74.0,0.0
26.0,-3.0,5.0,-4.0,-22.0,-23.0,17.0,7.0,29.0,130.0,0.0
11.0,-54.0,13.0,5.0,-10.0,-16.0,27.0,5.0,24.0,151.0,0.0
1.0,-126.0,-15.0,-9.0,-10.0,-13.0,23.0,5.0,6.0,149.0,0.0
-6.0,-131.0,-85.0,-67.0,-34.0,-7.0,32.0,8.0,-3.0,173.0,0.0
-17.0,-46.0,-99.0,-101.0,-44.0,5.0,50.0,16.0,18.0,168.0,0.0
-8.0,34.0,-44.0,-77.0,-42.0,-4.0,43.0,20.0,30.0,108.0,0.0
-1.0,51.0,-5.0,-31.0,-39.0,-12.0,34.0,13.0,17.0,72.0,0.0
26.0,71.0,8.0,1.0,-14.0,-3.0,32.0,23.0,10.0,-8.0,0.0
28.0,108.0,29.0,26.0,18.0,19.0,39.0,38.0,1.0,-138.0,0.0
4.0,90.0,13.0,17.0,8.0,4.0,21.0,27.0,-10.0,-127.0,0.0
-42.0,9.0,-50.0,-18.0,-28.0,-39.0,-17.0,1.0,-17.0,-59.0,0.0
-55.0,-26.0,-48.0,-25.0,-42.0,-41.0,-7.0,20.0,9.0,-32.0,0.0
-44.0,-29.0,-23.0,-14.0,-29.0,-39.0,7.0,24.0,11.0,0.0,0.0
-73.0,-28.0,6.0,0.0,-4.0,-17.0,35.0,34.0,37.0,-138.0,0.0
-63.0,-47.0,12.0,3.0,-20.0,-30.0,26.0,4.0,18.0,-168.0,0.0
-40.0,-77.0,6.0,-5.0,-31.0,-60.0,-18.0,-29.0,-52.0,-147.0,0.0
-23.0,-54.0,4.0,-18.0,-40.0,-83.0,-58.0,-46.0,-87.0,-135.0,0.0
-8.0,-1.0,17.0,8.0,-21.0,-60.0,-27.0,-40.0,-16.0,-145.0,0.0
-19.0,15.0,12.0,15.0,-8.0,-14.0,-7.0,-9.0,1.0,-180.0,0.0
-27.0,41.0,-5.0,12.0,7.0,15.0,11.0,21.0,36.0,-134.0,0.0
4.0,60.0,-4.0,8.0,22.0,28.0,24.0,25.0,43.0,43.0,0.0
101.0,71.0,21.0,26.0,26.0,32.0,23.0,45.0,53.0,200.0,0.0
151.0,74.0,51.0,43.0,29.0,23.0,16.0,57.0,53.0,124.0,0.0
99.0,58.0,58.0,42.0,23.0,14.0,13.0,52.0,36.0,10.0,0.0
49.0,15.0,45.0,34.0,14.0,8.0,1.0,31.0,21.0,33.0,0.0
10.0,-12.0,42.0,13.0,0.0,-3.0,-11.0,18.0,14.0,32.0,0.0
11.0,-17.0,47.0,8.0,-4.0,-14.0,-9.0,-9.0,-15.0,13.0,0.0
-2.0,-17.0,40.0,6.0,-13.0,-16.0,-6.0,-5.0,-30.0,0.0,0.0
-11.0,-23.0,32.0,1.0,-12.0,-21.0,-24.0,-17.0,-71.0,-11.0,0.0
-20.0,-31.0,45.0,-7.0,-6.0,-53.0,-80.0,-37.0,-155.0,-14.0,0.0
0.0,-23.0,58.0,-1.0,-13.0,-42.0,-57.0,-25.0,-56.0,67.0,0.0
1.0,-42.0,53.0,1.0,-26.0,-44.0,-56.0,-43.0,-19.0,67.0,0.0
-8.0,-50.0,26.0,-8.0,-40.0,-41.0,-53.0,-46.0,-26.0,31.0,0.0
20.0,-38.0,-45.0,-32.0,-72.0,-46.0,-57.0,-46.0,-20.0,124.0,0.0
29.0,0.0,-63.0,-40.0,-66.0,-36.0,-57.0,-48.0,-44.0,176.0,0.0
30.0,-6.0,-74.0,-52.0,-54.0,-53.0,-67.0,-67.0,-103.0,184.0,0.0
10.0,-13.0,-44.0,-39.0,-36.0,-57.0,-82.0,-71.0,-153.0,136.0,0.0
5.0,49.0,26.0,21.0,1.0,8.0,-17.0,-21.0,-32.0,45.0,0.0
15.0,73.0,78.0,73.0,43.0,42.0,38.0,27.0,16.0,-156.0,0.0
-20.0,-3.0,0.0,-19.0,14.0,47.0,24.0,51.0,59.0,-112.0,0.0
-50.0,-25.0,-12.0,-62.0,-15.0,32.0,18.0,34.0,34.0,-51.0,0.0
-57.0,-60.0,-31.0,-65.0,-31.0,0.0,-5.0,6.0,-37.0,26.0,0.0
-22.0,-41.0,-27.0,-48.0,-23.0,4.0,-7.0,13.0,-14.0,80.0,0.0
24.0,8.0,-28.0,-31.0,-7.0,33.0,37.0,43.0,57.0,96.0,0.0
49.0,20.0,-49.0,-55.0,-4.0,33.0,50.0,52.0,55.0,108.0,0.0
43.0,21.0,-43.0,-62.0,-6.0,32.0,41.0,46.0,76.0,96.0,0.0
21.0,31.0,6.0,-38.0,-10.0,30.0,38.0,33.0,69.0,10.0,0.0
7.0,8.0,47.0,-14.0,5.0,21.0,35.0,29.0,42.0,-95.0,0.0
7.0,-19.0,46.0,7.0,29.0,19.0,27.0,27.0,24.0,-166.0,0.0
4.0,-28.0,20.0,8.0,16.0,15.0,10.0,10.0,5.0,-165.0,0.0
14.0,-7.0,43.0,27.0,11.0,18.0,5.0,-6.0,6.0,-88.0,0.0
11.0,-8.0,72.0,47.0,25.0,28.0,9.0,16.0,11.0,-93.0,0.0
4.0,-20.0,71.0,40.0,32.0,32.0,6.0,18.0,0.0,-106.0,0.0
25.0,-7.0,72.0,44.0,17.0,18.0,-6.0,2.0,-4.0,-66.0,0.0
32.0,11.0,77.0,45.0,3.0,1.0,-26.0,-24.0,-16.0,-41.0,0.0
29.0,24.0,85.0,32.0,-7.0,-10.0,-42.0,-43.0,-20.0,-28.0,0.0
26.0,40.0,80.0,31.0,-11.0,-27.0,-46.0,-48.0,-31.0,-23.0,0.0
29.0,74.0,79.0,41.0,-10.0,-28.0,-53.0,-47.0,-33.0,-21.0,0.0
35.0,80.0,69.0,58.0,-3.0,-37.0,-73.0,-52.0,-50.0,-12.0,0.0
39.0,80.0,46.0,56.0,-13.0,-53.0,-75.0,-56.0,-58.0,7.0,0.0
47.0,79.0,6.0,20.0,-17.0,-34.0,-52.0,-44.0,-27.0,69.0,0.0
38.0,58.0,-48.0,-16.0,-16.0,-22.0,-28.0,-34.0,11.0,125.0,0.0
45.0,42.0,-51.0,-4.0,-12.0,-31.0,-26.0,-3.0,34.0,299.0,0.0
31.0,12.0,-55.0,-23.0,-8.0,-19.0,-11.0,6.0,48.0,315.0,0.0
3.0,-62.0,-94.0,-51.0,-2.0,-4.0,1.0,11.0,-2.0,232.0,0.0
-17.0,-143.0,-91.0,-68.0,9.0,5.0,3.0,22.0,-55.0,104.0,0.0
-31.0,-190.0,-109.0,-70.0,1.0,19.0,45.0,33.0,31.0,30.0,0.0
-33.0,-133.0,-98.0,-65.0,-5.0,18.0,56.0,42.0,54.0,-69.0,0.0
-20.0,-21.0,-17.0,-7.0,38.0,48.0,83.0,70.0,74.0,-143.0,0.0
-3.0,37.0,6.0,22.0,51.0,66.0,86.0,74.0,79.0,-87.0,0.0
-17.0,92.0,49.0,29.0,37.0,20.0,40.0,44.0,35.0,-111.0,0.0
-34.0,58.0,57.0,11.0,20.0,26.0,32.0,32.0,35.0,-124.0,0.0
-46.0,-3.0,32.0,-7.0,6.0,4.0,7.0,27.0,0.0,-158.0,0.0
-63.0,-85.0,16.0,-23.0,-15.0,-31.0,-33.0,3.0,-79.0,-195.0,0.0
-68.0,-116.0,0.0,-20.0,-23.0,-26.0,-10.0,-8.0,-39.0,-153.0,0.0
-65.0,-127.0,-17.0,-37.0,-19.0,-25.0,6.0,-22.0,-13.0,-97.0,0.0
-50.0,-122.0,-16.0,-29.0,-12.0,-14.0,6.0,-23.0,-4.0,-70.0,0.0
-42.0,-63.0,-16.0,-14.0,19.0,28.0,37.0,16.0,21.0,-57.0,0.0
-26.0,8.0,-36.0,-16.0,12.0,47.0,40.0,28.0,36.0,-31.0,0.0
-13.0,37.0,-42.0,-15.0,8.0,38.0,39.0,22.0,26.0,-19.0,0.0
-8.0,-21.0,-14.0,-19.0,5.0,-5.0,-13.0,-10.0,-79.0,-46.0,0.0
-5.0,-69.0,-1.0,-8.0,13.0,-5.0,-20.0,-11.0,-87.0,-31.0,0.0
19.0,-39.0,11.0,8.0,27.0,38.0,32.0,9.0,40.0,18.0,0.0
51.0,-39.0,5.0,8.0,22.0,33.0,32.0,8.0,48.0,27.0,0.0
63.0,-28.0,2.0,4.0,19.0,36.0,37.0,4.0,38.0,34.0,0.0
44.0,-6.0,1.0,-11.0,3.0,28.0,21.0,0.0,42.0,42.0,0.0
49.0,23.0,7.0,-24.0,-31.0,-26.0,-30.0,-31.0,22.0,35.0,0.0
31.0,30.0,15.0,-16.0,-25.0,-33.0,-30.0,-29.0,14.0,13.0,0.0
-10.0,11.0,18.0,-8.0,-16.0,-39.0,-33.0,-42.0,-8.0,-41.0,0.0
-64.0,-15.0,20.0,-20.0,-2.0,-66.0,-74.0,-82.0,-114.0,-117.0,0.0
-89.0,-16.0,20.0,-19.0,0.0,-64.0,-76.0,-95.0,-126.0,-133.0,0.0
-89.0,3.0,29.0,-20.0,13.0,-18.0,-30.0,-67.0,-7.0,-62.0,0.0
-42.0,7.0,47.0,-27.0,23.0,-2.0,-16.0,-59.0,0.0,45.0,0.0
61.0,27.0,72.0,-5.0,44.0,22.0,23.0,-18.0,33.0,156.0,0.0
91.0,26.0,45.0,-4.0,39.0,48.0,61.0,32.0,70.0,150.0,0.0
58.0,15.0,11.0,-7.0,20.0,31.0,52.0,33.0,62.0,10.0,0.0
35.0,30.0,9.0,-11.0,0.0,0.0,24.0,11.0,42.0,-46.0,0.0
21.0,28.0,3.0,-8.0,-13.0,-15.0,-4.0,-8.0,31.0,-40.0,0.0
23.0,18.0,6.0,-13.0,-18.0,-25.0,-17.0,-29.0,21.0,-12.0,0.0
13.0,18.0,16.0,-13.0,-20.0,-33.0,-15.0,-41.0,14.0,53.0,0.0
8.0,1.0,33.0,-4.0,-15.0,-34.0,-12.0,-42.0,12.0,135.0,0.0
24.0,12.0,26.0,-2.0,-14.0,-24.0,2.0,-39.0,22.0,139.0,0.0
23.0,32.0,26.0,16.0,-3.0,-2.0,15.0,-28.0,16.0,40.0,0.0
31.0,59.0,54.0,39.0,18.0,4.0,24.0,-9.0,13.0,-81.0,0.0
36.0,77.0,60.0,51.0,29.0,14.0,17.0,0.0,5.0,-32.0,0.0
41.0,75.0,58.0,45.0,34.0,-1.0,-7.0,-19.0,-8.0,105.0,0.0
52.0,57.0,49.0,46.0,31.0,-10.0,-8.0,-12.0,-14.0,41.0,0.0
52.0,48.0,43.0,42.0,36.0,6.0,10.0,21.0,8.0,-55.0,0.0
32.0,25.0,30.0,14.0,34.0,12.0,22.0,33.0,22.0,16.0,0.0
19.0,-5.0,5.0,-13.0,20.0,29.0,30.0,26.0,20.0,98.0,0.0
13.0,-36.0,-8.0,-23.0,12.0,31.0,20.0,13.0,31.0,168.0,0.0
-11.0,-79.0,-23.0,-34.0,3.0,29.0,23.0,-3.0,22.0,158.0,0.0
-32.0,-96.0,-31.0,-46.0,-11.0,38.0,31.0,0.0,7.0,92.0,0.0
-32.0,-68.0,-78.0,-58.0,0.0,51.0,63.0,38.0,22.0,-54.0,0.0
-10.0,-25.0,-55.0,-42.0,10.0,56.0,51.0,54.0,14.0,-112.0,0.0
-1.0,-11.0,-23.0,-20.0,13.0,31.0,31.0,32.0,-13.0,-103.0,0.0
25.0,17.0,-15.0,12.0,19.0,12.0,6.0,31.0,-4.0,-53.0,0.0
-1.0,59.0,9.0,23.0,27.0,35.0,26.0,41.0,31.0,-105.0,0.0
-21.0,23.0,-7.0,11.0,15.0,14.0,-2.0,3.0,-30.0,-83.0,0.0
-29.0,-31.0,-48.0,-19.0,-6.0,-21.0,-43.0,-32.0,-129.0,-38.0,0.0
-25.0,-20.0,-68.0,-33.0,-12.0,-16.0,-29.0,-14.0,-86.0,46.0,0.0
-6.0,-7.0,-68.0,-38.0,-29.0,-25.0,-13.0,-24.0,-28.0,129.0,0.0
7.0,-9.0,-65.0,-53.0,-49.0,-54.0,-28.0,-40.0,-26.0,163.0,0.0
13.0,1.0,-16.0,-39.0,-45.0,-67.0,-48.0,-38.0,-35.0,166.0,0.0
-7.0,56.0,110.0,-22.0,-24.0,-57.0,-57.0,-42.0,-25.0,117.0,0.0
-10.0,64.0,157.0,7.0,-4.0,-29.0,-43.0,-13.0,-23.0,-11.0,0.0
-4.0,76.0,159.0,14.0,11.0,-16.0,-44.0,-8.0,-47.0,-91.0,0.0
-7.0,79.0,139.0,23.0,28.0,-40.0,-59.0,-22.0,-135.0,-210.0,0.0
-5.0,115.0,107.0,34.0,47.0,3.0,-10.0,0.0,-62.0,-222.0,0.0
13.0,142.0,101.0,51.0,56.0,52.0,25.0,21.0,0.0,-153.0,0.0
29.0,155.0,93.0,56.0,60.0,55.0,35.0,33.0,14.0,-105.0,0.0
25.0,172.0,43.0,37.0,34.0,47.0,28.0,36.0,32.0,-81.0,0.0
27.0,185.0,17.0,32.0,14.0,35.0,30.0,28.0,31.0,-37.0,0.0
33.0,147.0,19.0,29.0,12.0,48.0,19.0,27.0,41.0,29.0,0.0
17.0,79.0,14.0,24.0,-5.0,17.0,4.0,-7.0,19.0,31.0,0.0
-15.0,12.0,9.0,9.0,-32.0,-20.0,-26.0,-45.0,-29.0,-10.0,0.0
-50.0,-54.0,21.0,10.0,-31.0,-42.0,-68.0,-46.0,-112.0,-113.0,0.0
-59.0,-83.0,8.0,23.0,-5.0,-9.0,-31.0,-16.0,-54.0,-141.0,0.0
-54.0,-113.0,-7.0,34.0,8.0,17.0,9.0,15.0,19.0,-111.0,0.0
-62.0,-131.0,-18.0,46.0,12.0,54.0,53.0,70.0,73.0,-120.0,0.0
-70.0,-131.0,-28.0,37.0,26.0,80.0,79.0,96.0,95.0,-70.0,0.0
-66.0,-139.0,-56.0,-8.0,15.0,66.0,73.0,74.0,83.0,30.0,0.0
-66.0,-157.0,-102.0,-35.0,2.0,50.0,65.0,52.0,50.0,52.0,0.0
-49.0,-155.0,-132.0,-46.0,2.0,64.0,73.0,55.0,43.0,44.0,0.0
-40.0,-127.0,-111.0,-38.0,7.0,69.0,66.0,53.0,50.0,41.0,0.0
-31.0,-87.0,-92.0,-31.0,6.0,47.0,44.0,44.0,30.0,27.0,0.0
-25.0,-76.0,-72.0,-33.0,-9.0,5.0,4.0,23.0,-2.0,-16.0,0.0
-27.0,-94.0,-84.0,-29.0,-17.0,-26.0,-6.0,-2.0,-14.0,-55.0,0.0
-31.0,-100.0,-106.0,-26.0,-24.0,-31.0,-7.0,-17.0,-16.0,-15.0,0.0
-19.0,-93.0,-105.0,-28.0,-19.0,-27.0,-8.0,-20.0,-4.0,52.0,0.0
0.0,-92.0,-94.0,-34.0,-23.0,-31.0,-17.0,-18.0,4.0,56.0,0.0
7.0,-81.0,-93.0,-42.0,-32.0,-39.0,-29.0,-12.0,0.0,63.0,0.0
8.0,-41.0,-80.0,-41.0,-47.0,-39.0,-30.0,-9.0,-8.0,116.0,0.0
-3.0,0.0,-44.0,-24.0,-44.0,-30.0,-27.0,-6.0,13.0,193.0,0.0
-12.0,1.0,-41.0,-3.0,-30.0,-21.0,-22.0,-11.0,16.0,198.0,0.0
10.0,19.0,-5.0,15.0,-9.0,-14.0,-23.0,-15.0,8.0,150.0,0.0
21.0,44.0,38.0,32.0,7.0,-26.0,-29.0,-19.0,7.0,114.0,0.0
-23.0,20.0,35.0,29.0,15.0,-26.0,-18.0,-16.0,-3.0,4.0,0.0
-60.0,1.0,40.0,41.0,20.0,-13.0,-6.0,-13.0,0.0,-159.0,0.0
-72.0,29.0,59.0,42.0,18.0,-19.0,-6.0,-11.0,-1.0,-312.0,0.0
14.0,125.0,24.0,14.0,4.0,-41.0,-42.0,-17.0,-6.0,159.0,0.0
116.0,161.0,50.0,46.0,43.0,-11.0,-9.0,19.0,23.0,138.0,0.0
27.0,25.0,27.0,26.0,67.0,16.0,17.0,38.0,24.0,44.0,0.0
0.0,-42.0,-33.0,-28.0,21.0,-13.0,-2.0,10.0,2.0,74.0,0.0
-8.0,-69.0,-65.0,-43.0,-7.0,-34.0,-26.0,0.0,-47.0,55.0,0.0
-9.0,-52.0,-54.0,-37.0,-16.0,-40.0,-22.0,-4.0,-40.0,47.0,0.0
-17.0,-42.0,-26.0,-44.0,-10.0,-19.0,-1.0,-1.0,5.0,59.0,0.0
-27.0,-69.0,-29.0,-63.0,-15.0,-11.0,10.0,4.0,7.0,70.0,0.0
8.0,-72.0,-70.0,-74.0,-5.0,10.0,34.0,27.0,28.0,109.0,0.0
21.0,-39.0,-55.0,-63.0,7.0,20.0,57.0,41.0,26.0,69.0,0.0
5.0,-36.0,-17.0,-44.0,21.0,10.0,36.0,29.0,-26.0,-17.0,0.0
-6.0,-41.0,16.0,-24.0,35.0,-10.0,8.0,35.0,-58.0,-67.0,0.0
-8.0,-5.0,41.0,6.0,39.0,1.0,24.0,48.0,29.0,-68.0,0.0
10.0,10.0,39.0,18.0,12.0,-19.0,-3.0,5.0,7.0,-15.0,0.0
26.0,-3.0,14.0,28.0,-1.0,-23.0,-33.0,-26.0,-11.0,68.0,0.0
27.0,-11.0,-9.0,31.0,-2.0,-28.0,-52.0,-30.0,8.0,150.0,0.0
34.0,3.0,-5.0,24.0,-7.0,-38.0,-73.0,-45.0,10.0,180.0,0.0
34.0,10.0,7.0,14.0,-14.0,-52.0,-82.0,-57.0,-4.0,152.0,0.0
32.0,-1.0,-8.0,11.0,-19.0,-47.0,-73.0,-42.0,0.0,124.0,0.0
19.0,8.0,0.0,18.0,-7.0,-25.0,-13.0,9.0,39.0,-12.0,0.0
-43.0,25.0,35.0,54.0,30.0,25.0,21.0,58.0,6.0,-290.0,0.0
-55.0,-2.0,33.0,63.0,30.0,-11.0,-27.0,17.0,-85.0,-256.0,0.0
-38.0,6.0,2.0,38.0,26.0,-9.0,-22.0,0.0,-45.0,-84.0,0.0
-12.0,66.0,-19.0,22.0,19.0,-10.0,-29.0,-6.0,-39.0,2.0,0.0
5.0,132.0,-17.0,27.0,23.0,4.0,-1.0,16.0,36.0,48.0,0.0
7.0,135.0,-8.0,29.0,16.0,3.0,0.0,30.0,48.0,60.0,0.0
25.0,89.0,-13.0,17.0,6.0,8.0,5.0,23.0,44.0,70.0,0.0
26.0,35.0,-2.0,10.0,11.0,13.0,5.0,15.0,13.0,60.0,0.0
29.0,-11.0,14.0,20.0,11.0,0.0,6.0,-1.0,-11.0,56.0,0.0
23.0,-24.0,18.0,40.0,14.0,-20.0,-7.0,-14.0,-9.0,-21.0,0.0
7.0,-29.0,13.0,29.0,3.0,-34.0,-27.0,-29.0,-20.0,-68.0,0.0
7.0,-61.0,-5.0,0.0,-24.0,-54.0,-51.0,-46.0,-19.0,-14.0,0.0
10.0,-80.0,-19.0,-12.0,-37.0,-59.0,-72.0,-48.0,5.0,39.0,0.0
1.0,-54.0,-16.0,-1.0,-29.0,-34.0,-63.0,-30.0,21.0,38.0,0.0
-23.0,-28.0,-12.0,14.0,-5.0,3.0,-17.0,6.0,39.0,-23.0,0.0
-42.0,-3.0,-1.0,37.0,21.0,29.0,31.0,40.0,53.0,-97.0,0.0
-36.0,17.0,-6.0,49.0,34.0,41.0,37.0,43.0,42.0,-130.0,0.0
-18.0,-3.0,-18.0,22.0,29.0,42.0,26.0,25.0,25.0,-100.0,0.0
-3.0,-44.0,-36.0,3.0,23.0,42.0,35.0,20.0,26.0,-89.0,0.0
0.0,-53.0,-25.0,6.0,21.0,55.0,56.0,34.0,27.0,-145.0,0.0
-2.0,-22.0,-5.0,26.0,24.0,40.0,52.0,30.0,15.0,-152.0,0.0
-9.0,-1.0,26.0,48.0,40.0,20.0,37.0,16.0,8.0,-152.0,0.0
-9.0,3.0,34.0,69.0,59.0,24.0,35.0,23.0,10.0,-119.0,0.0
-16.0,1.0,26.0,70.0,58.0,40.0,37.0,24.0,36.0,-59.0,0.0
1.0,-11.0,4.0,48.0,29.0,11.0,26.0,7.0,41.0,-35.0,0.0
25.0,20.0,-7.0,33.0,23.0,1.0,8.0,6.0,33.0,-15.0,0.0
42.0,47.0,-8.0,39.0,16.0,-6.0,-6.0,-25.0,0.0,-16.0,0.0
45.0,45.0,-1.0,43.0,18.0,-33.0,-43.0,-51.0,-81.0,-50.0,0.0
34.0,53.0,1.0,30.0,16.0,-11.0,-18.0,-48.0,18.0,8.0,0.0
10.0,8.0,10.0,28.0,2.0,-23.0,-24.0,-43.0,7.0,-6.0,0.0
-8.0,-36.0,7.0,6.0,-3.0,-38.0,-48.0,-52.0,-50.0,-56.0,0.0
-18.0,-31.0,-19.0,-22.0,-1.0,-44.0,-48.0,-51.0,-91.0,-81.0,0.0
-10.0,29.0,-37.0,-34.0,0.0,-18.0,-5.0,-27.0,-21.0,-15.0,0.0
51.0,65.0,16.0,0.0,17.0,-26.0,-31.0,-26.0,16.0,266.0,0.0
47.0,21.0,27.0,-9.0,2.0,-24.0,-41.0,-40.0,19.0,277.0,0.0
-5.0,-62.0,44.0,-39.0,0.0,-8.0,-51.0,-46.0,-35.0,155.0,0.0
-54.0,-160.0,48.0,-64.0,1.0,-5.0,-45.0,-42.0,-128.0,-46.0,0.0
-47.0,-132.0,13.0,-31.0,21.0,53.0,41.0,15.0,10.0,-162.0,0.0
-37.0,-67.0,-7.0,-20.0,21.0,79.0,72.0,44.0,71.0,-133.0,0.0
-38.0,-28.0,-13.0,-15.0,21.0,71.0,73.0,36.0,65.0,-67.0,0.0
-28.0,9.0,-15.0,-7.0,27.0,63.0,58.0,37.0,45.0,-22.0,0.0
-13.0,24.0,-23.0,-17.0,18.0,71.0,51.0,30.0,37.0,1.0,0.0
0.0,17.0,-40.0,-37.0,-3.0,52.0,30.0,10.0,43.0,16.0,0.0
0.0,-4.0,-56.0,-56.0,-15.0,27.0,14.0,0.0,48.0,22.0,0.0
-2.0,-21.0,-67.0,-48.0,-19.0,32.0,18.0,6.0,47.0,16.0,0.0
8.0,-10.0,-66.0,-41.0,-10.0,25.0,24.0,19.0,58.0,29.0,0.0
45.0,11.0,-44.0,-45.0,10.0,4.0,2.0,-13.0,20.0,102.0,0.0
44.0,33.0,-29.0,-34.0,4.0,13.0,1.0,-7.0,24.0,110.0,0.0
23.0,37.0,0.0,-17.0,4.0,5.0,-14.0,-26.0,-38.0,73.0,0.0
3.0,29.0,28.0,-11.0,7.0,-11.0,-32.0,-44.0,-92.0,32.0,0.0
10.0,37.0,40.0,12.0,0.0,17.0,8.0,-18.0,4.0,3.0,0.0
28.0,39.0,75.0,21.0,4.0,13.0,6.0,-8.0,14.0,-26.0,0.0
36.0,37.0,96.0,25.0,4.0,4.0,0.0,-1.0,22.0,-14.0,0.0
22.0,47.0,69.0,20.0,-1.0,-4.0,-15.0,-12.0,17.0,-2.0,0.0
11.0,59.0,55.0,24.0,-12.0,-16.0,-33.0,-28.0,-10.0,-10.0,0.0
-11.0,43.0,57.0,33.0,-16.0,-36.0,-35.0,-43.0,-11.0,-31.0,0.0
-14.0,10.0,40.0,47.0,-11.0,-31.0,-21.0,-51.0,-10.0,-31.0,0.0
-11.0,-11.0,35.0,46.0,-8.0,-22.0,-19.0,-45.0,-18.0,-5.0,0.0
2.0,-22.0,21.0,29.0,-11.0,-17.0,-18.0,-29.0,-19.0,26.0,0.0
12.0,-34.0,0.0,16.0,-7.0,-1.0,-6.0,-20.0,-7.0,45.0,0.0
21.0,-39.0,-8.0,10.0,0.0,8.0,-5.0,2.0,3.0,56.0,0.0
21.0,-20.0,-28.0,7.0,2.0,19.0,6.0,11.0,8.0,37.0,0.0
18.0,1.0,-34.0,-2.0,9.0,32.0,23.0,4.0,4.0,-9.0,0.0
5.0,12.0,-41.0,-7.0,13.0,39.0,34.0,7.0,-3.0,-69.0,0.0
9.0,5.0,-51.0,-1.0,6.0,40.0,30.0,11.0,-10.0,-98.0,0.0
3.0,-16.0,-54.0,-2.0,-10.0,13.0,2.0,-13.0,-22.0,-55.0,0.0
-6.0,-35.0,-38.0,-14.0,-14.0,3.0,-15.0,-29.0,-31.0,-29.0,0.0
0.0,-14.0,-41.0,-11.0,-22.0,-1.0,-29.0,-16.0,-26.0,-4.0,0.0
3.0,-21.0,-35.0,-25.0,-41.0,-24.0,-52.0,-22.0,-19.0,49.0,0.0
5.0,-2.0,-17.0,-27.0,-43.0,-43.0,-70.0,-43.0,-20.0,65.0,0.0
9.0,158.0,31.0,14.0,-34.0,-31.0,-30.0,-19.0,17.0,57.0,0.0
18.0,157.0,25.0,14.0,-12.0,-20.0,-7.0,-9.0,17.0,79.0,0.0
47.0,89.0,11.0,0.0,-12.0,-33.0,-21.0,-2.0,-8.0,115.0,0.0
49.0,13.0,-9.0,-8.0,-21.0,-70.0,-69.0,-29.0,-110.0,75.0,0.0
0.0,12.0,-11.0,22.0,-19.0,-47.0,-30.0,-35.0,-17.0,85.0,0.0
-14.0,18.0,16.0,46.0,-12.0,-41.0,-34.0,-38.0,-9.0,0.0,0.0
-2.0,26.0,62.0,75.0,7.0,-31.0,-30.0,-35.0,-23.0,-154.0,0.0
-6.0,13.0,66.0,72.0,24.0,-38.0,-57.0,-35.0,-81.0,-145.0,0.0
39.0,29.0,67.0,83.0,31.0,-6.0,-15.0,-7.0,-16.0,-24.0,0.0
113.0,62.0,109.0,124.0,53.0,18.0,8.0,14.0,35.0,59.0,0.0
45.0,36.0,86.0,102.0,44.0,-1.0,-9.0,5.0,12.0,24.0,0.0
10.0,0.0,43.0,70.0,38.0,-14.0,-18.0,-3.0,-3.0,8.0,0.0
-8.0,-42.0,14.0,25.0,22.0,-43.0,-49.0,-23.0,-77.0,-9.0,0.0
-13.0,-52.0,1.0,-6.0,1.0,-35.0,-42.0,-11.0,-17.0,28.0,0.0
-11.0,-54.0,-34.0,-29.0,-7.0,-1.0,-7.0,18.0,68.0,49.0,0.0
-24.0,-64.0,-72.0,-51.0,-21.0,15.0,27.0,36.0,75.0,41.0,0.0
-26.0,-71.0,-85.0,-55.0,-26.0,27.0,40.0,46.0,71.0,63.0,0.0
-11.0,-65.0,-69.0,-53.0,-31.0,23.0,29.0,33.0,57.0,127.0,0.0
-7.0,-44.0,-49.0,-60.0,-38.0,10.0,10.0,7.0,33.0,167.0,0.0
-10.0,-50.0,-46.0,-73.0,-41.0,-3.0,-1.0,-7.0,25.0,164.0,0.0
-5.0,-77.0,-60.0,-93.0,-38.0,0.0,1.0,-19.0,23.0,173.0,0.0
-8.0,-10.0,-74.0,-63.0,-21.0,38.0,48.0,5.0,31.0,49.0,0.0
-25.0,-4.0,-68.0,-55.0,-6.0,32.0,22.0,-7.0,0.0,-5.0,0.0
-48.0,-10.0,-38.0,-38.0,10.0,11.0,10.0,-10.0,-19.0,-121.0,0.0
-67.0,-8.0,4.0,-1.0,19.0,2.0,-4.0,-5.0,-90.0,-202.0,0.0
-56.0,27.0,25.0,43.0,32.0,40.0,27.0,9.0,-19.0,-156.0,0.0
-33.0,48.0,16.0,45.0,39.0,51.0,41.0,7.0,19.0,-74.0,0.0
-15.0,36.0,-10.0,20.0,3.0,10.0,5.0,-20.0,5.0,40.0,0.0
18.0,34.0,-17.0,5.0,-17.0,-13.0,-9.0,-22.0,23.0,122.0,0.0
37.0,55.0,8.0,13.0,-2.0,-3.0,12.0,-4.0,26.0,39.0,0.0
1.0,65.0,30.0,22.0,9.0,21.0,40.0,12.0,20.0,-119.0,0.0
-23.0,55.0,34.0,26.0,16.0,46.0,64.0,32.0,23.0,-197.0,0.0
-30.0,26.0,6.0,13.0,17.0,45.0,65.0,46.0,26.0,-185.0,0.0
-49.0,-32.0,-16.0,-18.0,9.0,38.0,64.0,47.0,45.0,-89.0,0.0
-73.0,-74.0,-18.0,-29.0,-5.0,21.0,64.0,38.0,45.0,0.0,0.0
-68.0,-102.0,1.0,-33.0,-17.0,3.0,36.0,16.0,33.0,73.0,0.0
-30.0,-121.0,11.0,-23.0,-33.0,-19.0,3.0,-2.0,12.0,112.0,0.0
-9.0,-73.0,-27.0,-30.0,-35.0,-19.0,-3.0,-13.0,4.0,118.0,0.0
12.0,-14.0,-48.0,-21.0,-29.0,-10.0,5.0,-28.0,8.0,114.0,0.0
25.0,19.0,-50.0,-10.0,-11.0,2.0,-6.0,-24.0,8.0,101.0,0.0
26.0,18.0,-43.0,3.0,-3.0,7.0,-2.0,-23.0,7.0,60.0,0.0
22.0,20.0,-19.0,16.0,1.0,11.0,-2.0,-24.0,2.0,12.0,0.0
-13.0,20.0,16.0,23.0,2.0,19.0,-14.0,-19.0,4.0,-74.0,0.0
-46.0,22.0,35.0,20.0,-8.0,7.0,-21.0,-6.0,2.0,-175.0,0.0
-65.0,8.0,24.0,6.0,-22.0,-4.0,-20.0,8.0,3.0,-209.0,0.0
-74.0,-29.0,-17.0,-26.0,-36.0,4.0,-12.0,3.0,3.0,-168.0,0.0
-57.0,7.0,-65.0,-51.0,-51.0,16.0,13.0,11.0,6.0,-4.0,0.0
-34.0,18.0,-53.0,-27.0,-31.0,15.0,16.0,3.0,0.0,85.0,0.0
-8.0,0.0,-6.0,6.0,-11.0,-7.0,-10.0,-20.0,-61.0,149.0,0.0
-21.0,69.0,30.0,51.0,26.0,48.0,15.0,6.0,-10.0,19.0,0.0
-29.0,1.0,10.0,34.0,26.0,58.0,47.0,24.0,1.0,-138.0,0.0
-38.0,-55.0,-4.0,4.0,15.0,39.0,25.0,12.0,-17.0,-144.0,0.0
-54.0,-112.0,-22.0,-19.0,-14.0,-2.0,-30.0,-13.0,-92.0,-93.0,0.0
-50.0,-80.0,-36.0,-59.0,-51.0,-26.0,-18.0,-52.0,-30.0,0.0,0.0
-38.0,-56.0,-39.0,-79.0,-53.0,-16.0,-22.0,-59.0,-18.0,17.0,0.0
-22.0,-37.0,-13.0,-60.0,-40.0,-10.0,-20.0,-50.0,-30.0,15.0,0.0
-14.0,-48.0,17.0,-55.0,-12.0,-46.0,-70.0,-62.0,-158.0,-27.0,0.0
13.0,2.0,34.0,-34.0,-2.0,-39.0,-62.0,-50.0,-149.0,-22.0,0.0
32.0,80.0,34.0,8.0,9.0,17.0,20.0,14.0,18.0,27.0,0.0
17.0,84.0,27.0,28.0,25.0,53.0,54.0,59.0,54.0,39.0,0.0
18.0,64.0,22.0,21.0,35.0,69.0,71.0,68.0,55.0,20.0,0.0
-6.0,15.0,25.0,8.0,31.0,58.0,58.0,52.0,46.0,-37.0,0.0
-22.0,-23.0,32.0,-8.0,13.0,34.0,32.0,25.0,31.0,-43.0,0.0
-10.0,-35.0,19.0,-10.0,12.0,15.0,11.0,14.0,27.0,-19.0,0.0
7.0,-12.0,19.0,-2.0,10.0,9.0,-4.0,0.0,18.0,-7.0,0.0
15.0,9.0,47.0,18.0,6.0,6.0,-9.0,-15.0,3.0,-11.0,0.0
20.0,21.0,82.0,42.0,-10.0,-22.0,-20.0,0.0,26.0,32.0,0.0
27.0,7.0,40.0,26.0,-11.0,-24.0,-28.0,7.0,31.0,54.0,0.0
31.0,-18.0,-15.0,-11.0,-19.0,-25.0,-35.0,-13.0,-5.0,63.0,0.0
21.0,-57.0,-37.0,-35.0,-32.0,-57.0,-80.0,-47.0,-116.0,58.0,0.0
36.0,-35.0,-42.0,-33.0,-33.0,-40.0,-74.0,-32.0,-68.0,99.0,0.0
60.0,9.0,-43.0,-43.0,-24.0,-9.0,-32.0,-2.0,24.0,167.0,0.0
54.0,14.0,-26.0,-44.0,-22.0,-9.0,-25.0,0.0,34.0,152.0,0.0
18.0,10.0,-10.0,-34.0,-21.0,0.0,-31.0,1.0,26.0,55.0,0.0
-5.0,3.0,10.0,-22.0,-27.0,-4.0,-19.0,-1.0,13.0,12.0,0.0
-2.0,6.0,25.0,-16.0,-16.0,-9.0,0.0,2.0,7.0,0.0,0.0
17.0,19.0,17.0,-7.0,-13.0,-4.0,9.0,25.0,9.0,-47.0,0.0
40.0,29.0,21.0,7.0,-16.0,-1.0,15.0,27.0,20.0,-65.0,0.0
49.0,43.0,41.0,21.0,-4.0,-10.0,13.0,28.0,30.0,-59.0,0.0
29.0,32.0,84.0,33.0,1.0,-39.0,-19.0,8.0,16.0,-65.0,0.0
9.0,16.0,75.0,30.0,-9.0,-35.0,-34.0,-23.0,-8.0,-42.0,0.0
5.0,20.0,46.0,26.0,-22.0,-21.0,-35.0,-37.0,-21.0,-39.0,0.0
15.0,31.0,11.0,0.0,-46.0,-33.0,-39.0,-50.0,-30.0,13.0,0.0
28.0,33.0,-14.0,-8.0,-49.0,-40.0,-31.0,-40.0,-24.0,128.0,0.0
37.0,35.0,-20.0,-6.0,-32.0,-32.0,-17.0,-23.0,-8.0,208.0,0.0
41.0,11.0,-23.0,-12.0,-9.0,8.0,11.0,-10.0,3.0,238.0,0.0
22.0,-12.0,-34.0,-3.0,14.0,57.0,62.0,33.0,41.0,127.0,0.0
7.0,-2.0,-23.0,24.0,43.0,101.0,119.0,88.0,75.0,-94.0,0.0
-19.0,9.0,9.0,36.0,55.0,112.0,137.0,110.0,72.0,-218.0,0.0
-47.0,-4.0,-7.0,17.0,31.0,80.0,107.0,80.0,35.0,-200.0,0.0
-81.0,-22.0,-36.0,-20.0,-4.0,24.0,53.0,38.0,10.0,-176.0,0.0
-116.0,-56.0,-39.0,-48.0,-30.0,-6.0,19.0,0.0,-4.0,-88.0,0.0
-76.0,-59.0,-36.0,-34.0,-17.0,8.0,23.0,14.0,10.0,52.0,0.0
-40.0,-54.0,-41.0,-34.0,-9.0,-5.0,-7.0,0.0,-39.0,134.0,0.0
9.0,-31.0,-24.0,-20.0,5.0,-18.0,-38.0,-6.0,-101.0,201.0,0.0
123.0,66.0,11.0,35.0,37.0,23.0,21.0,28.0,34.0,102.0,0.0
78.0,64.0,20.0,45.0,11.0,22.0,12.0,14.0,22.0,-168.0,0.0
20.0,49.0,37.0,44.0,10.0,-1.0,1.0,0.0,-33.0,-309.0,0.0
-14.0,14.0,43.0,28.0,12.0,-29.0,-31.0,-13.0,-117.0,-265.0,0.0
-5.0,84.0,8.0,26.0,21.0,18.0,59.0,31.0,49.0,20.0,0.0
10.0,72.0,-9.0,22.0,23.0,-2.0,34.0,19.0,35.0,-42.0,0.0
24.0,56.0,-11.0,8.0,5.0,-50.0,-27.0,-9.0,-42.0,-162.0,0.0
46.0,80.0,10.0,11.0,-6.0,-54.0,-46.0,-23.0,-67.0,-154.0,0.0
46.0,96.0,44.0,30.0,-1.0,-28.0,-28.0,-30.0,-14.0,-84.0,0.0
43.0,81.0,66.0,47.0,13.0,-26.0,-29.0,-45.0,-10.0,-57.0,0.0
46.0,54.0,56.0,61.0,25.0,-17.0,-13.0,-27.0,-11.0,-51.0,0.0
55.0,-17.0,63.0,65.0,43.0,2.0,-8.0,-5.0,0.0,-15.0,0.0
67.0,-22.0,62.0,62.0,49.0,17.0,3.0,1.0,15.0,41.0,0.0
68.0,58.0,34.0,57.0,40.0,15.0,5.0,14.0,31.0,31.0,0.0
48.0,123.0,-15.0,17.0,20.0,4.0,-4.0,6.0,23.0,-41.0,0.0
30.0,105.0,-60.0,-33.0,6.0,2.0,0.0,10.0,33.0,-13.0,0.0
17.0,38.0,-79.0,-69.0,-7.0,14.0,26.0,30.0,33.0,116.0,0.0
-42.0,-109.0,-63.0,-114.0,-31.0,9.0,12.0,-3.0,-15.0,106.0,0.0
-14.0,-127.0,-75.0,-115.0,-38.0,-12.0,-16.0,-12.0,-14.0,142.0,0.0
-11.0,-150.0,-72.0,-109.0,-26.0,-16.0,-31.0,-6.0,-19.0,132.0,0.0
-31.0,-171.0,-25.0,-100.0,-11.0,-37.0,-58.0,-23.0,-126.0,6.0,0.0
-53.0,-125.0,21.0,-67.0,11.0,-17.0,-36.0,-8.0,-129.0,-88.0,0.0
-69.0,-55.0,26.0,-34.0,17.0,20.0,31.0,25.0,13.0,-56.0,0.0
-64.0,-60.0,10.0,-43.0,16.0,24.0,39.0,28.0,31.0,-14.0,0.0
-51.0,-65.0,-8.0,-52.0,8.0,34.0,28.0,28.0,37.0,18.0,0.0
-33.0,-71.0,-40.0,-46.0,4.0,25.0,18.0,5.0,37.0,46.0,0.0
-22.0,-66.0,-44.0,-48.0,-22.0,11.0,-1.0,-8.0,26.0,51.0,0.0
-24.0,-24.0,-16.0,-20.0,-21.0,-1.0,-12.0,-15.0,23.0,64.0,0.0
-9.0,24.0,8.0,0.0,-8.0,4.0,-12.0,1.0,26.0,76.0,0.0
10.0,78.0,25.0,19.0,-7.0,10.0,-19.0,11.0,25.0,50.0,0.0
18.0,85.0,28.0,34.0,0.0,-2.0,-28.0,10.0,28.0,32.0,0.0
12.0,48.0,24.0,54.0,12.0,-2.0,-19.0,4.0,37.0,7.0,0.0
-9.0,21.0,43.0,67.0,13.0,-3.0,-26.0,1.0,23.0,-63.0,0.0
-15.0,12.0,56.0,54.0,3.0,-10.0,-46.0,10.0,4.0,-101.0,0.0
1.0,0.0,60.0,43.0,3.0,-18.0,-45.0,4.0,2.0,-46.0,0.0
-10.0,-10.0,55.0,37.0,17.0,-11.0,-31.0,0.0,4.0,32.0,0.0
-15.0,-11.0,35.0,27.0,23.0,0.0,-10.0,3.0,5.0,61.0,0.0
6.0,-8.0,31.0,8.0,19.0,0.0,-4.0,14.0,9.0,60.0,0.0
9.0,-16.0,10.0,-4.0,6.0,17.0,18.0,26.0,20.0,36.0,0.0
0.0,-31.0,-21.0,-22.0,0.0,22.0,35.0,44.0,15.0,-22.0,0.0
3.0,-43.0,-60.0,-42.0,-14.0,20.0,34.0,31.0,4.0,-31.0,0.0
22.0,-10.0,-104.0,-85.0,-25.0,0.0,4.0,7.0,24.0,68.0,0.0
30.0,14.0,-58.0,-55.0,-37.0,-12.0,-23.0,-1.0,0.0,90.0,0.0
3.0,-10.0,-22.0,-46.0,-51.0,-45.0,-68.0,-31.0,-80.0,103.0,0.0
-20.0,0.0,-20.0,-34.0,-37.0,-54.0,-71.0,-23.0,-82.0,110.0,0.0
-15.0,34.0,-9.0,40.0,10.0,28.0,13.0,23.0,24.0,-108.0,0.0
-19.0,46.0,-8.0,48.0,15.0,15.0,16.0,31.0,14.0,-118.0,0.0
-17.0,24.0,-3.0,29.0,-5.0,-22.0,-33.0,5.0,-75.0,-19.0,0.0
-4.0,4.0,0.0,21.0,-11.0,-40.0,-63.0,-20.0,-113.0,117.0,0.0
20.0,35.0,4.0,41.0,-4.0,-1.0,-22.0,6.0,-19.0,208.0,0.0
31.0,57.0,6.0,35.0,17.0,40.0,28.0,62.0,42.0,-28.0,0.0
26.0,-1.0,-8.0,5.0,4.0,39.0,26.0,46.0,34.0,43.0,0.0
-4.0,-47.0,0.0,3.0,0.0,2.0,1.0,14.0,-35.0,12.0,0.0
-40.0,-43.0,32.0,22.0,13.0,-16.0,-27.0,2.0,-111.0,-91.0,0.0
-42.0,14.0,43.0,52.0,26.0,32.0,28.0,46.0,3.0,-145.0,0.0
-24.0,51.0,39.0,51.0,18.0,37.0,34.0,41.0,30.0,-188.0,0.0
-2.0,37.0,26.0,36.0,14.0,32.0,23.0,32.0,34.0,-119.0,0.0
3.0,-7.0,-12.0,21.0,17.0,26.0,19.0,36.0,30.0,-45.0,0.0
4.0,-7.0,-34.0,3.0,7.0,24.0,25.0,24.0,23.0,-9.0,0.0
14.0,36.0,-22.0,-8.0,-20.0,5.0,10.0,14.0,11.0,1.0,0.0
25.0,53.0,8.0,3.0,-23.0,8.0,7.0,17.0,9.0,1.0,0.0
23.0,33.0,18.0,9.0,-12.0,16.0,6.0,13.0,8.0,19.0,0.0
25.0,19.0,-3.0,-16.0,-4.0,23.0,13.0,5.0,14.0,34.0,0.0
28.0,11.0,-18.0,-34.0,-8.0,38.0,31.0,11.0,14.0,35.0,0.0
7.0,7.0,-40.0,-33.0,-7.0,42.0,52.0,48.0,23.0,40.0,0.0
13.0,20.0,-1.0,-9.0,-7.0,39.0,28.0,35.0,25.0,39.0,0.0
12.0,14.0,19.0,-1.0,-2.0,14.0,0.0,2.0,-36.0,39.0,0.0
17.0,-31.0,13.0,-14.0,-1.0,-8.0,-22.0,-18.0,-81.0,57.0,0.0
41.0,-73.0,-17.0,-26.0,-9.0,-2.0,-1.0,-24.0,-6.0,134.0,0.0
31.0,-95.0,-31.0,-39.0,-28.0,-12.0,-6.0,-22.0,8.0,185.0,0.0
18.0,-7.0,-23.0,-27.0,-22.0,-1.0,-2.0,5.0,25.0,205.0,0.0
15.0,77.0,-38.0,-37.0,-6.0,8.0,-12.0,18.0,30.0,195.0,0.0
24.0,103.0,-66.0,-49.0,-6.0,-12.0,-22.0,-9.0,18.0,172.0,0.0
29.0,80.0,-39.0,-36.0,3.0,-17.0,-19.0,-23.0,5.0,108.0,0.0
17.0,44.0,-12.0,-19.0,0.0,-16.0,-11.0,-20.0,-2.0,12.0,0.0
-21.0,-14.0,-15.0,-21.0,-14.0,-24.0,-13.0,-16.0,-26.0,-128.0,0.0
-67.0,-53.0,-19.0,-18.0,-14.0,-21.0,-10.0,-5.0,-31.0,-283.0,0.0
-73.0,-52.0,-1.0,-21.0,-29.0,-27.0,-17.0,-21.0,-37.0,-251.0,0.0
-61.0,-57.0,13.0,-23.0,-44.0,-38.0,-38.0,-48.0,-43.0,-107.0,0.0
-55.0,-56.0,19.0,-18.0,-38.0,-47.0,-49.0,-53.0,-52.0,37.0,0.0
-62.0,-67.0,24.0,-12.0,-38.0,-32.0,-49.0,-57.0,-64.0,132.0,0.0
-68.0,-65.0,22.0,-6.0,-19.0,-15.0,-40.0,-42.0,-60.0,112.0,0.0
-71.0,-39.0,50.0,3.0,-3.0,-6.0,-20.0,-30.0,-53.0,10.0,0.0
-65.0,-1.0,64.0,25.0,5.0,4.0,11.0,-6.0,-29.0,-127.0,0.0
-33.0,40.0,66.0,49.0,18.0,18.0,37.0,7.0,-4.0,-176.0,0.0
51.0,94.0,59.0,51.0,20.0,37.0,51.0,19.0,14.0,-71.0,0.0
117.0,91.0,38.0,30.0,22.0,47.0,70.0,39.0,37.0,10.0,0.0
81.0,45.0,23.0,10.0,17.0,31.0,50.0,24.0,39.0,32.0,0.0
30.0,19.0,32.0,15.0,25.0,27.0,35.0,13.0,35.0,40.0,0.0
5.0,-44.0,19.0,7.0,47.0,51.0,39.0,21.0,32.0,16.0,0.0
-15.0,-40.0,17.0,0.0,52.0,60.0,57.0,42.0,58.0,-39.0,0.0
12.0,22.0,40.0,42.0,26.0,6.0,-10.0,0.0,-16.0,-98.0,0.0
3.0,15.0,50.0,51.0,24.0,6.0,-11.0,-13.0,10.0,-71.0,0.0
-22.0,-42.0,24.0,29.0,19.0,-28.0,-52.0,-40.0,-75.0,-96.0,0.0
-20.0,-56.0,-17.0,5.0,6.0,-38.0,-46.0,-40.0,-87.0,-77.0,0.0
0.0,-22.0,-57.0,-2.0,-17.0,-28.0,-35.0,-44.0,-21.0,-14.0,0.0
19.0,59.0,29.0,-2.0,-13.0,-31.0,-25.0,-56.0,-8.0,20.0,0.0
23.0,110.0,80.0,26.0,-2.0,-25.0,-31.0,-54.0,0.0,23.0,0.0
31.0,116.0,82.0,30.0,1.0,-27.0,-40.0,-53.0,-9.0,29.0,0.0
12.0,67.0,44.0,4.0,-3.0,-36.0,-33.0,-37.0,-52.0,1.0,0.0
-5.0,31.0,16.0,5.0,4.0,0.0,1.0,-8.0,-9.0,0.0,0.0
-10.0,3.0,1.0,10.0,9.0,4.0,-6.0,-19.0,15.0,11.0,0.0
0.0,-29.0,-21.0,-5.0,1.0,-3.0,-25.0,-35.0,8.0,43.0,0.0
3.0,-48.0,-37.0,-20.0,-3.0,-8.0,-28.0,-41.0,9.0,63.0,0.0
-2.0,-72.0,-60.0,-51.0,-40.0,-27.0,-31.0,-55.0,-9.0,71.0,0.0
7.0,-98.0,-97.0,-87.0,-61.0,-45.0,-23.0,-64.0,-29.0,131.0,0.0
37.0,-99.0,-124.0,-91.0,-54.0,-48.0,-32.0,-64.0,-23.0,201.0,0.0
26.0,-86.0,-115.0,-82.0,-48.0,-47.0,-18.0,-43.0,-11.0,180.0,0.0
0.0,-96.0,-92.0,-53.0,-44.0,-19.0,17.0,-21.0,-3.0,95.0,0.0
-17.0,-104.0,-83.0,-30.0,-21.0,8.0,47.0,2.0,13.0,-17.0,0.0
-53.0,-60.0,-49.0,3.0,26.0,57.0,85.0,82.0,100.0,-143.0,0.0
-55.0,-22.0,-5.0,22.0,45.0,62.0,95.0,101.0,99.0,-135.0,0.0
-55.0,-11.0,13.0,27.0,41.0,42.0,66.0,71.0,32.0,-159.0,0.0
-41.0,-19.0,26.0,4.0,16.0,-9.0,3.0,17.0,-87.0,-144.0,0.0
-13.0,9.0,29.0,16.0,4.0,0.0,12.0,1.0,-28.0,25.0,0.0
22.0,31.0,55.0,37.0,10.0,13.0,23.0,13.0,20.0,55.0,0.0
58.0,75.0,68.0,64.0,21.0,24.0,37.0,33.0,21.0,-83.0,0.0
72.0,118.0,65.0,83.0,37.0,27.0,46.0,43.0,28.0,-85.0,0.0
74.0,115.0,60.0,84.0,37.0,21.0,35.0,47.0,49.0,-73.0,0.0
61.0,102.0,55.0,84.0,38.0,14.0,30.0,44.0,41.0,-142.0,0.0
40.0,82.0,49.0,67.0,34.0,1.0,17.0,35.0,23.0,-115.0,0.0
29.0,43.0,53.0,46.0,33.0,-5.0,10.0,19.0,24.0,-54.0,0.0
25.0,11.0,63.0,33.0,21.0,-12.0,8.0,2.0,20.0,-22.0,0.0
29.0,-1.0,73.0,28.0,17.0,-16.0,13.0,3.0,14.0,-11.0,0.0
32.0,-9.0,50.0,16.0,25.0,-9.0,15.0,12.0,18.0,0.0,0.0
32.0,4.0,30.0,17.0,25.0,-10.0,22.0,13.0,26.0,-4.0,0.0
16.0,9.0,33.0,12.0,18.0,-7.0,20.0,2.0,8.0,-10.0,0.0
12.0,-5.0,29.0,4.0,0.0,-31.0,-17.0,-13.0,-14.0,30.0,0.0
22.0,-6.0,23.0,5.0,-12.0,-49.0,-40.0,-21.0,-27.0,39.0,0.0
24.0,9.0,25.0,22.0,-7.0,-51.0,-35.0,-23.0,-26.0,1.0,0.0
17.0,10.0,30.0,29.0,-11.0,-46.0,-44.0,-25.0,-26.0,-14.0,0.0
14.0,0.0,26.0,1.0,-22.0,-54.0,-45.0,-28.0,-25.0,0.0,0.0
3.0,-5.0,23.0,-24.0,-25.0,-72.0,-58.0,-32.0,-44.0,19.0,0.0
-12.0,-15.0,13.0,-30.0,-26.0,-70.0,-47.0,-33.0,-44.0,37.0,0.0
-19.0,-39.0,-6.0,-55.0,-32.0,-40.0,-37.0,-19.0,-23.0,67.0,0.0
-37.0,-143.0,-95.0,-120.0,-63.0,-31.0,-40.0,-32.0,0.0,158.0,0.0
-17.0,-194.0,-109.0,-106.0,-60.0,-13.0,-16.0,-15.0,14.0,213.0,0.0
2.0,-144.0,-91.0,-80.0,-44.0,-4.0,13.0,-3.0,3.0,236.0,0.0
36.0,31.0,-62.0,-41.0,-2.0,-11.0,18.0,-3.0,-60.0,235.0,0.0
63.0,66.0,-36.0,-1.0,27.0,16.0,54.0,15.0,28.0,181.0,0.0
55.0,36.0,0.0,32.0,42.0,37.0,62.0,37.0,20.0,-18.0,0.0
34.0,0.0,20.0,29.0,48.0,21.0,42.0,37.0,-47.0,-187.0,0.0
24.0,16.0,30.0,29.0,44.0,28.0,47.0,33.0,-19.0,-203.0,0.0
11.0,56.0,33.0,20.0,45.0,53.0,47.0,33.0,58.0,-201.0,0.0
-19.0,59.0,36.0,13.0,32.0,49.0,46.0,37.0,59.0,-256.0,0.0
-29.0,30.0,38.0,-2.0,14.0,8.0,11.0,5.0,-1.0,-246.0,0.0
-8.0,22.0,45.0,-14.0,5.0,-30.0,-30.0,-24.0,-70.0,-171.0,0.0
14.0,57.0,53.0,-11.0,-9.0,-17.0,-23.0,-26.0,-21.0,-92.0,0.0
9.0,57.0,35.0,-22.0,-25.0,-20.0,-31.0,-29.0,-13.0,-49.0,0.0
0.0,31.0,0.0,-36.0,-20.0,-27.0,-35.0,-35.0,-7.0,-25.0,0.0
-9.0,11.0,-35.0,-46.0,-30.0,-22.0,-34.0,-47.0,-19.0,-7.0,0.0
0.0,5.0,-58.0,-46.0,-49.0,-17.0,-21.0,-39.0,-9.0,28.0,0.0
11.0,9.0,-63.0,-36.0,-51.0,0.0,8.0,-10.0,2.0,82.0,0.0
50.0,14.0,-36.0,-12.0,-23.0,49.0,56.0,33.0,25.0,126.0,0.0
71.0,28.0,7.0,15.0,8.0,70.0,72.0,44.0,48.0,78.0,0.0
29.0,29.0,32.0,39.0,8.0,45.0,36.0,28.0,33.0,-29.0,0.0
15.0,48.0,22.0,48.0,-13.0,8.0,5.0,13.0,13.0,-42.0,0.0
-31.0,9.0,36.0,37.0,-33.0,4.0,-8.0,-2.0,10.0,-8.0,0.0
-36.0,-74.0,10.0,22.0,-29.0,13.0,3.0,5.0,7.0,2.0,0.0
-29.0,-131.0,-21.0,3.0,-18.0,9.0,4.0,13.0,-36.0,0.0,0.0
-28.0,-120.0,-43.0,-15.0,-16.0,7.0,4.0,19.0,-69.0,31.0,0.0
-5.0,-49.0,-46.0,-11.0,-17.0,26.0,24.0,35.0,28.0,111.0,0.0
2.0,-25.0,-31.0,-12.0,-18.0,24.0,18.0,19.0,46.0,100.0,0.0
4.0,-28.0,-23.0,-12.0,-17.0,30.0,26.0,29.0,58.0,56.0,0.0
-5.0,-44.0,-24.0,-21.0,-12.0,23.0,16.0,34.0,58.0,79.0,0.0
-23.0,-61.0,-26.0,-26.0,-34.0,8.0,-5.0,2.0,35.0,96.0,0.0
-20.0,-67.0,-43.0,-28.0,-59.0,-11.0,-12.0,-21.0,10.0,136.0,0.0
4.0,-52.0,-42.0,-24.0,-58.0,-23.0,-21.0,-31.0,3.0,138.0,0.0
21.0,-7.0,-27.0,-7.0,-41.0,-20.0,-34.0,-35.0,3.0,111.0,0.0
27.0,39.0,-29.0,8.0,-14.0,-2.0,-23.0,-26.0,16.0,62.0,0.0
16.0,76.0,-30.0,-5.0,1.0,15.0,-6.0,-1.0,19.0,-16.0,0.0
7.0,76.0,-25.0,-40.0,-2.0,16.0,-4.0,11.0,24.0,-35.0,0.0
-1.0,43.0,-8.0,-50.0,-7.0,4.0,-4.0,8.0,29.0,3.0,0.0
-24.0,19.0,21.0,-36.0,-20.0,-9.0,-14.0,0.0,22.0,1.0,0.0
-60.0,-18.0,38.0,-4.0,-10.0,7.0,-6.0,3.0,6.0,-52.0,0.0
-96.0,-46.0,25.0,15.0,17.0,44.0,17.0,16.0,7.0,-96.0,0.0
-94.0,-63.0,-11.0,12.0,27.0,58.0,35.0,25.0,2.0,-87.0,0.0
-83.0,-68.0,-23.0,3.0,14.0,46.0,29.0,14.0,-8.0,-35.0,0.0
-57.0,-55.0,-33.0,-19.0,3.0,27.0,20.0,12.0,-10.0,1.0,0.0
-40.0,-33.0,-34.0,-12.0,6.0,13.0,19.0,-4.0,-5.0,-7.0,0.0
-30.0,7.0,-19.0,3.0,10.0,13.0,9.0,-18.0,-25.0,-44.0,0.0
-34.0,18.0,-7.0,8.0,15.0,23.0,5.0,-5.0,-22.0,-67.0,0.0
-2.0,72.0,40.0,33.0,18.0,-2.0,15.0,15.0,0.0,-74.0,0.0
15.0,97.0,59.0,54.0,18.0,-7.0,9.0,6.0,13.0,-46.0,0.0
23.0,104.0,85.0,69.0,34.0,0.0,-2.0,-8.0,-4.0,-69.0,0.0
13.0,58.0,113.0,78.0,58.0,-39.0,-55.0,-39.0,-148.0,-134.0,0.0
27.0,88.0,86.0,83.0,53.0,7.0,-3.0,-9.0,-13.0,-58.0,0.0
23.0,89.0,61.0,62.0,29.0,5.0,-8.0,-5.0,3.0,-31.0,0.0
15.0,87.0,55.0,35.0,17.0,-8.0,-34.0,-11.0,-65.0,-33.0,0.0
6.0,85.0,65.0,22.0,18.0,-29.0,-25.0,-13.0,-74.0,-20.0,0.0
1.0,66.0,46.0,9.0,15.0,3.0,0.0,10.0,12.0,6.0,0.0
-9.0,34.0,-3.0,-15.0,4.0,10.0,2.0,16.0,31.0,26.0,0.0
-18.0,-5.0,-42.0,-47.0,-13.0,10.0,11.0,10.0,39.0,39.0,0.0
-36.0,-63.0,-56.0,-71.0,-23.0,26.0,34.0,26.0,58.0,38.0,0.0
-49.0,-128.0,-76.0,-75.0,-21.0,16.0,47.0,35.0,64.0,34.0,0.0
-30.0,-97.0,-68.0,-54.0,-7.0,8.0,30.0,19.0,46.0,39.0,0.0
-1.0,3.0,-33.0,-22.0,-11.0,0.0,-4.0,7.0,21.0,49.0,0.0
5.0,75.0,-35.0,-9.0,-22.0,-18.0,-14.0,4.0,13.0,70.0,0.0
10.0,70.0,-39.0,-36.0,-32.0,-20.0,-16.0,-18.0,14.0,96.0,0.0
-3.0,56.0,-31.0,-50.0,-30.0,-9.0,-23.0,-22.0,7.0,120.0,0.0
-12.0,53.0,-33.0,-38.0,-16.0,-14.0,-25.0,-19.0,-4.0,69.0,0.0
-15.0,45.0,-32.0,-31.0,-13.0,-14.0,-18.0,-28.0,-12.0,-31.0,0.0
-16.0,34.0,-29.0,-8.0,-21.0,-19.0,-14.0,-20.0,-11.0,-30.0,0.0
-10.0,21.0,-23.0,10.0,-14.0,-31.0,-17.0,-18.0,-21.0,59.0,0.0
-13.0,-12.0,-15.0,18.0,2.0,-23.0,-5.0,-10.0,-19.0,111.0,0.0
-30.0,-28.0,5.0,41.0,17.0,10.0,28.0,19.0,-5.0,-8.0,0.0
-41.0,6.0,55.0,74.0,43.0,24.0,36.0,54.0,15.0,-219.0,0.0
-31.0,10.0,62.0,81.0,47.0,25.0,28.0,57.0,24.0,-187.0,0.0
-8.0,-32.0,9.0,40.0,20.0,26.0,15.0,31.0,15.0,-54.0,0.0
-12.0,-52.0,-36.0,1.0,3.0,17.0,9.0,23.0,14.0,6.0,0.0
-21.0,-40.0,-62.0,-19.0,5.0,29.0,26.0,26.0,20.0,15.0,0.0
-15.0,-16.0,-54.0,-24.0,14.0,38.0,38.0,19.0,15.0,5.0,0.0
3.0,17.0,-11.0,-6.0,15.0,13.0,23.0,-11.0,0.0,-11.0,0.0
13.0,39.0,32.0,-10.0,5.0,-10.0,7.0,-35.0,-11.0,-37.0,0.0
13.0,41.0,44.0,-18.0,4.0,-12.0,-10.0,-35.0,-12.0,-71.0,0.0
6.0,32.0,54.0,-14.0,14.0,-2.0,-4.0,-26.0,-6.0,-94.0,0.0
-6.0,11.0,51.0,-14.0,1.0,-19.0,-15.0,-32.0,-7.0,-52.0,0.0
-15.0,-30.0,31.0,-34.0,-16.0,-19.0,-14.0,-32.0,-23.0,31.0,0.0
2.0,-37.0,44.0,-8.0,5.0,0.0,1.0,-1.0,5.0,115.0,0.0
17.0,-50.0,41.0,4.0,8.0,24.0,15.0,35.0,39.0,160.0,0.0
-1.0,-78.0,-7.0,-13.0,-6.0,24.0,12.0,28.0,32.0,107.0,0.0
-29.0,-91.0,-27.0,-30.0,-19.0,10.0,-2.0,4.0,2.0,-36.0,0.0
-52.0,-95.0,-35.0,-31.0,-31.0,4.0,-11.0,-8.0,-4.0,-161.0,0.0
-66.0,-94.0,-62.0,-41.0,-50.0,-1.0,-12.0,-7.0,-4.0,-139.0,0.0
-40.0,-71.0,-60.0,-54.0,-46.0,-12.0,-22.0,-18.0,5.0,1.0,0.0
-8.0,-52.0,-48.0,-56.0,-33.0,-19.0,-18.0,-30.0,2.0,101.0,0.0
15.0,-39.0,-65.0,-44.0,-29.0,-9.0,2.0,-21.0,2.0,165.0,0.0
36.0,-1.0,-60.0,-33.0,-19.0,12.0,27.0,-3.0,9.0,196.0,0.0
41.0,47.0,-33.0,5.0,10.0,44.0,53.0,31.0,19.0,143.0,0.0
26.0,87.0,0.0,45.0,34.0,64.0,78.0,60.0,40.0,-62.0,0.0
-1.0,78.0,15.0,59.0,42.0,61.0,66.0,55.0,35.0,-190.0,0.0
-10.0,11.0,-21.0,31.0,14.0,37.0,33.0,29.0,20.0,-92.0,0.0
6.0,-16.0,-44.0,14.0,1.0,39.0,23.0,38.0,41.0,13.0,0.0
12.0,-1.0,-28.0,14.0,10.0,48.0,26.0,47.0,57.0,4.0,0.0
16.0,5.0,-15.0,26.0,10.0,43.0,17.0,41.0,40.0,-47.0,0.0
26.0,11.0,-10.0,31.0,8.0,28.0,13.0,31.0,21.0,-52.0,0.0
27.0,35.0,-19.0,18.0,-12.0,-5.0,-14.0,10.0,11.0,-27.0,0.0
23.0,34.0,-12.0,-12.0,-46.0,-48.0,-46.0,-29.0,-5.0,-1.0,0.0
22.0,33.0,22.0,7.0,-31.0,-50.0,-55.0,-28.0,-2.0,14.0,0.0
17.0,18.0,31.0,27.0,-12.0,-37.0,-37.0,-15.0,0.0,47.0,0.0
20.0,-9.0,16.0,35.0,1.0,-23.0,-23.0,-11.0,1.0,121.0,0.0
29.0,-43.0,0.0,40.0,6.0,-11.0,-9.0,-25.0,4.0,183.0,0.0
35.0,-49.0,-2.0,51.0,6.0,-6.0,-6.0,-23.0,-2.0,146.0,0.0
32.0,-22.0,14.0,29.0,-6.0,-1.0,-8.0,-29.0,-7.0,106.0,0.0
36.0,-5.0,18.0,-10.0,-18.0,-4.0,-9.0,-24.0,-4.0,112.0,0.0
51.0,22.0,23.0,-11.0,-30.0,-24.0,-25.0,-33.0,-12.0,112.0,0.0
57.0,31.0,36.0,-11.0,-38.0,-48.0,-51.0,-52.0,-20.0,84.0,0.0
46.0,5.0,22.0,-42.0,-62.0,-58.0,-71.0,-71.0,-34.0,72.0,0.0
18.0,-9.0,12.0,-46.0,-52.0,-55.0,-60.0,-56.0,-40.0,54.0,0.0
-12.0,-17.0,-4.0,-25.0,-44.0,-31.0,-39.0,-32.0,-33.0,38.0,0.0
-28.0,-23.0,-24.0,-19.0,-24.0,-9.0,-9.0,-20.0,-5.0,38.0,0.0
-31.0,-17.0,-14.0,-24.0,-11.0,6.0,5.0,-4.0,7.0,40.0,0.0
-59.0,1.0,-21.0,-24.0,9.0,37.0,44.0,23.0,28.0,-17.0,0.0
-85.0,30.0,-25.0,-8.0,32.0,50.0,60.0,62.0,49.0,-142.0,0.0
-84.0,63.0,1.0,2.0,34.0,47.0,56.0,67.0,38.0,-206.0,0.0
-70.0,53.0,2.0,13.0,28.0,19.0,35.0,41.0,0.0,-204.0,0.0
-65.0,3.0,-18.0,5.0,12.0,-3.0,10.0,3.0,-32.0,-190.0,0.0
-66.0,-34.0,-40.0,-20.0,-11.0,-15.0,-16.0,-13.0,-48.0,-118.0,0.0
-50.0,-67.0,-61.0,-37.0,-30.0,-32.0,-29.0,-11.0,-43.0,-47.0,0.0
-48.0,-107.0,-54.0,-41.0,-22.0,-29.0,-24.0,-4.0,-32.0,-21.0,0.0
-45.0,-73.0,-40.0,-14.0,-9.0,-14.0,-29.0,3.0,-42.0,-23.0,0.0
-8.0,31.0,-17.0,2.0,4.0,-6.0,-37.0,2.0,-38.0,0.0,0.0
39.0,149.0,37.0,30.0,28.0,-1.0,-30.0,-4.0,-27.0,36.0,0.0
100.0,212.0,121.0,87.0,59.0,9.0,-1.0,19.0,-5.0,54.0,0.0
168.0,201.0,148.0,124.0,86.0,25.0,32.0,58.0,28.0,64.0,0.0
125.0,140.0,100.0,108.0,80.0,37.0,17.0,59.0,29.0,-22.0,0.0
54.0,101.0,70.0,74.0,56.0,20.0,-7.0,31.0,9.0,-81.0,0.0
27.0,78.0,60.0,46.0,31.0,-2.0,-35.0,17.0,-2.0,-84.0,0.0
20.0,34.0,48.0,37.0,9.0,-8.0,-50.0,13.0,-19.0,-54.0,0.0
0.0,-12.0,38.0,34.0,6.0,-7.0,-40.0,0.0,-25.0,-26.0,0.0
-9.0,-51.0,18.0,24.0,-2.0,-7.0,-19.0,14.0,-23.0,-10.0,0.0
-9.0,-71.0,-3.0,3.0,-17.0,1.0,-3.0,23.0,0.0,2.0,0.0
-31.0,-90.0,-20.0,-7.0,-6.0,15.0,15.0,31.0,7.0,15.0,0.0
-44.0,-106.0,-53.0,-32.0,-2.0,21.0,11.0,23.0,4.0,42.0,0.0
-52.0,-114.0,-81.0,-63.0,-23.0,1.0,12.0,11.0,-6.0,81.0,0.0
-62.0,-122.0,-90.0,-78.0,-47.0,-16.0,3.0,6.0,-7.0,102.0,0.0
-50.0,-132.0,-87.0,-81.0,-44.0,-21.0,-1.0,0.0,1.0,106.0,0.0
-39.0,-129.0,-68.0,-60.0,-33.0,-24.0,-2.0,-6.0,-2.0,112.0,0.0
-14.0,-97.0,-62.0,-48.0,-31.0,-26.0,-11.0,-8.0,4.0,134.0,0.0
18.0,-69.0,-54.0,-28.0,-12.0,-7.0,-10.0,3.0,22.0,127.0,0.0
19.0,-40.0,-27.0,3.0,11.0,24.0,1.0,24.0,37.0,88.0,0.0
-4.0,-16.0,2.0,36.0,31.0,36.0,26.0,35.0,37.0,-20.0,0.0
-24.0,-1.0,18.0,45.0,33.0,17.0,30.0,37.0,21.0,-124.0,0.0
-26.0,12.0,16.0,46.0,13.0,-1.0,15.0,24.0,7.0,-132.0,0.0
-14.0,37.0,27.0,42.0,6.0,-3.0,1.0,14.0,-1.0,-131.0,0.0
-2.0,48.0,40.0,52.0,6.0,-15.0,-6.0,-4.0,-11.0,-137.0,0.0
0.0,26.0,46.0,36.0,6.0,-24.0,-11.0,-2.0,-13.0,-113.0,0.0
3.0,5.0,25.0,17.0,-1.0,-37.0,-14.0,-5.0,-7.0,-85.0,0.0
2.0,10.0,0.0,5.0,-5.0,-45.0,-24.0,-12.0,-13.0,-76.0,0.0
-1.0,45.0,-8.0,6.0,-9.0,-43.0,-30.0,-25.0,-10.0,-52.0,0.0
5.0,32.0,5.0,11.0,-4.0,-35.0,-21.0,-33.0,-7.0,16.0,0.0
0.0,4.0,19.0,1.0,5.0,-16.0,-17.0,-17.0,-1.0,116.0,0.0
17.0,7.0,18.0,7.0,9.0,-15.0,-14.0,-13.0,-3.0,165.0,0.0
47.0,43.0,27.0,28.0,10.0,-18.0,-12.0,-13.0,3.0,76.0,0.0
53.0,51.0,26.0,21.0,3.0,-27.0,-16.0,-18.0,6.0,-8.0,0.0
43.0,30.0,5.0,-1.0,-10.0,-47.0,-34.0,-39.0,-4.0,34.0,0.0
24.0,21.0,-25.0,-16.0,-15.0,-52.0,-32.0,-56.0,-16.0,82.0,0.0
-3.0,19.0,-45.0,-31.0,-22.0,-47.0,-40.0,-62.0,-30.0,125.0,0.0
-22.0,22.0,-33.0,-52.0,-33.0,-47.0,-51.0,-58.0,-36.0,197.0,0.0
-1.0,33.0,-11.0,-46.0,-26.0,-36.0,-52.0,-43.0,-39.0,219.0,0.0
7.0,29.0,6.0,-22.0,-9.0,-7.0,-35.0,-25.0,-24.0,148.0,0.0
-12.0,40.0,48.0,-1.0,15.0,27.0,-22.0,-10.0,-15.0,33.0,0.0
-16.0,54.0,71.0,21.0,33.0,41.0,5.0,13.0,6.0,-133.0,0.0
-7.0,53.0,61.0,26.0,37.0,59.0,26.0,40.0,16.0,-294.0,0.0
-11.0,44.0,40.0,12.0,46.0,64.0,37.0,43.0,17.0,-213.0,0.0
-15.0,10.0,15.0,16.0,41.0,51.0,63.0,45.0,39.0,-57.0,0.0
-8.0,-21.0,27.0,35.0,49.0,63.0,73.0,58.0,50.0,-65.0,0.0
-11.0,-23.0,57.0,42.0,55.0,57.0,70.0,41.0,37.0,-138.0,0.0
-9.0,-20.0,57.0,48.0,47.0,55.0,44.0,38.0,34.0,-90.0,0.0
2.0,-28.0,21.0,31.0,40.0,42.0,45.0,53.0,46.0,20.0,0.0
-8.0,-59.0,-37.0,-21.0,9.0,13.0,24.0,40.0,50.0,92.0,0.0
-20.0,-61.0,-65.0,-47.0,-25.0,-2.0,15.0,26.0,43.0,87.0,0.0
-16.0,-40.0,-49.0,-53.0,-43.0,-8.0,16.0,17.0,35.0,74.0,0.0
-6.0,-23.0,-43.0,-50.0,-28.0,-15.0,1.0,5.0,15.0,73.0,0.0
-2.0,-24.0,-39.0,-36.0,-19.0,-37.0,-22.0,-11.0,5.0,64.0,0.0
6.0,-39.0,-29.0,-19.0,-19.0,-47.0,-44.0,-27.0,-6.0,69.0,0.0
23.0,-42.0,-17.0,-7.0,-24.0,-41.0,-47.0,-30.0,-4.0,78.0,0.0
29.0,-13.0,9.0,10.0,-9.0,-37.0,-33.0,-27.0,6.0,59.0,0.0
32.0,43.0,32.0,24.0,11.0,-31.0,-16.0,-23.0,15.0,55.0,0.0
40.0,89.0,61.0,41.0,18.0,-9.0,1.0,0.0,10.0,38.0,0.0
42.0,79.0,67.0,47.0,28.0,8.0,15.0,1.0,5.0,6.0,0.0
56.0,28.0,54.0,31.0,22.0,2.0,-1.0,-3.0,0.0,31.0,0.0
49.0,-17.0,34.0,11.0,-4.0,-14.0,-26.0,-30.0,-29.0,89.0,0.0
43.0,-25.0,-5.0,-26.0,-34.0,-33.0,-33.0,-59.0,-60.0,100.0,0.0
39.0,-6.0,-38.0,-50.0,-50.0,-38.0,-41.0,-67.0,-62.0,45.0,0.0
31.0,-4.0,-44.0,-48.0,-40.0,-36.0,-46.0,-55.0,-67.0,16.0,0.0
22.0,-27.0,-45.0,-77.0,-52.0,-49.0,-43.0,-56.0,-65.0,66.0,0.0
-1.0,-69.0,-49.0,-98.0,-71.0,-62.0,-51.0,-60.0,-63.0,118.0,0.0
-19.0,-56.0,-33.0,-84.0,-53.0,-31.0,-26.0,-40.0,-42.0,126.0,0.0
-33.0,18.0,-28.0,-43.0,-15.0,21.0,28.0,7.0,-13.0,49.0,0.0
-40.0,116.0,6.0,-1.0,21.0,55.0,63.0,32.0,-10.0,-106.0,0.0
-37.0,149.0,45.0,20.0,29.0,52.0,56.0,32.0,-7.0,-181.0,0.0
-10.0,135.0,67.0,36.0,36.0,41.0,45.0,28.0,10.0,-186.0,0.0
0.0,105.0,87.0,50.0,42.0,32.0,16.0,30.0,10.0,-229.0,0.0
-5.0,61.0,107.0,54.0,37.0,19.0,-2.0,22.0,1.0,-210.0,0.0
-6.0,11.0,115.0,69.0,23.0,11.0,0.0,17.0,0.0,-157.0,0.0
-2.0,-18.0,118.0,79.0,19.0,-2.0,-5.0,7.0,0.0,-121.0,0.0
1.0,-22.0,88.0,63.0,20.0,-12.0,-16.0,0.0,-7.0,-81.0,0.0
-3.0,-24.0,50.0,48.0,22.0,-23.0,-14.0,-3.0,-18.0,-48.0,0.0
-2.0,-41.0,1.0,45.0,31.0,-24.0,-15.0,-10.0,-6.0,-17.0,0.0
9.0,-43.0,-36.0,30.0,16.0,-24.0,-23.0,-11.0,7.0,13.0,0.0
18.0,-43.0,-70.0,18.0,-1.0,-15.0,-21.0,-6.0,14.0,14.0,0.0
5.0,-53.0,-89.0,-2.0,-13.0,0.0,13.0,7.0,34.0,22.0,0.0
-18.0,-70.0,-97.0,-21.0,-16.0,27.0,52.0,22.0,48.0,37.0,0.0
-19.0,-74.0,-106.0,-19.0,-1.0,29.0,49.0,27.0,45.0,24.0,0.0
0.0,-50.0,-105.0,-15.0,0.0,37.0,36.0,32.0,40.0,14.0,0.0
5.0,-42.0,-110.0,-15.0,-19.0,29.0,36.0,27.0,28.0,18.0,0.0
-2.0,-43.0,-105.0,-24.0,-37.0,7.0,29.0,18.0,25.0,17.0,0.0
-16.0,-51.0,-64.0,-24.0,-35.0,5.0,26.0,13.0,15.0,0.0,0.0
-37.0,-62.0,-18.0,-23.0,-32.0,1.0,40.0,8.0,-3.0,-22.0,0.0
-34.0,-63.0,3.0,-23.0,-28.0,3.0,14.0,0.0,-13.0,-18.0,0.0
-12.0,-52.0,0.0,-23.0,-25.0,-10.0,-2.0,-9.0,-13.0,-10.0,0.0
-7.0,-37.0,-17.0,-26.0,-30.0,-33.0,-7.0,-17.0,-18.0,5.0,0.0
-21.0,-19.0,-32.0,-18.0,-38.0,-45.0,-17.0,-30.0,-32.0,19.0,0.0
-36.0,-24.0,-38.0,-17.0,-38.0,-52.0,-23.0,-39.0,-36.0,43.0,0.0
-33.0,-44.0,-34.0,-15.0,-40.0,-54.0,-32.0,-60.0,-40.0,59.0,0.0
-26.0,-35.0,0.0,-23.0,-35.0,-55.0,-44.0,-68.0,-44.0,61.0,0.0
29.0,-15.0,28.0,-22.0,-26.0,-44.0,-10.0,-46.0,-30.0,68.0,0.0
120.0,18.0,25.0,-2.0,1.0,4.0,36.0,4.0,-4.0,66.0,0.0
127.0,46.0,26.0,16.0,14.0,-3.0,28.0,3.0,-4.0,24.0,0.0
94.0,66.0,39.0,28.0,24.0,-18.0,13.0,-12.0,-13.0,-31.0,0.0
74.0,83.0,81.0,46.0,36.0,-15.0,6.0,-4.0,-12.0,-70.0,0.0
77.0,100.0,112.0,80.0,49.0,-9.0,19.0,12.0,1.0,-122.0,0.0
74.0,114.0,117.0,94.0,54.0,9.0,18.0,13.0,-6.0,-117.0,0.0
49.0,90.0,67.0,58.0,39.0,7.0,1.0,0.0,-17.0,-24.0,0.0
34.0,74.0,29.0,17.0,29.0,-10.0,-2.0,-11.0,-22.0,39.0,0.0
24.0,29.0,-17.0,-13.0,13.0,-5.0,20.0,-5.0,-8.0,39.0,0.0
19.0,-27.0,-66.0,-56.0,7.0,23.0,49.0,21.0,11.0,23.0,0.0
20.0,-59.0,-92.0,-61.0,21.0,53.0,76.0,40.0,26.0,-18.0,0.0
6.0,-72.0,-116.0,-54.0,28.0,61.0,74.0,44.0,42.0,-44.0,0.0
4.0,-63.0,-99.0,-40.0,23.0,61.0,56.0,36.0,35.0,-26.0,0.0
-3.0,-59.0,-63.0,-46.0,-4.0,28.0,28.0,0.0,15.0,-1.0,0.0
-21.0,-73.0,-44.0,-47.0,-35.0,-10.0,-1.0,-38.0,-4.0,-15.0,0.0
-42.0,-82.0,-27.0,-40.0,-47.0,-24.0,-1.0,-34.0,-7.0,-29.0,0.0
-54.0,-67.0,-6.0,-18.0,-51.0,-27.0,-14.0,-40.0,-22.0,-10.0,0.0
-31.0,-23.0,20.0,3.0,-41.0,-38.0,-26.0,-55.0,-30.0,52.0,0.0
15.0,34.0,48.0,19.0,-26.0,-44.0,-42.0,-59.0,-14.0,137.0,0.0
41.0,71.0,71.0,32.0,-1.0,-47.0,-46.0,-60.0,-11.0,171.0,0.0
40.0,103.0,79.0,39.0,20.0,-40.0,-31.0,-51.0,-32.0,136.0,0.0
11.0,103.0,86.0,57.0,44.0,3.0,-13.0,-23.0,-39.0,-10.0,0.0
0.0,79.0,88.0,59.0,60.0,42.0,3.0,-8.0,-16.0,-235.0,0.0
-14.0,64.0,78.0,38.0,55.0,38.0,-5.0,-13.0,3.0,-290.0,0.0
-35.0,28.0,36.0,19.0,25.0,13.0,-17.0,-6.0,7.0,-220.0,0.0
-54.0,-15.0,0.0,-20.0,-15.0,-14.0,-28.0,-17.0,7.0,-166.0,0.0
-81.0,-70.0,-33.0,-65.0,-36.0,-17.0,-20.0,-37.0,0.0,-101.0,0.0
-89.0,-158.0,-44.0,-77.0,-48.0,-3.0,5.0,-29.0,-4.0,14.0,0.0
-94.0,-220.0,-63.0,-75.0,-49.0,-6.0,29.0,-12.0,0.0,175.0,0.0
-70.0,-164.0,-55.0,-63.0,-25.0,-6.0,27.0,-11.0,-11.0,278.0,0.0
-19.0,-41.0,-12.0,-18.0,14.0,13.0,28.0,8.0,5.0,229.0,0.0
33.0,57.0,32.0,36.0,50.0,29.0,26.0,34.0,22.0,174.0,0.0
48.0,88.0,49.0,52.0,53.0,27.0,28.0,36.0,21.0,139.0,0.0
56.0,104.0,53.0,50.0,62.0,35.0,49.0,45.0,36.0,-12.0,0.0
45.0,101.0,56.0,47.0,71.0,41.0,57.0,57.0,35.0,-211.0,0.0
19.0,65.0,44.0,33.0,40.0,23.0,29.0,56.0,28.0,-291.0,0.0
7.0,31.0,18.0,6.0,11.0,-1.0,4.0,17.0,13.0,-224.0,0.0
6.0,-14.0,-2.0,-8.0,-15.0,-25.0,3.0,-12.0,-15.0,-138.0,0.0
0.0,-25.0,-18.0,1.0,-27.0,-38.0,-18.0,-33.0,-13.0,-79.0,0.0
1.0,-15.0,-26.0,26.0,-17.0,-38.0,-36.0,-32.0,0.0,-13.0,0.0
12.0,-3.0,-24.0,30.0,0.0,-21.0,-24.0,-31.0,2.0,36.0,0.0
13.0,15.0,-17.0,13.0,9.0,-6.0,-6.0,-37.0,3.0,87.0,0.0
18.0,67.0,5.0,13.0,-2.0,-22.0,-14.0,-60.0,-11.0,143.0,0.0
23.0,89.0,10.0,6.0,-15.0,-50.0,-41.0,-87.0,-26.0,173.0,0.0
17.0,69.0,0.0,8.0,-12.0,-49.0,-31.0,-60.0,-7.0,165.0,0.0
12.0,26.0,0.0,17.0,2.0,-32.0,-6.0,-27.0,26.0,126.0,0.0
-3.0,-39.0,-23.0,7.0,6.0,-2.0,19.0,0.0,33.0,48.0,0.0
-51.0,-102.0,-54.0,-13.0,18.0,19.0,40.0,7.0,25.0,-60.0,0.0
-80.0,-101.0,-64.0,-14.0,24.0,24.0,48.0,22.0,36.0,-103.0,0.0
-58.0,-54.0,-28.0,34.0,49.0,46.0,75.0,57.0,62.0,-163.0,0.0
-35.0,-2.0,-1.0,63.0,64.0,58.0,82.0,84.0,48.0,-185.0,0.0
-19.0,17.0,18.0,60.0,49.0,37.0,58.0,60.0,21.0,-113.0,0.0
-13.0,17.0,26.0,57.0,39.0,17.0,30.0,24.0,12.0,-41.0,0.0
-1.0,22.0,8.0,40.0,28.0,2.0,16.0,2.0,0.0,5.0,0.0
16.0,29.0,0.0,33.0,22.0,0.0,3.0,11.0,-6.0,15.0,0.0
18.0,48.0,-10.0,23.0,10.0,3.0,6.0,4.0,-17.0,-14.0,0.0
20.0,45.0,-11.0,15.0,-1.0,-10.0,19.0,10.0,-10.0,-46.0,0.0
22.0,10.0,-23.0,-5.0,1.0,-12.0,28.0,18.0,4.0,-55.0,0.0
23.0,-13.0,-19.0,-15.0,11.0,-5.0,21.0,10.0,10.0,-38.0,0.0
27.0,-14.0,-18.0,-10.0,4.0,4.0,14.0,19.0,3.0,-13.0,0.0
22.0,-16.0,-30.0,-2.0,8.0,4.0,28.0,26.0,2.0,-7.0,0.0
18.0,-3.0,-31.0,7.0,5.0,0.0,18.0,10.0,-3.0,-2.0,0.0
8.0,31.0,-6.0,5.0,-15.0,-34.0,-16.0,-21.0,-18.0,0.0,0.0
0.0,33.0,9.0,-5.0,-23.0,-68.0,-32.0,-37.0,-18.0,3.0,0.0
11.0,31.0,30.0,-3.0,-23.0,-57.0,-38.0,-18.0,-14.0,29.0,0.0
19.0,27.0,42.0,4.0,-31.0,-46.0,-51.0,2.0,0.0,81.0,0.0
12.0,-2.0,27.0,11.0,-27.0,-30.0,-23.0,11.0,22.0,102.0,0.0
6.0,-38.0,6.0,-8.0,-4.0,-13.0,0.0,0.0,29.0,88.0,0.0
-5.0,-76.0,-16.0,-34.0,-2.0,-5.0,-7.0,-9.0,22.0,57.0,0.0
-3.0,-83.0,-36.0,-36.0,0.0,-6.0,-7.0,-1.0,12.0,36.0,0.0
-3.0,-63.0,-58.0,-41.0,0.0,-7.0,-1.0,7.0,6.0,13.0,0.0
-14.0,-19.0,-45.0,-41.0,1.0,-7.0,-3.0,0.0,4.0,-29.0,0.0
-17.0,10.0,-20.0,-35.0,-13.0,-11.0,-13.0,-9.0,3.0,-61.0,0.0
-22.0,29.0,-2.0,-11.0,-26.0,-18.0,-27.0,-17.0,2.0,-72.0,0.0
-6.0,43.0,20.0,32.0,-25.0,-29.0,-36.0,-35.0,-12.0,-53.0,0.0
1.0,54.0,39.0,47.0,-27.0,-43.0,-40.0,-40.0,-18.0,-38.0,0.0
21.0,78.0,68.0,44.0,-10.0,-39.0,-35.0,-36.0,-9.0,-5.0,0.0
18.0,92.0,83.0,22.0,-5.0,-41.0,-27.0,-18.0,0.0,20.0,0.0
15.0,80.0,65.0,12.0,13.0,-25.0,-21.0,-3.0,3.0,16.0,0.0
2.0,32.0,22.0,-7.0,33.0,-9.0,-24.0,-1.0,4.0,9.0,0.0
-14.0,-24.0,-36.0,-29.0,46.0,20.0,-6.0,16.0,4.0,14.0,0.0
-23.0,-67.0,-83.0,-54.0,21.0,28.0,14.0,28.0,3.0,25.0,0.0
-25.0,-85.0,-87.0,-57.0,-6.0,30.0,24.0,24.0,0.0,65.0,0.0
-11.0,-64.0,-59.0,-45.0,-13.0,17.0,14.0,16.0,-2.0,91.0,0.0
-15.0,-40.0,-26.0,-39.0,0.0,7.0,13.0,14.0,-6.0,67.0,0.0
-26.0,0.0,-14.0,-35.0,0.0,0.0,15.0,22.0,-9.0,36.0,0.0
-39.0,30.0,0.0,-8.0,9.0,2.0,7.0,23.0,-9.0,-15.0,0.0
-49.0,22.0,10.0,-1.0,10.0,0.0,10.0,30.0,2.0,-40.0,0.0
-54.0,5.0,-8.0,-14.0,5.0,-3.0,3.0,17.0,0.0,-53.0,0.0
-61.0,-16.0,-44.0,-26.0,-10.0,-14.0,-7.0,3.0,-19.0,-83.0,0.0
-70.0,-38.0,-72.0,-30.0,-21.0,-25.0,-25.0,-12.0,-37.0,-99.0,0.0
-69.0,-62.0,-87.0,-43.0,-38.0,-38.0,-36.0,-19.0,-38.0,-89.0,0.0
-53.0,-63.0,-84.0,-47.0,-49.0,-55.0,-53.0,-34.0,-46.0,14.0,0.0
-50.0,-73.0,-65.0,-57.0,-61.0,-69.0,-62.0,-56.0,-64.0,136.0,0.0
-45.0,-53.0,-47.0,-55.0,-69.0,-71.0,-70.0,-54.0,-76.0,213.0,0.0
-5.0,-7.0,3.0,-16.0,-52.0,-55.0,-69.0,-42.0,-65.0,268.0,0.0
55.0,18.0,67.0,42.0,-13.0,-14.0,-35.0,-26.0,-47.0,242.0,0.0
131.0,-3.0,94.0,82.0,36.0,19.0,5.0,5.0,-2.0,110.0,0.0
112.0,-24.0,99.0,86.0,57.0,21.0,10.0,8.0,4.0,-10.0,0.0
64.0,23.0,93.0,64.0,49.0,7.0,-3.0,-10.0,-3.0,-34.0,0.0
48.0,97.0,90.0,53.0,53.0,12.0,-12.0,-8.0,-10.0,-58.0,0.0
46.0,118.0,54.0,43.0,49.0,15.0,8.0,-2.0,-12.0,-17.0,0.0
40.0,96.0,19.0,-2.0,38.0,18.0,14.0,2.0,-7.0,25.0,0.0
27.0,62.0,32.0,-13.0,13.0,17.0,18.0,2.0,0.0,25.0,0.0
0.0,26.0,44.0,-11.0,18.0,24.0,15.0,12.0,-2.0,3.0,0.0
-6.0,31.0,27.0,-4.0,18.0,23.0,7.0,10.0,-1.0,-27.0,0.0
-17.0,4.0,4.0,-20.0,-6.0,0.0,2.0,11.0,13.0,-80.0,0.0
-42.0,-17.0,-8.0,-39.0,-21.0,-23.0,-3.0,8.0,5.0,-88.0,0.0
-38.0,-31.0,18.0,-27.0,-11.0,-28.0,-12.0,8.0,-8.0,-62.0,0.0
-26.0,-48.0,32.0,-3.0,9.0,-18.0,-18.0,26.0,2.0,-41.0,0.0
-35.0,-70.0,-13.0,-16.0,15.0,1.0,13.0,51.0,27.0,-57.0,0.0
-59.0,-72.0,-64.0,-42.0,6.0,22.0,52.0,59.0,29.0,-113.0,0.0
-64.0,-38.0,-72.0,-28.0,-7.0,27.0,43.0,41.0,9.0,-159.0,0.0
-60.0,-6.0,-52.0,-19.0,-13.0,0.0,19.0,21.0,-12.0,-216.0,0.0
-72.0,6.0,-36.0,-20.0,-24.0,-21.0,-9.0,8.0,-30.0,-229.0,0.0
-89.0,11.0,-32.0,-39.0,-47.0,-38.0,-41.0,-13.0,-53.0,-167.0,0.0
-94.0,-16.0,-34.0,-58.0,-68.0,-64.0,-64.0,-44.0,-69.0,-8.0,0.0
-79.0,-43.0,-18.0,-65.0,-68.0,-71.0,-63.0,-51.0,-75.0,206.0,0.0
-46.0,-43.0,15.0,-43.0,-38.0,-40.0,-46.0,-30.0,-47.0,329.0,0.0
7.0,-2.0,42.0,5.0,9.0,14.0,14.0,10.0,-8.0,209.0,0.0
35.0,56.0,58.0,35.0,27.0,46.0,47.0,52.0,21.0,167.0,0.0
38.0,101.0,55.0,40.0,46.0,45.0,43.0,52.0,28.0,210.0,0.0
27.0,88.0,41.0,34.0,53.0,36.0,23.0,41.0,7.0,108.0,0.0
1.0,26.0,-15.0,2.0,15.0,27.0,16.0,13.0,-6.0,20.0,0.0
-20.0,-4.0,-44.0,6.0,3.0,16.0,20.0,6.0,-7.0,-73.0,0.0
-1.0,-4.0,-30.0,25.0,21.0,24.0,26.0,21.0,19.0,-195.0,0.0
-3.0,1.0,8.0,35.0,23.0,39.0,22.0,15.0,26.0,-184.0,0.0
0.0,1.0,45.0,43.0,20.0,33.0,19.0,2.0,26.0,-131.0,0.0
-2.0,-2.0,53.0,54.0,14.0,29.0,18.0,-6.0,22.0,-64.0,0.0
-4.0,-28.0,31.0,47.0,-2.0,35.0,9.0,-5.0,28.0,-40.0,0.0
0.0,-32.0,9.0,30.0,-2.0,52.0,30.0,10.0,30.0,-65.0,0.0
16.0,-19.0,-10.0,-3.0,-1.0,47.0,23.0,10.0,18.0,-42.0,0.0
28.0,-22.0,-29.0,-17.0,-1.0,25.0,11.0,-3.0,28.0,-8.0,0.0
30.0,-33.0,-49.0,-33.0,-16.0,10.0,-2.0,-15.0,29.0,8.0,0.0
22.0,-36.0,-55.0,-79.0,-39.0,2.0,-6.0,-18.0,10.0,-6.0,0.0
-2.0,-56.0,-75.0,-108.0,-51.0,1.0,5.0,-9.0,1.0,-12.0,0.0
-33.0,-75.0,-102.0,-120.0,-56.0,-4.0,11.0,1.0,1.0,-5.0,0.0
-60.0,-60.0,-97.0,-90.0,-48.0,-22.0,0.0,-1.0,-12.0,-40.0,0.0
-64.0,-24.0,-43.0,-36.0,-27.0,-25.0,-6.0,-5.0,-31.0,-87.0,0.0
-53.0,20.0,0.0,2.0,-4.0,-12.0,0.0,-3.0,-31.0,-102.0,0.0
-50.0,50.0,26.0,36.0,5.0,3.0,16.0,-3.0,-34.0,-99.0,0.0
-42.0,55.0,9.0,52.0,6.0,16.0,22.0,-8.0,-23.0,-60.0,0.0
-25.0,63.0,-7.0,52.0,29.0,14.0,43.0,15.0,11.0,0.0,0.0
-16.0,62.0,10.0,44.0,47.0,37.0,70.0,40.0,38.0,27.0,0.0
-4.0,45.0,0.0,28.0,43.0,40.0,68.0,52.0,48.0,23.0,0.0
14.0,35.0,-14.0,0.0,16.0,29.0,54.0,57.0,36.0,1.0,0.0
14.0,-12.0,-45.0,-29.0,-1.0,4.0,17.0,23.0,28.0,-11.0,0.0
5.0,-57.0,-84.0,-56.0,-32.0,-41.0,-20.0,-10.0,20.0,11.0,0.0
-6.0,-66.0,-76.0,-49.0,-57.0,-61.0,-30.0,-26.0,-2.0,32.0,0.0
-20.0,-64.0,-40.0,-40.0,-60.0,-60.0,-29.0,-20.0,-25.0,70.0,0.0
-17.0,-70.0,-15.0,-24.0,-47.0,-34.0,-32.0,-17.0,-30.0,150.0,0.0
-3.0,-79.0,-25.0,-21.0,-39.0,-18.0,-31.0,-15.0,-19.0,237.0,0.0
14.0,-64.0,-25.0,-4.0,-29.0,-6.0,-17.0,-8.0,-14.0,266.0,0.0
22.0,-26.0,-4.0,16.0,-13.0,4.0,-5.0,11.0,-3.0,196.0,0.0
40.0,8.0,7.0,33.0,9.0,24.0,7.0,20.0,16.0,37.0,0.0
44.0,25.0,8.0,45.0,21.0,35.0,15.0,28.0,29.0,-50.0,0.0
28.0,36.0,17.0,49.0,11.0,27.0,16.0,17.0,18.0,-22.0,0.0
22.0,13.0,15.0,42.0,-19.0,9.0,1.0,-14.0,-6.0,-32.0,0.0
6.0,7.0,24.0,58.0,-21.0,6.0,-12.0,-21.0,-19.0,-80.0,0.0
-1.0,27.0,46.0,68.0,-2.0,4.0,-11.0,-5.0,-1.0,-98.0,0.0
20.0,39.0,59.0,76.0,11.0,3.0,-6.0,1.0,0.0,-82.0,0.0
18.0,29.0,59.0,86.0,28.0,9.0,-3.0,-2.0,-9.0,-50.0,0.0
19.0,17.0,39.0,75.0,36.0,7.0,-5.0,7.0,6.0,16.0,0.0
29.0,29.0,34.0,68.0,21.0,-3.0,-1.0,8.0,26.0,41.0,0.0
37.0,48.0,44.0,55.0,0.0,-11.0,4.0,8.0,17.0,-26.0,0.0
35.0,47.0,29.0,36.0,-7.0,-12.0,-2.0,8.0,2.0,-40.0,0.0
28.0,28.0,-8.0,27.0,-11.0,-13.0,-15.0,5.0,-4.0,-21.0,0.0
-12.0,-7.0,-42.0,11.0,-12.0,3.0,-21.0,5.0,-2.0,-8.0,0.0
-54.0,-10.0,-48.0,10.0,3.0,22.0,3.0,8.0,-4.0,-21.0,0.0
-60.0,-42.0,-35.0,7.0,14.0,33.0,24.0,14.0,-7.0,-19.0,0.0
-57.0,-56.0,-34.0,-6.0,12.0,22.0,16.0,12.0,-9.0,22.0,0.0
-30.0,35.0,-25.0,-4.0,-3.0,1.0,-2.0,0.0,4.0,53.0,0.0
-37.0,119.0,9.0,-1.0,-18.0,-7.0,-23.0,-26.0,3.0,-35.0,0.0
-61.0,101.0,24.0,-14.0,-22.0,7.0,-13.0,-32.0,-7.0,-179.0,0.0
-83.0,27.0,12.0,-26.0,-13.0,15.0,7.0,-20.0,0.0,-244.0,0.0
-92.0,-28.0,0.0,-21.0,2.0,14.0,20.0,-9.0,6.0,-272.0,0.0
-56.0,-49.0,0.0,-13.0,9.0,19.0,6.0,-6.0,-2.0,-175.0,0.0
23.0,-40.0,25.0,15.0,18.0,35.0,4.0,2.0,-7.0,23.0,0.0
75.0,-30.0,41.0,33.0,27.0,36.0,13.0,-3.0,-6.0,105.0,0.0
62.0,-31.0,45.0,26.0,19.0,15.0,5.0,-12.0,-14.0,5.0,0.0
64.0,-36.0,47.0,16.0,3.0,-11.0,-17.0,-24.0,-27.0,-70.0,0.0
94.0,-40.0,40.0,9.0,-3.0,-31.0,-45.0,-35.0,-31.0,31.0,0.0
103.0,-41.0,27.0,10.0,-11.0,-39.0,-54.0,-42.0,-30.0,176.0,0.0
115.0,-20.0,38.0,13.0,-16.0,-26.0,-43.0,-40.0,-17.0,277.0,0.0
109.0,2.0,48.0,12.0,-11.0,-10.0,-37.0,-37.0,-17.0,305.0,0.0
93.0,-4.0,41.0,9.0,-10.0,3.0,-23.0,-37.0,-11.0,250.0,0.0
71.0,-3.0,27.0,-1.0,-2.0,11.0,3.0,-15.0,2.0,174.0,0.0
49.0,-11.0,12.0,-12.0,8.0,24.0,39.0,17.0,29.0,72.0,0.0
30.0,-6.0,28.0,-7.0,30.0,50.0,76.0,50.0,37.0,-131.0,0.0
0.0,39.0,47.0,15.0,45.0,58.0,86.0,74.0,27.0,-327.0,0.0
-35.0,65.0,69.0,5.0,38.0,34.0,61.0,54.0,35.0,-337.0,0.0
-57.0,52.0,74.0,-1.0,4.0,10.0,37.0,41.0,44.0,-194.0,0.0
-41.0,29.0,54.0,0.0,-13.0,1.0,21.0,38.0,37.0,-71.0,0.0
-11.0,31.0,30.0,-2.0,-8.0,8.0,11.0,21.0,22.0,-30.0,0.0
-5.0,39.0,10.0,-6.0,-13.0,22.0,16.0,11.0,9.0,-23.0,0.0
-11.0,58.0,3.0,-18.0,-7.0,25.0,8.0,6.0,-9.0,-18.0,0.0
3.0,76.0,31.0,3.0,-6.0,15.0,-3.0,-9.0,-11.0,3.0,0.0
6.0,55.0,43.0,19.0,-6.0,4.0,-5.0,-8.0,3.0,37.0,0.0
0.0,22.0,45.0,27.0,-3.0,-1.0,-8.0,-14.0,11.0,40.0,0.0
-14.0,-6.0,49.0,38.0,-1.0,-13.0,-20.0,-28.0,6.0,23.0,0.0
-32.0,-32.0,54.0,19.0,-7.0,-14.0,-25.0,-34.0,19.0,21.0,0.0
-35.0,-61.0,33.0,-18.0,-15.0,-4.0,-24.0,-19.0,23.0,29.0,0.0
-33.0,-88.0,-6.0,-55.0,-18.0,2.0,-6.0,-18.0,11.0,32.0,0.0
-46.0,-124.0,-59.0,-78.0,-7.0,5.0,11.0,-18.0,-8.0,24.0,0.0
-39.0,-147.0,-87.0,-80.0,-8.0,-7.0,8.0,-16.0,-16.0,43.0,0.0
-24.0,-130.0,-47.0,-60.0,-15.0,-2.0,-2.0,-10.0,-9.0,66.0,0.0
-26.0,-90.0,-4.0,-49.0,-8.0,4.0,-4.0,-3.0,-17.0,48.0,0.0
-23.0,-54.0,-7.0,-46.0,-20.0,10.0,-3.0,-7.0,-19.0,17.0,0.0
-23.0,-49.0,-34.0,-61.0,-26.0,9.0,12.0,0.0,-21.0,15.0,0.0
-13.0,-42.0,-55.0,-71.0,-31.0,2.0,-4.0,3.0,-22.0,33.0,0.0
-6.0,-26.0,-56.0,-60.0,-28.0,-8.0,-27.0,4.0,-16.0,29.0,0.0
-14.0,-52.0,-61.0,-39.0,-24.0,4.0,-31.0,10.0,0.0,21.0,0.0
-19.0,-60.0,-70.0,-19.0,-19.0,10.0,-18.0,8.0,-4.0,26.0,0.0
-11.0,-29.0,-48.0,-3.0,-23.0,-7.0,-15.0,-1.0,-13.0,26.0,0.0
12.0,31.0,-6.0,20.0,-23.0,-16.0,-23.0,-14.0,-24.0,21.0,0.0
29.0,90.0,15.0,32.0,-17.0,-20.0,-27.0,-16.0,-25.0,26.0,0.0
23.0,109.0,27.0,23.0,-14.0,-7.0,-24.0,-16.0,-26.0,28.0,0.0
23.0,91.0,24.0,31.0,0.0,0.0,-17.0,-6.0,-11.0,46.0,0.0
23.0,33.0,-9.0,19.0,-8.0,3.0,-12.0,-12.0,0.0,50.0,0.0
16.0,-22.0,-40.0,-20.0,-21.0,-1.0,-5.0,-12.0,-4.0,47.0,0.0
15.0,-77.0,-61.0,-47.0,-18.0,3.0,17.0,-3.0,-11.0,60.0,0.0
14.0,-82.0,-53.0,-47.0,-8.0,21.0,46.0,12.0,-1.0,69.0,0.0
16.0,-19.0,-12.0,-15.0,8.0,16.0,45.0,18.0,2.0,54.0,0.0
14.0,43.0,27.0,5.0,1.0,-4.0,16.0,-7.0,-13.0,28.0,0.0
29.0,67.0,72.0,30.0,6.0,-3.0,10.0,-16.0,-7.0,64.0,0.0
38.0,84.0,98.0,45.0,20.0,22.0,24.0,12.0,27.0,34.0,0.0
48.0,137.0,121.0,62.0,47.0,52.0,38.0,45.0,53.0,-120.0,0.0
39.0,149.0,128.0,66.0,59.0,51.0,30.0,43.0,50.0,-231.0,0.0
10.0,85.0,100.0,28.0,45.0,22.0,10.0,12.0,26.0,-172.0,0.0
-1.0,20.0,45.0,-21.0,5.0,2.0,-13.0,3.0,18.0,-70.0,0.0
-11.0,-29.0,17.0,-44.0,-32.0,-16.0,-27.0,-11.0,6.0,9.0,0.0
-7.0,-83.0,2.0,-26.0,-34.0,-31.0,-24.0,-13.0,5.0,4.0,0.0
8.0,-70.0,0.0,-6.0,-29.0,-45.0,-31.0,-2.0,9.0,-14.0,0.0
13.0,29.0,3.0,0.0,-7.0,-48.0,-25.0,-2.0,5.0,-13.0,0.0
12.0,117.0,4.0,17.0,11.0,-40.0,-19.0,-9.0,-1.0,-11.0,0.0
29.0,138.0,35.0,30.0,5.0,-39.0,-21.0,-17.0,-9.0,-2.0,0.0
23.0,80.0,53.0,49.0,0.0,-49.0,-30.0,-23.0,-7.0,15.0,0.0
13.0,23.0,43.0,55.0,8.0,-50.0,-41.0,-33.0,-14.0,58.0,0.0
2.0,-7.0,31.0,55.0,24.0,-50.0,-38.0,-35.0,-15.0,121.0,0.0
-4.0,-44.0,15.0,43.0,44.0,-20.0,-15.0,-22.0,3.0,97.0,0.0
-8.0,-76.0,-7.0,19.0,54.0,28.0,19.0,-7.0,9.0,24.0,0.0
-16.0,-85.0,-25.0,-5.0,46.0,41.0,37.0,0.0,3.0,33.0,0.0
-20.0,-82.0,-30.0,-18.0,32.0,29.0,30.0,14.0,16.0,65.0,0.0
-12.0,-96.0,-42.0,-24.0,26.0,19.0,23.0,14.0,22.0,60.0,0.0
-27.0,-103.0,-70.0,-57.0,14.0,22.0,21.0,17.0,19.0,3.0,0.0
-35.0,-73.0,-86.0,-95.0,-8.0,8.0,11.0,19.0,11.0,-12.0,0.0
-37.0,-58.0,-84.0,-100.0,-30.0,-40.0,-30.0,2.0,-10.0,38.0,0.0
-27.0,-55.0,-67.0,-104.0,-53.0,-54.0,-43.0,-21.0,-14.0,100.0,0.0
-25.0,-49.0,-47.0,-71.0,-48.0,-37.0,-26.0,-16.0,-24.0,94.0,0.0
-23.0,-35.0,-20.0,-32.0,-20.0,-7.0,-3.0,-10.0,-23.0,24.0,0.0
-25.0,-8.0,3.0,6.0,11.0,28.0,24.0,5.0,-5.0,-61.0,0.0
-11.0,10.0,-5.0,20.0,36.0,53.0,38.0,45.0,26.0,-41.0,0.0
12.0,31.0,-10.0,30.0,49.0,67.0,49.0,65.0,44.0,75.0,0.0
39.0,27.0,-3.0,41.0,51.0,64.0,45.0,64.0,62.0,122.0,0.0
28.0,2.0,-14.0,17.0,18.0,43.0,29.0,53.0,71.0,90.0,0.0
18.0,-17.0,-38.0,-12.0,-7.0,30.0,13.0,32.0,50.0,-5.0,0.0
22.0,-12.0,-53.0,-13.0,0.0,32.0,28.0,26.0,42.0,-89.0,0.0
25.0,7.0,-35.0,-1.0,6.0,34.0,37.0,25.0,37.0,-184.0,0.0
24.0,27.0,8.0,14.0,18.0,33.0,13.0,10.0,16.0,-186.0,0.0
12.0,33.0,55.0,33.0,34.0,29.0,3.0,4.0,5.0,-142.0,0.0
-4.0,47.0,73.0,47.0,34.0,42.0,0.0,-1.0,-9.0,-92.0,0.0
-11.0,47.0,71.0,38.0,22.0,28.0,-17.0,-21.0,-25.0,27.0,0.0
-11.0,44.0,72.0,30.0,21.0,20.0,-15.0,-22.0,-11.0,3.0,0.0
-13.0,35.0,57.0,28.0,37.0,36.0,6.0,-9.0,8.0,-101.0,0.0
-2.0,6.0,29.0,19.0,19.0,24.0,-1.0,-15.0,7.0,0.0,0.0
23.0,-13.0,19.0,-6.0,-4.0,-1.0,-34.0,-29.0,-3.0,153.0,0.0
30.0,-19.0,10.0,-23.0,-12.0,-18.0,-37.0,-33.0,-8.0,219.0,0.0
43.0,-35.0,-7.0,-35.0,-14.0,-28.0,-43.0,-36.0,-6.0,252.0,0.0
49.0,-32.0,9.0,-22.0,-16.0,-33.0,-35.0,-49.0,-11.0,237.0,0.0
22.0,-43.0,14.0,-13.0,-15.0,-27.0,-20.0,-58.0,-28.0,168.0,0.0
-22.0,-72.0,18.0,-18.0,-16.0,-23.0,-17.0,-63.0,-33.0,30.0,0.0
-68.0,-88.0,18.0,-30.0,-22.0,-30.0,-20.0,-47.0,-12.0,-126.0,0.0
-102.0,-76.0,15.0,-18.0,0.0,-8.0,16.0,-9.0,15.0,-277.0,0.0
-134.0,-45.0,28.0,10.0,38.0,30.0,55.0,15.0,32.0,-369.0,0.0
-79.0,14.0,57.0,11.0,53.0,43.0,57.0,33.0,23.0,-269.0,0.0
21.0,41.0,67.0,13.0,60.0,48.0,60.0,45.0,35.0,-128.0,0.0
27.0,15.0,32.0,-4.0,43.0,37.0,41.0,38.0,19.0,-66.0,0.0
8.0,-8.0,-1.0,-39.0,26.0,17.0,10.0,18.0,3.0,-72.0,0.0
-4.0,-20.0,-29.0,-58.0,2.0,6.0,-3.0,-1.0,1.0,-86.0,0.0
-3.0,-29.0,-58.0,-90.0,-23.0,-17.0,-9.0,-14.0,-12.0,-59.0,0.0
-5.0,-27.0,-73.0,-104.0,-35.0,-33.0,-10.0,-11.0,-25.0,4.0,0.0
-2.0,-19.0,-68.0,-91.0,-34.0,-36.0,-21.0,-8.0,-15.0,104.0,0.0
14.0,0.0,-42.0,-72.0,-21.0,-30.0,-24.0,-19.0,-3.0,181.0,0.0
25.0,14.0,3.0,-34.0,3.0,-25.0,-3.0,-3.0,5.0,205.0,0.0
23.0,31.0,37.0,1.0,22.0,0.0,26.0,18.0,17.0,147.0,0.0
33.0,86.0,67.0,30.0,37.0,25.0,47.0,43.0,26.0,-18.0,0.0
34.0,132.0,74.0,56.0,59.0,43.0,53.0,52.0,30.0,-161.0,0.0
30.0,139.0,66.0,67.0,73.0,45.0,47.0,41.0,23.0,-141.0,0.0
10.0,93.0,57.0,61.0,57.0,30.0,34.0,31.0,4.0,-118.0,0.0
-1.0,45.0,54.0,58.0,30.0,7.0,12.0,11.0,-20.0,-102.0,0.0
3.0,0.0,49.0,58.0,19.0,-7.0,-15.0,-4.0,-27.0,-79.0,0.0
-5.0,-25.0,33.0,46.0,8.0,-6.0,-32.0,-23.0,-35.0,-51.0,0.0
11.0,-24.0,11.0,28.0,-2.0,-13.0,-36.0,-32.0,-27.0,-16.0,0.0
25.0,-33.0,-12.0,0.0,-10.0,-26.0,-29.0,-21.0,-13.0,-2.0,0.0
25.0,-45.0,-29.0,-14.0,-11.0,-25.0,-15.0,-22.0,-1.0,7.0,0.0
15.0,-21.0,-37.0,-9.0,-13.0,-14.0,0.0,-21.0,-6.0,7.0,0.0
-6.0,-5.0,-33.0,0.0,-16.0,-25.0,-4.0,-13.0,-19.0,19.0,0.0
-10.0,-8.0,-40.0,-5.0,-16.0,-38.0,-31.0,-11.0,-19.0,74.0,0.0
-1.0,-21.0,-66.0,-18.0,-17.0,-25.0,-28.0,-3.0,0.0,100.0,0.0
2.0,-25.0,-84.0,-31.0,-18.0,-11.0,-17.0,10.0,11.0,44.0,0.0
-6.0,-11.0,-64.0,-35.0,-1.0,0.0,-11.0,24.0,5.0,-14.0,0.0
9.0,28.0,-41.0,-30.0,13.0,16.0,22.0,38.0,13.0,8.0,0.0
-6.0,54.0,-49.0,-38.0,9.0,25.0,36.0,54.0,21.0,25.0,0.0
-21.0,68.0,-58.0,-41.0,16.0,28.0,35.0,55.0,15.0,30.0,0.0
-6.0,82.0,-44.0,-26.0,14.0,19.0,21.0,35.0,0.0,35.0,0.0
0.0,80.0,-24.0,-17.0,0.0,1.0,1.0,14.0,-17.0,56.0,0.0
2.0,69.0,1.0,-1.0,-9.0,-1.0,-14.0,11.0,-12.0,59.0,0.0
21.0,61.0,34.0,16.0,-5.0,-16.0,-32.0,6.0,-11.0,83.0,0.0
23.0,36.0,48.0,29.0,1.0,-28.0,-26.0,-9.0,-18.0,113.0,0.0
29.0,-15.0,38.0,29.0,21.0,-4.0,-20.0,-1.0,-16.0,95.0,0.0
24.0,-94.0,46.0,26.0,28.0,21.0,-8.0,24.0,-11.0,35.0,0.0
21.0,-97.0,49.0,20.0,19.0,35.0,22.0,41.0,7.0,-29.0,0.0
15.0,-7.0,47.0,39.0,30.0,46.0,40.0,49.0,32.0,-99.0,0.0
-12.0,77.0,28.0,52.0,39.0,59.0,34.0,50.0,28.0,-145.0,0.0
-17.0,94.0,11.0,50.0,38.0,53.0,20.0,23.0,4.0,-127.0,0.0
-15.0,53.0,-13.0,38.0,22.0,34.0,21.0,5.0,-3.0,-64.0,0.0
-36.0,5.0,-42.0,14.0,1.0,23.0,24.0,6.0,-7.0,-20.0,0.0
-41.0,-24.0,-56.0,-13.0,-17.0,7.0,11.0,-17.0,-18.0,10.0,0.0
-36.0,-63.0,-72.0,-38.0,-39.0,-28.0,-22.0,-46.0,-30.0,46.0,0.0
-30.0,-83.0,-77.0,-32.0,-44.0,-42.0,-41.0,-64.0,-29.0,64.0,0.0
-24.0,-78.0,-54.0,-12.0,-32.0,-37.0,-40.0,-57.0,-14.0,27.0,0.0
-13.0,-50.0,-30.0,4.0,-19.0,-29.0,-23.0,-34.0,-16.0,-27.0,0.0
6.0,-22.0,-21.0,13.0,-14.0,-18.0,-10.0,-18.0,-5.0,-39.0,0.0
24.0,9.0,-1.0,28.0,-5.0,-14.0,-7.0,-16.0,-3.0,-78.0,0.0
31.0,46.0,35.0,59.0,2.0,-2.0,-7.0,-10.0,-17.0,-127.0,0.0
26.0,55.0,66.0,68.0,3.0,-18.0,-37.0,-21.0,-32.0,-105.0,0.0
16.0,60.0,92.0,51.0,-1.0,-43.0,-61.0,-42.0,-45.0,-62.0,0.0
15.0,37.0,77.0,25.0,-2.0,-33.0,-54.0,-40.0,-48.0,-14.0,0.0
19.0,1.0,44.0,11.0,-7.0,-12.0,-24.0,-32.0,-21.0,22.0,0.0
3.0,-21.0,4.0,-6.0,1.0,-7.0,-18.0,-31.0,-17.0,14.0,0.0
-1.0,-8.0,-22.0,-28.0,-1.0,-7.0,-32.0,-44.0,-15.0,16.0,0.0
1.0,7.0,-28.0,-52.0,-25.0,-16.0,-34.0,-41.0,-7.0,55.0,0.0
-7.0,-16.0,-26.0,-59.0,-34.0,-21.0,-19.0,-20.0,6.0,98.0,0.0
-8.0,-44.0,-21.0,-58.0,-24.0,-9.0,-10.0,-9.0,14.0,129.0,0.0
0.0,-25.0,7.0,-40.0,-3.0,3.0,-6.0,-10.0,0.0,122.0,0.0
10.0,0.0,28.0,-16.0,9.0,12.0,-10.0,-11.0,-8.0,67.0,0.0
18.0,4.0,38.0,-19.0,-8.0,7.0,-33.0,-19.0,-20.0,40.0,0.0
30.0,-7.0,39.0,-26.0,-15.0,6.0,-37.0,-14.0,-15.0,32.0,0.0
29.0,-25.0,2.0,-42.0,-6.0,26.0,13.0,7.0,4.0,-43.0,0.0
14.0,-52.0,-42.0,-61.0,-12.0,32.0,40.0,22.0,10.0,-62.0,0.0
1.0,-72.0,-76.0,-44.0,-13.0,38.0,34.0,15.0,11.0,-5.0,0.0
0.0,-62.0,-88.0,-31.0,-18.0,39.0,18.0,6.0,1.0,62.0,0.0
15.0,-41.0,-83.0,-25.0,-10.0,41.0,6.0,-10.0,-10.0,135.0,0.0
24.0,-43.0,-83.0,-25.0,-10.0,38.0,6.0,-10.0,-6.0,161.0,0.0
32.0,26.0,-41.0,18.0,1.0,6.0,-23.0,2.0,-90.0,-116.0,0.0
30.0,28.0,-33.0,13.0,0.0,-19.0,-48.0,-21.0,-125.0,-138.0,0.0
4.0,41.0,-4.0,28.0,14.0,-15.0,-26.0,-3.0,-106.0,-159.0,0.0
-23.0,20.0,-10.0,29.0,20.0,-7.0,-9.0,8.0,-74.0,-161.0,0.0
-19.0,12.0,-24.0,24.0,20.0,18.0,35.0,16.0,9.0,-89.0,0.0
-17.0,6.0,-37.0,5.0,13.0,34.0,51.0,17.0,50.0,-36.0,0.0
-13.0,5.0,-26.0,7.0,0.0,26.0,38.0,20.0,37.0,-21.0,0.0
-11.0,19.0,-7.0,20.0,-6.0,23.0,37.0,38.0,34.0,-8.0,0.0
-6.0,18.0,8.0,8.0,-6.0,15.0,25.0,29.0,33.0,-6.0,0.0
-19.0,2.0,48.0,-13.0,-21.0,5.0,4.0,-15.0,-7.0,-42.0,0.0
-40.0,-51.0,44.0,-35.0,-34.0,-9.0,-17.0,-48.0,-26.0,-84.0,0.0
-38.0,-94.0,8.0,-45.0,-44.0,-34.0,-28.0,-41.0,-8.0,-70.0,0.0
-21.0,-80.0,-9.0,-42.0,-55.0,-40.0,-31.0,-28.0,-9.0,-7.0,0.0
-3.0,-31.0,-29.0,-35.0,-70.0,-37.0,-20.0,-33.0,-18.0,71.0,0.0
9.0,1.0,-45.0,-17.0,-61.0,-15.0,-3.0,-36.0,-7.0,148.0,0.0
26.0,30.0,-32.0,1.0,-37.0,-8.0,5.0,-34.0,-17.0,198.0,0.0
31.0,63.0,-5.0,31.0,-17.0,-4.0,15.0,-36.0,-22.0,187.0,0.0
20.0,91.0,45.0,63.0,2.0,13.0,25.0,-16.0,3.0,71.0,0.0
29.0,112.0,82.0,84.0,23.0,36.0,49.0,12.0,24.0,-149.0,0.0
16.0,113.0,65.0,64.0,29.0,32.0,48.0,22.0,23.0,-204.0,0.0
-15.0,80.0,11.0,32.0,0.0,5.0,20.0,0.0,-10.0,-96.0,0.0
-44.0,53.0,-21.0,9.0,-13.0,-7.0,10.0,-17.0,-26.0,-55.0,0.0
-64.0,20.0,-45.0,-17.0,-8.0,-14.0,5.0,-8.0,-19.0,-31.0,0.0
-48.0,-28.0,-63.0,-33.0,-2.0,-12.0,7.0,5.0,-2.0,35.0,0.0
-9.0,-60.0,-60.0,-15.0,-9.0,-3.0,-4.0,4.0,12.0,115.0,0.0
69.0,-30.0,-22.0,10.0,0.0,12.0,11.0,20.0,4.0,147.0,0.0
92.0,-22.0,-10.0,13.0,-8.0,-8.0,2.0,0.0,3.0,92.0,0.0
40.0,-69.0,-22.0,-5.0,-34.0,-16.0,-11.0,-16.0,5.0,35.0,0.0
18.0,-91.0,-6.0,0.0,-21.0,1.0,-7.0,11.0,10.0,-26.0,0.0
18.0,-17.0,7.0,1.0,3.0,18.0,2.0,33.0,21.0,-27.0,0.0
28.0,85.0,-1.0,6.0,5.0,14.0,-9.0,31.0,24.0,49.0,0.0
42.0,135.0,-7.0,17.0,-9.0,5.0,-15.0,11.0,30.0,162.0,0.0
51.0,134.0,10.0,21.0,-22.0,10.0,-12.0,22.0,44.0,205.0,0.0
48.0,91.0,38.0,35.0,-17.0,10.0,-6.0,23.0,65.0,120.0,0.0
20.0,48.0,45.0,56.0,-1.0,1.0,8.0,23.0,60.0,-89.0,0.0
-28.0,18.0,75.0,65.0,15.0,9.0,2.0,27.0,44.0,-251.0,0.0
-57.0,0.0,112.0,75.0,42.0,20.0,13.0,27.0,12.0,-265.0,0.0
-52.0,16.0,108.0,77.0,58.0,27.0,28.0,24.0,7.0,-200.0,0.0
-55.0,-11.0,45.0,37.0,31.0,6.0,-4.0,-9.0,4.0,-82.0,0.0
-60.0,-64.0,-22.0,-22.0,-9.0,-37.0,-40.0,-29.0,-8.0,42.0,0.0
-36.0,-77.0,-36.0,-32.0,-24.0,-52.0,-42.0,-33.0,0.0,139.0,0.0
-14.0,-73.0,-40.0,-32.0,-25.0,-55.0,-47.0,-37.0,1.0,162.0,0.0
-10.0,-69.0,-35.0,-34.0,-41.0,-60.0,-55.0,-41.0,-8.0,112.0,0.0
-15.0,-56.0,-33.0,-27.0,-50.0,-73.0,-66.0,-47.0,1.0,50.0,0.0
-9.0,-49.0,-40.0,-36.0,-52.0,-70.0,-50.0,-32.0,12.0,56.0,0.0
17.0,-41.0,-59.0,-62.0,-58.0,-51.0,-32.0,-23.0,7.0,124.0,0.0
38.0,-5.0,-70.0,-50.0,-41.0,-17.0,-11.0,-24.0,7.0,161.0,0.0
44.0,41.0,-57.0,-22.0,-14.0,-2.0,3.0,-12.0,17.0,167.0,0.0
46.0,89.0,-5.0,26.0,12.0,13.0,7.0,5.0,24.0,54.0,0.0
45.0,92.0,27.0,50.0,29.0,21.0,6.0,13.0,26.0,-1.0,0.0
63.0,75.0,40.0,46.0,29.0,29.0,16.0,31.0,45.0,26.0,0.0
55.0,42.0,26.0,38.0,37.0,28.0,31.0,37.0,57.0,-25.0,0.0
7.0,17.0,18.0,30.0,35.0,15.0,24.0,27.0,42.0,-159.0,0.0
-37.0,19.0,53.0,31.0,36.0,-3.0,9.0,16.0,2.0,-344.0,0.0
-64.0,27.0,77.0,28.0,27.0,-17.0,-10.0,-2.0,-14.0,-346.0,0.0
-69.0,-6.0,37.0,-22.0,-5.0,-32.0,-25.0,-21.0,-6.0,-181.0,0.0
-91.0,-39.0,15.0,-47.0,-10.0,-24.0,-17.0,-21.0,-14.0,-202.0,0.0
-139.0,-89.0,-10.0,-68.0,-8.0,-28.0,-23.0,-33.0,-82.0,-247.0,0.0
-140.0,-126.0,-53.0,-91.0,-11.0,-26.0,-28.0,-23.0,-124.0,-150.0,0.0
-72.0,-44.0,-55.0,-76.0,4.0,17.0,24.0,15.0,5.0,34.0,0.0
-27.0,-1.0,-24.0,-52.0,23.0,21.0,29.0,18.0,33.0,162.0,0.0
11.0,22.0,11.0,-20.0,35.0,12.0,21.0,8.0,46.0,242.0,0.0
52.0,32.0,20.0,19.0,53.0,38.0,28.0,18.0,57.0,173.0,0.0
80.0,30.0,29.0,48.0,66.0,68.0,44.0,37.0,52.0,147.0,0.0
67.0,31.0,12.0,60.0,62.0,88.0,60.0,57.0,49.0,64.0,0.0
38.0,30.0,-16.0,40.0,67.0,116.0,90.0,58.0,50.0,-190.0,0.0
22.0,40.0,-7.0,35.0,28.0,60.0,17.0,8.0,7.0,-82.0,0.0
8.0,1.0,4.0,11.0,-3.0,-19.0,-63.0,-39.0,-75.0,11.0,0.0
0.0,-45.0,14.0,-4.0,-15.0,-66.0,-129.0,-76.0,-191.0,27.0,0.0
14.0,-34.0,-12.0,-22.0,-18.0,-43.0,-104.0,-68.0,-83.0,90.0,0.0
16.0,-57.0,-50.0,-34.0,-27.0,-30.0,-100.0,-58.0,-44.0,141.0,0.0
13.0,-65.0,-64.0,-16.0,-29.0,-17.0,-64.0,-43.0,-16.0,147.0,0.0
-3.0,-72.0,-67.0,-23.0,-23.0,-12.0,-44.0,-39.0,-28.0,112.0,0.0
-18.0,-77.0,-73.0,-46.0,-23.0,-14.0,-24.0,-38.0,-37.0,54.0,0.0
1.0,-6.0,-33.0,-52.0,-25.0,4.0,-14.0,-19.0,-31.0,-45.0,0.0
-15.0,-13.0,-17.0,-52.0,-1.0,22.0,4.0,14.0,8.0,-45.0,0.0
-21.0,-10.0,10.0,-34.0,0.0,28.0,21.0,41.0,20.0,-41.0,0.0
-34.0,-28.0,38.0,-7.0,7.0,2.0,4.0,17.0,-78.0,-109.0,0.0
-51.0,-34.0,24.0,17.0,19.0,15.0,11.0,19.0,-66.0,-118.0,0.0
-59.0,-18.0,-8.0,30.0,30.0,58.0,52.0,44.0,66.0,-91.0,0.0
-59.0,-51.0,-50.0,27.0,40.0,76.0,62.0,43.0,64.0,-137.0,0.0
-51.0,-32.0,-48.0,5.0,18.0,56.0,33.0,20.0,44.0,-122.0,0.0
-31.0,-37.0,-28.0,-13.0,2.0,21.0,-11.0,0.0,-15.0,-54.0,0.0
-23.0,-53.0,-15.0,-19.0,-1.0,7.0,-33.0,-14.0,-65.0,4.0,0.0
-28.0,-74.0,9.0,-12.0,-15.0,25.0,-1.0,-9.0,-7.0,85.0,0.0
2.0,-111.0,17.0,-14.0,-31.0,12.0,3.0,-3.0,16.0,175.0,0.0
101.0,-39.0,38.0,11.0,-16.0,11.0,22.0,9.0,38.0,187.0,0.0
154.0,101.0,71.0,51.0,14.0,32.0,45.0,27.0,63.0,82.0,0.0
94.0,158.0,59.0,53.0,19.0,33.0,36.0,29.0,40.0,-25.0,0.0
56.0,145.0,28.0,23.0,19.0,22.0,32.0,37.0,31.0,-18.0,0.0
34.0,106.0,8.0,11.0,8.0,10.0,29.0,33.0,46.0,-1.0,0.0
11.0,48.0,-11.0,5.0,1.0,7.0,35.0,28.0,56.0,-22.0,0.0
-21.0,5.0,-26.0,0.0,-4.0,3.0,24.0,24.0,29.0,-46.0,0.0
-30.0,-18.0,-34.0,-9.0,-21.0,-7.0,13.0,0.0,8.0,-48.0,0.0
-28.0,-32.0,-21.0,-4.0,-30.0,-9.0,18.0,-13.0,13.0,-33.0,0.0
-25.0,-25.0,-11.0,5.0,-18.0,-13.0,3.0,-20.0,5.0,-15.0,0.0
-15.0,-18.0,-17.0,6.0,-1.0,-11.0,-9.0,-31.0,-6.0,-8.0,0.0
-5.0,-6.0,-5.0,-5.0,7.0,-15.0,-13.0,-34.0,-15.0,-8.0,0.0
4.0,-4.0,5.0,-11.0,10.0,-25.0,-7.0,-26.0,-2.0,-11.0,0.0
20.0,16.0,10.0,-5.0,3.0,-19.0,-13.0,-14.0,4.0,2.0,0.0
23.0,21.0,13.0,19.0,-6.0,-24.0,-24.0,-9.0,-4.0,25.0,0.0
27.0,1.0,46.0,44.0,-5.0,-29.0,-19.0,-18.0,1.0,9.0,0.0
36.0,6.0,62.0,59.0,3.0,-21.0,-22.0,-1.0,12.0,14.0,0.0
36.0,30.0,59.0,52.0,12.0,-25.0,-34.0,4.0,-7.0,6.0,0.0
21.0,35.0,45.0,29.0,18.0,-45.0,-51.0,-9.0,-81.0,-36.0,0.0
26.0,64.0,44.0,29.0,26.0,-25.0,-22.0,9.0,-43.0,-18.0,0.0
32.0,77.0,48.0,31.0,26.0,1.0,-3.0,21.0,10.0,5.0,0.0
16.0,51.0,19.0,21.0,12.0,2.0,-19.0,4.0,15.0,11.0,0.0
-6.0,-18.0,-48.0,-23.0,-24.0,-18.0,-24.0,-11.0,4.0,53.0,0.0
-3.0,-70.0,-86.0,-62.0,-35.0,-14.0,-28.0,-19.0,-11.0,91.0,0.0
13.0,-52.0,-67.0,-52.0,-26.0,-15.0,-18.0,-17.0,0.0,91.0,0.0
26.0,-15.0,-40.0,-23.0,-7.0,-12.0,-6.0,7.0,21.0,97.0,0.0
49.0,28.0,-30.0,-18.0,-10.0,-11.0,-5.0,3.0,25.0,135.0,0.0
57.0,53.0,-39.0,-34.0,-27.0,-42.0,-28.0,-34.0,12.0,165.0,0.0
72.0,41.0,15.0,-8.0,8.0,-24.0,-29.0,-3.0,25.0,87.0,0.0
56.0,14.0,15.0,6.0,16.0,-6.0,-16.0,23.0,33.0,-8.0,0.0
26.0,-13.0,7.0,9.0,14.0,-11.0,-23.0,35.0,18.0,-37.0,0.0
4.0,-28.0,-14.0,-12.0,0.0,-38.0,-59.0,-5.0,-86.0,-42.0,0.0
-24.0,-6.0,-42.0,-50.0,-3.0,-32.0,-50.0,-27.0,-101.0,-54.0,0.0
-48.0,55.0,-20.0,-50.0,5.0,-6.0,-12.0,-20.0,-34.0,-54.0,0.0
-62.0,99.0,34.0,-26.0,17.0,5.0,-7.0,-7.0,-32.0,-57.0,0.0
-54.0,94.0,73.0,5.0,21.0,0.0,-9.0,-8.0,-7.0,-77.0,0.0
-33.0,82.0,79.0,18.0,23.0,-8.0,-13.0,-2.0,2.0,-136.0,0.0
5.0,78.0,67.0,23.0,18.0,-17.0,-42.0,-15.0,-3.0,-102.0,0.0
31.0,53.0,-4.0,-32.0,-15.0,-16.0,-36.0,5.0,0.0,-110.0,0.0
15.0,-17.0,-75.0,-86.0,-33.0,-31.0,-33.0,-1.0,1.0,-39.0,0.0
-58.0,-151.0,-187.0,-131.0,-62.0,-28.0,-50.0,-52.0,-50.0,23.0,0.0
-77.0,-179.0,-211.0,-138.0,-70.0,-26.0,-31.0,-38.0,-47.0,50.0,0.0
-77.0,-188.0,-189.0,-136.0,-47.0,-33.0,-39.0,-21.0,-93.0,96.0,0.0
-60.0,-136.0,-136.0,-96.0,-7.0,-8.0,-29.0,4.0,-66.0,123.0,0.0
-57.0,-64.0,-88.0,-40.0,25.0,44.0,47.0,38.0,11.0,34.0,0.0
-55.0,-1.0,-4.0,17.0,49.0,75.0,96.0,81.0,32.0,-180.0,0.0
-27.0,81.0,60.0,55.0,65.0,86.0,93.0,95.0,44.0,-215.0,0.0
14.0,137.0,88.0,53.0,73.0,73.0,66.0,74.0,47.0,-41.0,0.0
48.0,156.0,103.0,66.0,91.0,71.0,56.0,81.0,52.0,-43.0,0.0
70.0,143.0,87.0,80.0,93.0,86.0,64.0,104.0,69.0,-164.0,0.0
78.0,106.0,37.0,70.0,77.0,78.0,69.0,97.0,80.0,-160.0,0.0
72.0,66.0,9.0,49.0,64.0,66.0,74.0,91.0,75.0,-163.0,0.0
46.0,34.0,12.0,26.0,49.0,54.0,64.0,64.0,49.0,-133.0,0.0
14.0,0.0,9.0,12.0,37.0,47.0,44.0,46.0,39.0,-81.0,0.0
-24.0,-46.0,5.0,9.0,22.0,42.0,42.0,38.0,37.0,-47.0,0.0
-36.0,-123.0,-18.0,1.0,12.0,30.0,45.0,34.0,34.0,-25.0,0.0
-6.0,-92.0,-37.0,0.0,17.0,20.0,26.0,23.0,23.0,-13.0,0.0
13.0,27.0,-18.0,11.0,8.0,2.0,-4.0,5.0,-2.0,-10.0,0.0
9.0,95.0,-16.0,8.0,-8.0,-7.0,-21.0,-4.0,-16.0,-15.0,0.0
10.0,84.0,-18.0,12.0,-22.0,-20.0,-31.0,-13.0,-20.0,-15.0,0.0
21.0,43.0,19.0,15.0,-2.0,-35.0,-54.0,-3.0,-11.0,-7.0,0.0
15.0,26.0,17.0,6.0,-5.0,-33.0,-68.0,-3.0,-15.0,37.0,0.0
16.0,-8.0,23.0,10.0,-6.0,-51.0,-80.0,-21.0,-71.0,51.0,0.0
24.0,-56.0,21.0,-15.0,-19.0,-81.0,-90.0,-39.0,-138.0,48.0,0.0
23.0,-45.0,-6.0,-18.0,-13.0,-40.0,-31.0,-7.0,-13.0,107.0,0.0
18.0,-59.0,-18.0,-15.0,-16.0,-10.0,-10.0,18.0,30.0,151.0,0.0
3.0,-69.0,-18.0,-2.0,-9.0,17.0,20.0,27.0,41.0,132.0,0.0
-8.0,-61.0,-10.0,6.0,11.0,34.0,44.0,32.0,30.0,36.0,0.0
-12.0,-50.0,12.0,8.0,8.0,17.0,31.0,17.0,16.0,-16.0,0.0
0.0,-27.0,15.0,-13.0,-3.0,0.0,10.0,-5.0,20.0,-21.0,0.0
6.0,0.0,9.0,-27.0,1.0,6.0,12.0,4.0,25.0,-79.0,0.0
-1.0,-7.0,9.0,-32.0,2.0,4.0,13.0,4.0,2.0,-118.0,0.0
2.0,-5.0,33.0,-18.0,4.0,7.0,18.0,4.0,-7.0,-107.0,0.0
-2.0,0.0,16.0,-14.0,-31.0,-43.0,-44.0,-27.0,-52.0,17.0,0.0
-5.0,-34.0,-18.0,-53.0,-59.0,-75.0,-65.0,-66.0,-6.0,302.0,0.0
31.0,-42.0,-2.0,-42.0,-55.0,-67.0,-57.0,-58.0,11.0,428.0,0.0
122.0,-13.0,51.0,2.0,-17.0,-52.0,-57.0,-42.0,-74.0,348.0,0.0
170.0,24.0,58.0,42.0,2.0,-9.0,-20.0,-17.0,-31.0,242.0,0.0
123.0,19.0,33.0,37.0,7.0,7.0,-1.0,-10.0,33.0,140.0,0.0
73.0,-15.0,5.0,15.0,-2.0,-6.0,4.0,-22.0,30.0,52.0,0.0
22.0,-35.0,-19.0,5.0,-1.0,0.0,13.0,-17.0,33.0,-46.0,0.0
-17.0,-26.0,-28.0,-5.0,9.0,12.0,43.0,-5.0,39.0,-73.0,0.0
-28.0,5.0,-11.0,-2.0,21.0,19.0,60.0,15.0,31.0,-49.0,0.0
-16.0,20.0,14.0,38.0,51.0,30.0,53.0,7.0,15.0,-93.0,0.0
-34.0,-1.0,8.0,38.0,26.0,0.0,15.0,-17.0,-13.0,-106.0,0.0
-48.0,-14.0,18.0,29.0,6.0,-32.0,-29.0,-48.0,-46.0,-120.0,0.0
-27.0,41.0,113.0,47.0,35.0,-20.0,-27.0,-33.0,-36.0,-273.0,0.0
6.0,109.0,107.0,40.0,43.0,-6.0,-17.0,-14.0,20.0,-191.0,0.0
27.0,139.0,81.0,48.0,31.0,-20.0,-32.0,-31.0,2.0,-85.0,0.0
26.0,124.0,73.0,31.0,16.0,-52.0,-53.0,-47.0,-71.0,-61.0,0.0
8.0,112.0,25.0,8.0,12.0,-26.0,-16.0,-28.0,-28.0,-33.0,0.0
-5.0,73.0,-22.0,0.0,2.0,2.0,17.0,-8.0,37.0,-7.0,0.0
-36.0,-2.0,-40.0,-32.0,-13.0,2.0,11.0,-18.0,30.0,-20.0,0.0
-59.0,-66.0,-63.0,-51.0,-29.0,-2.0,17.0,-28.0,14.0,-44.0,0.0
-71.0,-78.0,-64.0,-36.0,-22.0,5.0,11.0,-10.0,11.0,-66.0,0.0
-84.0,-75.0,-40.0,-24.0,-16.0,8.0,-2.0,-12.0,-2.0,-83.0,0.0
-68.0,-69.0,-22.0,-27.0,-15.0,-24.0,-29.0,-41.0,-21.0,25.0,0.0
-9.0,-28.0,4.0,-8.0,-14.0,-39.0,-39.0,-40.0,-7.0,205.0,0.0
45.0,37.0,24.0,17.0,-9.0,-16.0,-18.0,-11.0,36.0,333.0,0.0
58.0,59.0,12.0,28.0,1.0,-8.0,2.0,8.0,38.0,288.0,0.0
54.0,61.0,14.0,34.0,27.0,8.0,31.0,24.0,44.0,67.0,0.0
57.0,68.0,31.0,41.0,36.0,18.0,51.0,37.0,49.0,-147.0,0.0
42.0,70.0,23.0,25.0,36.0,19.0,35.0,38.0,45.0,-173.0,0.0
21.0,45.0,-24.0,-3.0,32.0,31.0,23.0,20.0,22.0,-85.0,0.0
10.0,24.0,-58.0,-12.0,31.0,45.0,45.0,14.0,12.0,-37.0,0.0
8.0,34.0,-36.0,3.0,37.0,49.0,74.0,24.0,29.0,-33.0,0.0
13.0,71.0,7.0,36.0,36.0,27.0,54.0,23.0,23.0,-61.0,0.0
27.0,82.0,26.0,28.0,20.0,2.0,23.0,10.0,1.0,-29.0,0.0
29.0,63.0,10.0,-3.0,3.0,-6.0,-4.0,-8.0,-9.0,27.0,0.0
18.0,7.0,-6.0,-31.0,-1.0,-2.0,-7.0,-18.0,-6.0,65.0,0.0
10.0,-36.0,-31.0,-55.0,-7.0,2.0,6.0,-14.0,0.0,84.0,0.0
0.0,-68.0,-46.0,-49.0,-10.0,-12.0,11.0,-13.0,9.0,106.0,0.0
-9.0,-102.0,-54.0,-37.0,-20.0,0.0,10.0,-3.0,28.0,136.0,0.0
-20.0,-120.0,-62.0,-43.0,-14.0,17.0,26.0,15.0,29.0,117.0,0.0
-30.0,-107.0,-75.0,-50.0,-10.0,31.0,41.0,6.0,19.0,60.0,0.0
-40.0,-89.0,-61.0,-41.0,-13.0,34.0,36.0,12.0,-3.0,-15.0,0.0
-44.0,-51.0,-21.0,-9.0,-3.0,21.0,25.0,6.0,-22.0,-111.0,0.0
-47.0,-22.0,5.0,16.0,7.0,16.0,18.0,12.0,-34.0,-169.0,0.0
-44.0,-13.0,4.0,20.0,17.0,10.0,26.0,25.0,-18.0,-106.0,0.0
-38.0,-54.0,-13.0,5.0,17.0,14.0,44.0,27.0,-9.0,32.0,0.0
-21.0,-71.0,-18.0,-7.0,20.0,19.0,57.0,23.0,-5.0,132.0,0.0
-2.0,6.0,-7.0,2.0,29.0,33.0,66.0,34.0,11.0,70.0,0.0
29.0,115.0,0.0,12.0,39.0,36.0,74.0,36.0,24.0,-28.0,0.0
33.0,144.0,-18.0,-5.0,29.0,42.0,66.0,39.0,32.0,19.0,0.0
25.0,92.0,-21.0,-20.0,22.0,28.0,34.0,25.0,32.0,40.0,0.0
26.0,49.0,-4.0,-10.0,4.0,8.0,-4.0,0.0,12.0,19.0,0.0
16.0,30.0,-1.0,2.0,-4.0,-14.0,-13.0,-12.0,4.0,6.0,0.0
7.0,14.0,-9.0,7.0,0.0,-38.0,-19.0,-23.0,10.0,1.0,0.0
7.0,6.0,-12.0,9.0,3.0,-50.0,-21.0,-24.0,3.0,0.0,0.0
9.0,20.0,11.0,31.0,3.0,-51.0,-22.0,-25.0,-2.0,8.0,0.0
9.0,12.0,32.0,41.0,12.0,-46.0,-20.0,-18.0,0.0,12.0,0.0
7.0,4.0,34.0,42.0,13.0,-42.0,-31.0,-8.0,1.0,12.0,0.0
12.0,0.0,28.0,45.0,10.0,-38.0,-40.0,-8.0,-4.0,6.0,0.0
20.0,0.0,19.0,39.0,13.0,-32.0,-34.0,-6.0,-8.0,11.0,0.0
11.0,-13.0,35.0,19.0,8.0,-40.0,-28.0,-15.0,-6.0,13.0,0.0
2.0,-9.0,30.0,10.0,13.0,-26.0,-24.0,-15.0,-7.0,27.0,0.0
1.0,-8.0,7.0,16.0,18.0,-10.0,-7.0,-10.0,0.0,37.0,0.0
2.0,-4.0,1.0,16.0,22.0,-13.0,0.0,-14.0,-7.0,29.0,0.0
11.0,13.0,15.0,17.0,12.0,-16.0,3.0,-16.0,-7.0,25.0,0.0
25.0,26.0,43.0,9.0,14.0,-23.0,-11.0,-18.0,-17.0,5.0,0.0
20.0,18.0,78.0,10.0,5.0,-28.0,-29.0,-26.0,-26.0,-11.0,0.0
-3.0,-5.0,65.0,5.0,-5.0,-17.0,-20.0,-8.0,-21.0,-15.0,0.0
-22.0,-22.0,41.0,-4.0,-1.0,-12.0,-16.0,10.0,-8.0,-17.0,0.0
-34.0,-38.0,28.0,-13.0,5.0,-18.0,-17.0,5.0,-9.0,-21.0,0.0
-40.0,-61.0,13.0,-26.0,0.0,-11.0,-22.0,8.0,-5.0,2.0,0.0
-31.0,-80.0,-23.0,-52.0,-26.0,-8.0,-13.0,12.0,-1.0,19.0,0.0
-27.0,-86.0,-42.0,-57.0,-48.0,-20.0,-10.0,7.0,3.0,-13.0,0.0
-15.0,-74.0,-56.0,-54.0,-56.0,-33.0,-21.0,2.0,-5.0,18.0,0.0
7.0,-78.0,-69.0,-76.0,-73.0,-41.0,-43.0,-20.0,-20.0,117.0,0.0
20.0,-73.0,-90.0,-77.0,-87.0,-44.0,-45.0,-25.0,-12.0,209.0,0.0
48.0,-49.0,-96.0,-74.0,-88.0,-47.0,-41.0,-28.0,-18.0,292.0,0.0
68.0,-36.0,-70.0,-62.0,-72.0,-45.0,-23.0,-30.0,-17.0,327.0,0.0
62.0,-44.0,-39.0,-21.0,-44.0,-19.0,-1.0,-12.0,4.0,309.0,0.0
31.0,-45.0,-9.0,15.0,1.0,11.0,26.0,8.0,26.0,252.0,0.0
21.0,-7.0,33.0,44.0,29.0,15.0,37.0,27.0,23.0,91.0,0.0
-10.0,19.0,63.0,70.0,28.0,4.0,16.0,19.0,0.0,-75.0,0.0
-51.0,58.0,77.0,88.0,35.0,8.0,5.0,29.0,-6.0,-278.0,0.0
-90.0,72.0,72.0,76.0,48.0,17.0,14.0,41.0,4.0,-444.0,0.0
-119.0,60.0,39.0,33.0,35.0,10.0,12.0,23.0,5.0,-372.0,0.0
-124.0,38.0,10.0,-6.0,20.0,-11.0,-11.0,8.0,4.0,-207.0,0.0
-92.0,4.0,-2.0,-25.0,-1.0,-24.0,-28.0,1.0,-4.0,-72.0,0.0
-61.0,-20.0,2.0,-28.0,-16.0,-19.0,-21.0,4.0,-6.0,-24.0,0.0
-37.0,-13.0,9.0,-6.0,-6.0,-12.0,1.0,24.0,-9.0,-25.0,0.0
36.0,4.0,11.0,13.0,19.0,23.0,32.0,49.0,6.0,-13.0,0.0
67.0,7.0,32.0,27.0,37.0,40.0,52.0,51.0,17.0,-105.0,0.0
14.0,-20.0,36.0,41.0,44.0,48.0,54.0,55.0,7.0,-257.0,0.0
-17.0,-25.0,24.0,23.0,38.0,47.0,52.0,56.0,12.0,-247.0,0.0
-23.0,-15.0,0.0,-18.0,10.0,23.0,27.0,28.0,3.0,-167.0,0.0
-18.0,-5.0,-43.0,-56.0,-20.0,-8.0,9.0,-7.0,-21.0,-117.0,0.0
-7.0,0.0,-37.0,-72.0,-42.0,-36.0,-12.0,-29.0,-35.0,-59.0,0.0
10.0,11.0,10.0,-55.0,-42.0,-62.0,-57.0,-46.0,-53.0,21.0,0.0
25.0,15.0,28.0,-42.0,-46.0,-63.0,-68.0,-61.0,-67.0,134.0,0.0
28.0,4.0,32.0,-24.0,-47.0,-57.0,-49.0,-63.0,-60.0,213.0,0.0
24.0,3.0,46.0,2.0,-27.0,-42.0,-34.0,-48.0,-52.0,198.0,0.0
35.0,27.0,79.0,44.0,5.0,-7.0,-1.0,-8.0,-28.0,95.0,0.0
63.0,79.0,113.0,74.0,35.0,25.0,17.0,48.0,27.0,-96.0,0.0
60.0,119.0,121.0,76.0,41.0,26.0,13.0,46.0,25.0,-254.0,0.0
29.0,118.0,103.0,57.0,25.0,-9.0,-9.0,12.0,4.0,-176.0,0.0
11.0,75.0,63.0,43.0,2.0,-22.0,-19.0,-12.0,1.0,-24.0,0.0
17.0,24.0,31.0,25.0,3.0,-19.0,-19.0,-26.0,14.0,86.0,0.0
30.0,-56.0,11.0,21.0,4.0,0.0,-9.0,-13.0,21.0,110.0,0.0
14.0,-91.0,-3.0,20.0,1.0,7.0,-1.0,3.0,20.0,54.0,0.0
-3.0,-14.0,2.0,17.0,1.0,3.0,-6.0,16.0,8.0,1.0,0.0
0.0,59.0,6.0,2.0,-2.0,5.0,-3.0,16.0,-8.0,-39.0,0.0
-6.0,85.0,19.0,-2.0,-1.0,3.0,-16.0,5.0,-19.0,-70.0,0.0
-12.0,77.0,46.0,10.0,-4.0,4.0,-25.0,-13.0,-31.0,-71.0,0.0
-15.0,64.0,49.0,2.0,-6.0,4.0,-10.0,-14.0,-17.0,-36.0,0.0
-28.0,39.0,13.0,-21.0,-26.0,-1.0,-10.0,0.0,-23.0,23.0,0.0
-47.0,-14.0,-12.0,-27.0,-39.0,4.0,-1.0,-5.0,-32.0,20.0,0.0
-59.0,-92.0,-48.0,-35.0,-37.0,18.0,19.0,10.0,-2.0,-66.0,0.0
-75.0,-170.0,-117.0,-70.0,-40.0,43.0,57.0,27.0,14.0,-48.0,0.0
-81.0,-180.0,-117.0,-37.0,-20.0,59.0,79.0,46.0,37.0,65.0,0.0
-19.0,-122.0,-46.0,-19.0,4.0,1.0,0.0,27.0,-77.0,22.0,0.0
-19.0,-123.0,-23.0,-20.0,-2.0,-30.0,-41.0,-5.0,-142.0,0.0,0.0
-15.0,-100.0,-24.0,-22.0,-8.0,-27.0,-46.0,-17.0,-99.0,13.0,0.0
-7.0,-86.0,-29.0,-28.0,-16.0,-47.0,-66.0,-34.0,-105.0,27.0,0.0
19.0,-61.0,-19.0,-31.0,-18.0,-40.0,-58.0,-41.0,-51.0,85.0,0.0
34.0,-16.0,-15.0,-39.0,-29.0,-5.0,-33.0,-29.0,22.0,178.0,0.0
54.0,5.0,-4.0,-43.0,-28.0,-2.0,-24.0,-12.0,41.0,233.0,0.0
75.0,5.0,-7.0,-43.0,-26.0,-9.0,-9.0,-4.0,55.0,230.0,0.0
77.0,4.0,-5.0,-49.0,-37.0,-11.0,-8.0,0.0,50.0,223.0,0.0
60.0,3.0,-14.0,-52.0,-41.0,-13.0,0.0,-5.0,53.0,191.0,0.0
36.0,-4.0,-18.0,-40.0,-26.0,3.0,14.0,-10.0,41.0,135.0,0.0
1.0,-13.0,-31.0,-30.0,-24.0,17.0,24.0,-1.0,36.0,70.0,0.0
-45.0,-3.0,-18.0,-16.0,-11.0,35.0,36.0,12.0,43.0,-19.0,0.0
-77.0,12.0,23.0,13.0,8.0,51.0,39.0,20.0,33.0,-120.0,0.0
-79.0,21.0,60.0,30.0,10.0,47.0,32.0,9.0,10.0,-158.0,0.0
-71.0,11.0,75.0,38.0,10.0,33.0,32.0,2.0,7.0,-138.0,0.0
-51.0,15.0,67.0,38.0,25.0,46.0,48.0,21.0,21.0,-166.0,0.0
-49.0,33.0,42.0,24.0,33.0,49.0,59.0,27.0,16.0,-180.0,0.0
-47.0,13.0,13.0,9.0,17.0,36.0,37.0,2.0,6.0,-116.0,0.0
-23.0,0.0,-3.0,10.0,0.0,25.0,17.0,-5.0,7.0,-62.0,0.0
-13.0,-5.0,6.0,17.0,-1.0,21.0,10.0,-9.0,10.0,-30.0,0.0
-20.0,-10.0,-5.0,12.0,-11.0,33.0,16.0,-17.0,13.0,2.0,0.0
-20.0,2.0,-16.0,13.0,-22.0,16.0,-8.0,-26.0,3.0,26.0,0.0
-9.0,23.0,-14.0,17.0,-38.0,-11.0,-31.0,-30.0,-30.0,28.0,0.0
4.0,45.0,-30.0,11.0,-30.0,-20.0,-27.0,-27.0,-6.0,46.0,0.0
16.0,63.0,-42.0,5.0,-24.0,-31.0,-31.0,-32.0,7.0,44.0,0.0
33.0,82.0,-54.0,3.0,-25.0,-32.0,-38.0,-31.0,-7.0,50.0,0.0
40.0,80.0,-49.0,22.0,-28.0,-43.0,-46.0,-37.0,-34.0,73.0,0.0
45.0,65.0,-22.0,36.0,-21.0,-42.0,-34.0,-19.0,-17.0,82.0,0.0
31.0,54.0,10.0,34.0,-18.0,-28.0,-30.0,-16.0,-24.0,50.0,0.0
32.0,50.0,23.0,34.0,-10.0,-1.0,-7.0,4.0,20.0,-7.0,0.0
41.0,44.0,4.0,32.0,-8.0,14.0,13.0,23.0,41.0,-55.0,0.0
57.0,45.0,-5.0,15.0,-18.0,-1.0,21.0,18.0,26.0,-29.0,0.0
64.0,35.0,15.0,11.0,-2.0,-16.0,9.0,-6.0,19.0,41.0,0.0
11.0,-59.0,-53.0,0.0,-22.0,-16.0,-25.0,-28.0,2.0,145.0,0.0
-11.0,-91.0,-82.0,-24.0,-31.0,-9.0,-24.0,-25.0,-5.0,161.0,0.0
-23.0,-112.0,-112.0,-32.0,-39.0,-17.0,-38.0,-43.0,-14.0,162.0,0.0
-25.0,-120.0,-109.0,-46.0,-51.0,-52.0,-80.0,-66.0,-99.0,146.0,0.0
-20.0,-75.0,-83.0,-30.0,-29.0,-27.0,-43.0,-47.0,-54.0,131.0,0.0
-49.0,-55.0,-45.0,-1.0,-8.0,14.0,8.0,-10.0,1.0,28.0,0.0
-83.0,-64.0,-22.0,25.0,10.0,30.0,18.0,-2.0,3.0,-90.0,0.0
-86.0,-69.0,-14.0,33.0,23.0,23.0,11.0,-12.0,-4.0,-128.0,0.0
-76.0,-53.0,8.0,21.0,23.0,21.0,-8.0,-10.0,-5.0,-212.0,0.0
-68.0,-44.0,47.0,15.0,27.0,37.0,8.0,25.0,33.0,-207.0,0.0
-47.0,-73.0,73.0,18.0,21.0,51.0,36.0,52.0,75.0,-84.0,0.0
-20.0,-34.0,80.0,41.0,21.0,62.0,46.0,60.0,78.0,-65.0,0.0
-4.0,60.0,64.0,50.0,34.0,78.0,43.0,60.0,69.0,-45.0,0.0
-2.0,132.0,49.0,38.0,35.0,63.0,39.0,56.0,62.0,-48.0,0.0
7.0,154.0,27.0,25.0,22.0,61.0,39.0,51.0,63.0,-133.0,0.0
9.0,118.0,21.0,17.0,20.0,53.0,54.0,50.0,69.0,-201.0,0.0
8.0,87.0,-2.0,3.0,16.0,19.0,38.0,32.0,58.0,-144.0,0.0
3.0,36.0,-36.0,-25.0,-3.0,-9.0,17.0,26.0,36.0,-66.0,0.0
14.0,-20.0,-51.0,-47.0,-15.0,-15.0,-3.0,12.0,16.0,-38.0,0.0
27.0,-34.0,-29.0,-34.0,-16.0,-15.0,-23.0,-9.0,3.0,-24.0,0.0
27.0,-13.0,-18.0,-15.0,-22.0,-23.0,-36.0,-17.0,-1.0,-6.0,0.0
34.0,13.0,-9.0,0.0,-19.0,-18.0,-44.0,0.0,14.0,10.0,0.0
25.0,20.0,-20.0,5.0,0.0,-1.0,-26.0,18.0,29.0,21.0,0.0
0.0,5.0,-33.0,3.0,6.0,13.0,15.0,22.0,23.0,25.0,0.0
-6.0,-9.0,-37.0,7.0,2.0,4.0,24.0,9.0,9.0,24.0,0.0
-14.0,-21.0,-45.0,10.0,-5.0,3.0,7.0,-7.0,0.0,22.0,0.0
-29.0,-46.0,-70.0,-4.0,-17.0,6.0,0.0,-22.0,-11.0,20.0,0.0
-24.0,-82.0,-83.0,-17.0,-29.0,-1.0,1.0,-18.0,-2.0,23.0,0.0
-15.0,-96.0,-71.0,-16.0,-39.0,-7.0,1.0,-16.0,5.0,42.0,0.0
11.0,-44.0,-39.0,-24.0,-41.0,-13.0,-7.0,-9.0,2.0,95.0,0.0
43.0,-4.0,-22.0,-38.0,-49.0,-26.0,-15.0,-16.0,-34.0,153.0,0.0
48.0,-6.0,-38.0,-42.0,-45.0,-25.0,-23.0,-16.0,-58.0,181.0,0.0
53.0,-5.0,-40.0,-27.0,-36.0,-7.0,-6.0,-11.0,-51.0,184.0,0.0
45.0,-10.0,-26.0,5.0,-18.0,7.0,-1.0,-14.0,-44.0,163.0,0.0
32.0,-3.0,16.0,35.0,-5.0,7.0,10.0,-18.0,-26.0,59.0,0.0
13.0,0.0,61.0,48.0,1.0,15.0,27.0,-14.0,-10.0,-81.0,0.0
-22.0,-10.0,67.0,47.0,-1.0,23.0,24.0,-5.0,-8.0,-110.0,0.0
-103.0,-31.0,0.0,7.0,-14.0,15.0,7.0,8.0,-1.0,-104.0,0.0
-164.0,-81.0,4.0,-12.0,-36.0,0.0,-1.0,-5.0,-85.0,-232.0,0.0
-158.0,-116.0,-33.0,-39.0,-55.0,-51.0,-55.0,-52.0,-175.0,-258.0,0.0
-110.0,-92.0,-54.0,-41.0,-60.0,-39.0,-59.0,-58.0,-101.0,-159.0,0.0
-79.0,-89.0,-32.0,-41.0,-44.0,-63.0,-86.0,-69.0,-178.0,-71.0,0.0
-21.0,-22.0,35.0,0.0,-10.0,-31.0,-37.0,-25.0,-153.0,27.0,0.0
96.0,98.0,107.0,82.0,61.0,64.0,72.0,72.0,36.0,3.0,0.0
187.0,145.0,139.0,118.0,97.0,100.0,106.0,120.0,71.0,-110.0,0.0
180.0,135.0,112.0,89.0,69.0,74.0,80.0,104.0,69.0,40.0,0.0
129.0,106.0,82.0,56.0,36.0,23.0,33.0,60.0,56.0,148.0,0.0
95.0,99.0,82.0,50.0,20.0,-2.0,0.0,30.0,45.0,64.0,0.0
67.0,112.0,81.0,62.0,17.0,-7.0,-4.0,14.0,32.0,-17.0,0.0
46.0,115.0,70.0,67.0,17.0,-16.0,-5.0,5.0,21.0,-25.0,0.0
50.0,99.0,64.0,58.0,11.0,-18.0,-17.0,-2.0,7.0,5.0,0.0
34.0,97.0,62.0,67.0,15.0,-23.0,-34.0,-23.0,-2.0,-7.0,0.0
2.0,62.0,50.0,53.0,8.0,-34.0,-49.0,-23.0,12.0,-33.0,0.0
-22.0,38.0,31.0,17.0,-1.0,-38.0,-41.0,-13.0,7.0,-18.0,0.0
-18.0,6.0,-1.0,-9.0,-17.0,-32.0,-32.0,-15.0,7.0,28.0,0.0
-17.0,-29.0,-38.0,-43.0,-32.0,-42.0,-46.0,-30.0,9.0,66.0,0.0
-27.0,-52.0,-76.0,-74.0,-42.0,-54.0,-62.0,-37.0,12.0,107.0,0.0
-38.0,-92.0,-98.0,-99.0,-55.0,-44.0,-48.0,-34.0,4.0,137.0,0.0
-61.0,-149.0,-128.0,-129.0,-76.0,-30.0,-7.0,-25.0,-17.0,138.0,0.0
-64.0,-157.0,-151.0,-137.0,-81.0,-20.0,0.0,-22.0,-27.0,163.0,0.0
-48.0,-120.0,-121.0,-96.0,-56.0,-30.0,-11.0,-12.0,-9.0,174.0,0.0
-40.0,-75.0,-70.0,-51.0,-7.0,-17.0,0.0,1.0,14.0,122.0,0.0
-53.0,-25.0,-10.0,1.0,27.0,13.0,24.0,13.0,39.0,96.0,0.0
-60.0,-7.0,42.0,49.0,43.0,42.0,53.0,34.0,56.0,28.0,0.0
-41.0,0.0,50.0,65.0,59.0,59.0,69.0,67.0,77.0,-107.0,0.0
2.0,12.0,71.0,48.0,51.0,5.0,5.0,25.0,16.0,-213.0,0.0
-19.0,-34.0,54.0,-1.0,44.0,-27.0,-33.0,-13.0,-89.0,-175.0,0.0
-23.0,-35.0,17.0,-22.0,31.0,-25.0,-30.0,-13.0,-87.0,-161.0,0.0
-26.0,-36.0,0.0,-36.0,24.0,-21.0,-44.0,-20.0,-101.0,-150.0,0.0
-33.0,-36.0,-9.0,-36.0,23.0,-13.0,-24.0,-10.0,-70.0,-124.0,0.0
-20.0,28.0,17.0,-11.0,27.0,10.0,15.0,4.0,42.0,-38.0,0.0
12.0,69.0,61.0,16.0,23.0,-7.0,4.0,-1.0,38.0,28.0,0.0
27.0,95.0,70.0,31.0,36.0,-14.0,-2.0,-16.0,16.0,12.0,0.0
39.0,103.0,71.0,41.0,43.0,-17.0,-2.0,-19.0,12.0,-10.0,0.0
59.0,105.0,65.0,36.0,28.0,-13.0,-17.0,-19.0,12.0,-3.0,0.0
74.0,95.0,30.0,6.0,23.0,-23.0,-18.0,-23.0,0.0,8.0,0.0
63.0,76.0,0.0,-4.0,19.0,-25.0,-14.0,-25.0,0.0,23.0,0.0
50.0,45.0,-12.0,-6.0,14.0,-22.0,-11.0,-32.0,-8.0,6.0,0.0
55.0,-14.0,11.0,-2.0,12.0,-32.0,-13.0,-18.0,-13.0,-1.0,0.0
61.0,-18.0,19.0,-12.0,19.0,-29.0,0.0,20.0,37.0,16.0,0.0
35.0,53.0,27.0,-10.0,17.0,-25.0,4.0,21.0,39.0,14.0,0.0
14.0,111.0,45.0,-14.0,23.0,-36.0,-8.0,6.0,11.0,4.0,0.0
-11.0,87.0,22.0,-18.0,25.0,-15.0,-1.0,9.0,16.0,23.0,0.0
-39.0,28.0,-13.0,-10.0,29.0,8.0,27.0,17.0,26.0,28.0,0.0
-42.0,-4.0,-19.0,-8.0,23.0,6.0,25.0,14.0,20.0,28.0,0.0
-40.0,-32.0,-8.0,-13.0,11.0,-17.0,11.0,4.0,16.0,14.0,0.0
-48.0,-39.0,-15.0,-29.0,11.0,-14.0,6.0,-8.0,3.0,-9.0,0.0
-41.0,-46.0,-26.0,-48.0,20.0,-9.0,5.0,-9.0,2.0,-6.0,0.0
-29.0,-81.0,-23.0,-39.0,22.0,-2.0,14.0,6.0,12.0,9.0,0.0
-23.0,-100.0,-31.0,-32.0,16.0,0.0,23.0,23.0,29.0,19.0,0.0
-3.0,-82.0,-35.0,-22.0,12.0,-1.0,19.0,17.0,20.0,40.0,0.0
15.0,-69.0,-26.0,-13.0,20.0,-3.0,17.0,18.0,21.0,69.0,0.0
28.0,-50.0,-17.0,-7.0,27.0,-7.0,13.0,16.0,28.0,78.0,0.0
35.0,-11.0,-15.0,6.0,17.0,-12.0,4.0,16.0,18.0,73.0,0.0
43.0,17.0,-17.0,4.0,17.0,-22.0,-8.0,-1.0,17.0,57.0,0.0
45.0,15.0,-28.0,-24.0,7.0,-22.0,-11.0,-8.0,27.0,50.0,0.0
48.0,16.0,-43.0,-41.0,-11.0,-15.0,-6.0,-6.0,24.0,69.0,0.0
43.0,13.0,-40.0,-34.0,-7.0,-9.0,-12.0,6.0,20.0,54.0,0.0
19.0,6.0,-32.0,-34.0,5.0,0.0,-7.0,3.0,13.0,14.0,0.0
-4.0,14.0,-50.0,-40.0,2.0,14.0,11.0,3.0,0.0,-12.0,0.0
-13.0,32.0,-59.0,-48.0,1.0,28.0,18.0,18.0,15.0,-4.0,0.0
10.0,63.0,-70.0,-31.0,-5.0,24.0,16.0,11.0,32.0,13.0,0.0
29.0,88.0,-40.0,-6.0,-5.0,10.0,13.0,13.0,28.0,10.0,0.0
20.0,93.0,-17.0,23.0,10.0,7.0,20.0,20.0,27.0,-22.0,0.0
-4.0,93.0,-12.0,32.0,19.0,26.0,17.0,34.0,30.0,-87.0,0.0
-9.0,103.0,20.0,54.0,28.0,34.0,6.0,46.0,25.0,-118.0,0.0
-3.0,74.0,53.0,69.0,27.0,22.0,0.0,31.0,16.0,-107.0,0.0
-24.0,-15.0,34.0,41.0,7.0,0.0,-5.0,7.0,-2.0,-60.0,0.0
-47.0,-89.0,14.0,9.0,-22.0,-15.0,-27.0,-7.0,-17.0,16.0,0.0
-84.0,-159.0,5.0,-17.0,-31.0,-16.0,-35.0,-15.0,-26.0,60.0,0.0
-97.0,-195.0,-26.0,-49.0,-32.0,-4.0,-24.0,-24.0,-30.0,91.0,0.0
-86.0,-179.0,-53.0,-57.0,-38.0,-10.0,-3.0,-25.0,-28.0,104.0,0.0
-78.0,-152.0,-60.0,-56.0,-23.0,-3.0,14.0,-14.0,-23.0,86.0,0.0
-4.0,38.0,61.0,60.0,2.0,-2.0,21.0,-2.0,-5.0,-123.0,0.0
6.0,74.0,124.0,91.0,20.0,2.0,4.0,1.0,-39.0,-243.0,0.0
0.0,47.0,144.0,79.0,13.0,-28.0,-41.0,-34.0,-134.0,-288.0,0.0
1.0,17.0,139.0,71.0,12.0,-31.0,-43.0,-30.0,-188.0,-278.0,0.0
0.0,10.0,96.0,54.0,15.0,-4.0,-7.0,8.0,-131.0,-167.0,0.0
5.0,29.0,37.0,12.0,-6.0,19.0,20.0,9.0,20.0,67.0,0.0
5.0,-24.0,-18.0,-32.0,-28.0,0.0,0.0,-4.0,36.0,110.0,0.0
16.0,-43.0,-62.0,-31.0,-29.0,22.0,20.0,26.0,64.0,14.0,0.0
9.0,-44.0,-69.0,-29.0,-31.0,34.0,35.0,32.0,64.0,43.0,0.0
0.0,-76.0,-65.0,-12.0,-47.0,15.0,12.0,0.0,33.0,97.0,0.0
9.0,-54.0,-63.0,-15.0,-49.0,10.0,16.0,1.0,40.0,120.0,0.0
19.0,-44.0,-24.0,-1.0,-51.0,-13.0,-16.0,-20.0,-1.0,115.0,0.0
19.0,-53.0,-4.0,4.0,-44.0,-40.0,-53.0,-41.0,-81.0,80.0,0.0
15.0,-35.0,3.0,31.0,-19.0,-1.0,-7.0,-19.0,-1.0,62.0,0.0
11.0,-33.0,2.0,52.0,2.0,45.0,31.0,8.0,23.0,-15.0,0.0
-6.0,-77.0,15.0,53.0,13.0,64.0,50.0,18.0,0.0,-122.0,0.0
-7.0,-96.0,4.0,32.0,14.0,54.0,44.0,12.0,4.0,-127.0,0.0
-3.0,-8.0,7.0,17.0,18.0,50.0,35.0,0.0,10.0,-80.0,0.0
2.0,89.0,20.0,17.0,13.0,37.0,18.0,-5.0,10.0,-50.0,0.0
15.0,135.0,24.0,24.0,6.0,30.0,14.0,-7.0,16.0,-28.0,0.0
18.0,138.0,31.0,17.0,-4.0,23.0,12.0,7.0,8.0,-29.0,0.0
17.0,105.0,27.0,16.0,-22.0,10.0,4.0,7.0,1.0,-16.0,0.0
15.0,46.0,9.0,5.0,-34.0,-2.0,-7.0,-11.0,6.0,-31.0,0.0
13.0,-2.0,-16.0,-17.0,-44.0,-21.0,-33.0,-33.0,16.0,-47.0,0.0
17.0,-37.0,-29.0,-18.0,-44.0,-25.0,-49.0,-44.0,9.0,-8.0,0.0
41.0,-49.0,-23.0,-21.0,-52.0,-25.0,-64.0,-44.0,-5.0,66.0,0.0
47.0,-45.0,-21.0,-20.0,-49.0,-38.0,-59.0,-50.0,-5.0,98.0,0.0
43.0,-62.0,-11.0,1.0,-28.0,-28.0,-47.0,-36.0,-8.0,97.0,0.0
35.0,-64.0,5.0,8.0,-17.0,-16.0,-22.0,-19.0,3.0,94.0,0.0
10.0,-65.0,14.0,0.0,-17.0,-15.0,-14.0,17.0,31.0,85.0,0.0
-27.0,-84.0,14.0,-5.0,-18.0,-6.0,-4.0,19.0,29.0,-61.0,0.0
-54.0,-119.0,-17.0,-30.0,-22.0,-29.0,-22.0,-10.0,-37.0,-119.0,0.0
-85.0,-131.0,-43.0,-39.0,-21.0,-60.0,-67.0,-40.0,-126.0,-138.0,0.0
-94.0,-97.0,-56.0,-41.0,-27.0,-15.0,-15.0,-13.0,-32.0,-80.0,0.0
-76.0,-80.0,-62.0,-51.0,-35.0,-10.0,-6.0,-12.0,-13.0,1.0,0.0
-56.0,-55.0,-57.0,-38.0,-32.0,-19.0,-16.0,-21.0,-21.0,14.0,0.0
-54.0,-51.0,-58.0,-22.0,-32.0,-35.0,-28.0,-26.0,-36.0,27.0,0.0
-11.0,-75.0,-62.0,-12.0,-32.0,-36.0,-44.0,-28.0,-33.0,123.0,0.0
77.0,-45.0,-52.0,18.0,-10.0,-13.0,-17.0,13.0,18.0,234.0,0.0
196.0,47.0,-8.0,59.0,32.0,45.0,42.0,90.0,88.0,256.0,0.0
223.0,98.0,13.0,60.0,54.0,71.0,82.0,107.0,117.0,218.0,0.0
176.0,121.0,34.0,50.0,55.0,58.0,61.0,86.0,105.0,90.0,0.0
133.0,124.0,39.0,58.0,46.0,34.0,29.0,51.0,83.0,71.0,0.0
93.0,92.0,39.0,47.0,27.0,13.0,8.0,18.0,61.0,91.0,0.0
48.0,60.0,103.0,62.0,15.0,0.0,-17.0,-1.0,43.0,-111.0,0.0
-5.0,55.0,117.0,71.0,11.0,11.0,-6.0,6.0,28.0,-231.0,0.0
-66.0,40.0,97.0,47.0,10.0,22.0,-3.0,-3.0,-15.0,-299.0,0.0
-92.0,43.0,69.0,12.0,8.0,4.0,-17.0,-23.0,-97.0,-278.0,0.0
-74.0,68.0,36.0,3.0,9.0,18.0,1.0,-2.0,-36.0,-135.0,0.0
-56.0,56.0,-9.0,2.0,15.0,47.0,34.0,20.0,38.0,-33.0,0.0
-43.0,3.0,-32.0,-11.0,-1.0,38.0,30.0,21.0,48.0,-10.0,0.0
-46.0,-44.0,-34.0,-22.0,-10.0,33.0,39.0,21.0,33.0,-10.0,0.0
-47.0,-80.0,-18.0,-12.0,-13.0,42.0,48.0,24.0,4.0,-4.0,0.0
-30.0,-80.0,-9.0,3.0,-1.0,22.0,23.0,8.0,0.0,11.0,0.0
-11.0,-57.0,-16.0,-6.0,-1.0,6.0,10.0,5.0,10.0,37.0,0.0
-5.0,-44.0,-25.0,-36.0,-12.0,0.0,8.0,18.0,15.0,42.0,0.0
0.0,-40.0,-8.0,-43.0,-19.0,-13.0,16.0,26.0,7.0,40.0,0.0
4.0,-32.0,15.0,-23.0,-23.0,-19.0,19.0,20.0,-1.0,39.0,0.0
-2.0,-32.0,18.0,-7.0,-27.0,-19.0,12.0,25.0,-3.0,35.0,0.0
-7.0,-34.0,-15.0,-10.0,-26.0,-22.0,-16.0,27.0,-7.0,30.0,0.0
3.0,-27.0,-17.0,-11.0,-23.0,-24.0,-14.0,21.0,6.0,24.0,0.0
-4.0,-43.0,-8.0,0.0,-13.0,-45.0,-29.0,5.0,-25.0,2.0,0.0
-22.0,-80.0,-8.0,2.0,-7.0,-72.0,-74.0,-27.0,-122.0,-26.0,0.0
-43.0,-57.0,-26.0,14.0,-11.0,-63.0,-47.0,-30.0,-84.0,27.0,0.0
-62.0,-60.0,-25.0,11.0,-7.0,-23.0,-20.0,-28.0,-22.0,83.0,0.0
-70.0,-84.0,-33.0,-10.0,-13.0,-14.0,-14.0,-25.0,-23.0,104.0,0.0
-50.0,-69.0,-37.0,-29.0,-24.0,-32.0,-17.0,-18.0,-28.0,124.0,0.0
-5.0,-46.0,-23.0,-26.0,-24.0,-40.0,-20.0,-14.0,-15.0,134.0,0.0
12.0,-33.0,-25.0,-5.0,-8.0,-35.0,-6.0,-4.0,5.0,114.0,0.0
27.0,-15.0,-40.0,6.0,2.0,-18.0,6.0,-4.0,17.0,66.0,0.0
33.0,5.0,-16.0,5.0,14.0,-12.0,20.0,-7.0,23.0,44.0,0.0
29.0,6.0,0.0,15.0,35.0,0.0,33.0,21.0,41.0,-45.0,0.0
30.0,34.0,1.0,33.0,38.0,19.0,45.0,34.0,46.0,-129.0,0.0
36.0,66.0,9.0,38.0,25.0,22.0,37.0,10.0,36.0,-106.0,0.0
39.0,75.0,9.0,26.0,11.0,3.0,7.0,-4.0,21.0,-60.0,0.0
29.0,62.0,-1.0,14.0,1.0,-17.0,-7.0,-9.0,3.0,-47.0,0.0
17.0,52.0,43.0,26.0,13.0,-23.0,-22.0,-19.0,-13.0,-89.0,0.0
23.0,50.0,53.0,44.0,23.0,2.0,-10.0,1.0,15.0,-77.0,0.0
-2.0,16.0,41.0,34.0,23.0,-6.0,-22.0,5.0,-24.0,-114.0,0.0
-28.0,-39.0,26.0,20.0,15.0,-34.0,-37.0,-9.0,-99.0,-160.0,0.0
-18.0,-20.0,10.0,24.0,9.0,-13.0,-8.0,9.0,-17.0,-117.0,0.0
-5.0,-4.0,-8.0,24.0,14.0,-13.0,-6.0,12.0,-1.0,-103.0,0.0
-13.0,-5.0,-17.0,21.0,18.0,-13.0,-18.0,9.0,6.0,-100.0,0.0
-14.0,-5.0,-35.0,20.0,20.0,-2.0,-18.0,8.0,10.0,-95.0,0.0
-3.0,2.0,-56.0,4.0,23.0,2.0,3.0,10.0,25.0,-51.0,0.0
-2.0,6.0,-50.0,1.0,29.0,12.0,24.0,16.0,29.0,30.0,0.0
-2.0,39.0,-38.0,10.0,28.0,25.0,26.0,15.0,16.0,122.0,0.0
19.0,76.0,-14.0,23.0,36.0,17.0,13.0,6.0,1.0,121.0,0.0
47.0,122.0,21.0,50.0,56.0,29.0,17.0,18.0,23.0,-20.0,0.0
56.0,123.0,41.0,44.0,53.0,35.0,33.0,35.0,53.0,-25.0,0.0
28.0,66.0,17.0,12.0,17.0,-6.0,-1.0,7.0,42.0,37.0,0.0
-13.0,2.0,19.0,-18.0,-21.0,-33.0,-17.0,1.0,20.0,70.0,0.0
-20.0,69.0,22.0,-27.0,-36.0,-58.0,-41.0,-42.0,-1.0,120.0,0.0
-15.0,115.0,27.0,-36.0,-46.0,-97.0,-94.0,-80.0,-57.0,202.0,0.0
-7.0,112.0,27.0,-41.0,-51.0,-129.0,-140.0,-101.0,-140.0,232.0,0.0
-5.0,102.0,41.0,-19.0,-52.0,-84.0,-88.0,-81.0,-24.0,242.0,0.0
-16.0,47.0,50.0,-18.0,-49.0,-74.0,-62.0,-66.0,4.0,229.0,0.0
-19.0,-6.0,15.0,-27.0,-45.0,-66.0,-43.0,-50.0,-7.0,202.0,0.0
-13.0,-49.0,-1.0,-42.0,-37.0,-39.0,-31.0,-51.0,-15.0,128.0,0.0
-6.0,-68.0,-15.0,-36.0,-32.0,-23.0,-21.0,-39.0,11.0,97.0,0.0
-6.0,-69.0,-31.0,-18.0,-13.0,2.0,0.0,-16.0,34.0,43.0,0.0
-33.0,-66.0,-19.0,9.0,18.0,44.0,26.0,25.0,54.0,-119.0,0.0
-62.0,-46.0,12.0,34.0,49.0,70.0,55.0,61.0,73.0,-276.0,0.0
-65.0,-37.0,13.0,37.0,48.0,98.0,82.0,86.0,79.0,-351.0,0.0
-75.0,-62.0,-40.0,13.0,35.0,104.0,97.0,74.0,76.0,-302.0,0.0
-71.0,-45.0,-63.0,3.0,23.0,59.0,52.0,34.0,13.0,-190.0,0.0
-60.0,-25.0,-43.0,13.0,20.0,67.0,47.0,35.0,18.0,-134.0,0.0
-58.0,-49.0,-22.0,13.0,15.0,60.0,36.0,23.0,-7.0,-78.0,0.0
-57.0,-70.0,-24.0,8.0,-3.0,24.0,-5.0,-18.0,-98.0,-72.0,0.0
-26.0,-24.0,-13.0,0.0,-3.0,14.0,-3.0,-25.0,-65.0,-57.0,0.0
2.0,33.0,-17.0,-5.0,-11.0,28.0,-6.0,-16.0,-8.0,-41.0,0.0
9.0,59.0,-16.0,-12.0,-26.0,26.0,-8.0,0.0,0.0,-70.0,0.0
5.0,64.0,-10.0,-15.0,-22.0,27.0,-1.0,8.0,9.0,-109.0,0.0
-5.0,56.0,0.0,-19.0,-17.0,35.0,0.0,10.0,0.0,-103.0,0.0
7.0,58.0,1.0,-3.0,1.0,48.0,7.0,8.0,19.0,-24.0,0.0
38.0,73.0,2.0,1.0,10.0,47.0,3.0,23.0,36.0,81.0,0.0
45.0,84.0,24.0,0.0,11.0,41.0,9.0,28.0,52.0,105.0,0.0
27.0,-10.0,8.0,-20.0,11.0,9.0,-36.0,-6.0,-84.0,33.0,0.0
-7.0,-24.0,17.0,5.0,16.0,29.0,-14.0,0.0,-75.0,-15.0,0.0
-22.0,-28.0,28.0,8.0,-4.0,5.0,-50.0,-41.0,-139.0,-41.0,0.0
-38.0,-25.0,41.0,-10.0,-18.0,-11.0,-63.0,-50.0,-146.0,-59.0,0.0
-45.0,-32.0,36.0,-26.0,-17.0,0.0,-37.0,-17.0,-72.0,-43.0,0.0
-44.0,-45.0,4.0,-46.0,-20.0,24.0,0.0,0.0,25.0,12.0,0.0
-20.0,-39.0,-11.0,-61.0,-32.0,37.0,13.0,-7.0,37.0,104.0,0.0
44.0,3.0,0.0,-47.0,-20.0,53.0,17.0,3.0,41.0,193.0,0.0
100.0,34.0,34.0,-25.0,0.0,58.0,36.0,12.0,44.0,214.0,0.0
72.0,16.0,22.0,-18.0,4.0,45.0,34.0,-7.0,33.0,157.0,0.0
42.0,-4.0,0.0,-30.0,-7.0,38.0,10.0,-29.0,8.0,75.0,0.0
33.0,-21.0,-16.0,-42.0,-16.0,26.0,-17.0,-43.0,-15.0,50.0,0.0
33.0,-42.0,-38.0,-65.0,-44.0,8.0,-26.0,-43.0,-26.0,57.0,0.0
13.0,-35.0,-56.0,-73.0,-46.0,6.0,-23.0,-29.0,-32.0,32.0,0.0
0.0,0.0,-40.0,-50.0,-34.0,11.0,-19.0,-34.0,-41.0,-12.0,0.0
5.0,48.0,-18.0,-13.0,-20.0,21.0,-7.0,-36.0,-44.0,-58.0,0.0
1.0,105.0,8.0,22.0,0.0,39.0,1.0,-15.0,-19.0,-30.0,0.0
9.0,144.0,23.0,51.0,16.0,45.0,-5.0,2.0,18.0,8.0,0.0
33.0,158.0,43.0,58.0,28.0,42.0,-5.0,7.0,15.0,-18.0,0.0
