channel0,channel1,channel2,channel3,channel4,channel5,channel6,channel7,channel8,channel9,true_locs
-27.0,-49.0,-7.0,-4.0,-5.0,26.0,17.0,20.0,12.0,19.0,0.0
-38.0,-52.0,11.0,-4.0,-8.0,14.0,8.0,10.0,8.0,1.0,0.0
-22.0,-40.0,17.0,-1.0,-10.0,-6.0,0.0,0.0,5.0,-10.0,0.0
-11.0,-25.0,32.0,7.0,-2.0,-18.0,-6.0,-26.0,10.0,-6.0,0.0
-13.0,-16.0,51.0,19.0,1.0,-15.0,-8.0,-28.0,11.0,11.0,0.0
-4.0,-18.0,60.0,22.0,13.0,0.0,-2.0,-4.0,19.0,25.0,0.0
10.0,1.0,41.0,26.0,19.0,15.0,-5.0,-9.0,6.0,29.0,0.0
13.0,23.0,26.0,29.0,24.0,-6.0,-9.0,-8.0,11.0,18.0,0.0
-2.0,34.0,29.0,32.0,21.0,-16.0,-23.0,-13.0,9.0,-4.0,0.0
-5.0,20.0,7.0,19.0,18.0,-17.0,-25.0,-18.0,-7.0,-16.0,0.0
-1.0,-5.0,-4.0,-5.0,20.0,-5.0,-8.0,-17.0,-23.0,-17.0,0.0
-8.0,-18.0,-7.0,-27.0,2.0,11.0,-1.0,-22.0,-15.0,0.0,0.0
0.0,0.0,5.0,-28.0,0.0,12.0,-17.0,-35.0,-6.0,24.0,0.0
8.0,7.0,-6.0,-33.0,-7.0,14.0,-7.0,-45.0,8.0,33.0,0.0
10.0,0.0,-28.0,-43.0,-2.0,30.0,11.0,-19.0,22.0,23.0,0.0
15.0,-3.0,-30.0,-48.0,-8.0,38.0,9.0,-3.0,11.0,8.0,0.0
6.0,7.0,-20.0,-21.0,-17.0,29.0,1.0,-17.0,5.0,3.0,0.0
-1.0,35.0,-4.0,-7.0,-26.0,6.0,-7.0,-35.0,9.0,-3.0,0.0
-4.0,52.0,-11.0,-15.0,-29.0,-4.0,-12.0,-50.0,-5.0,-18.0,0.0
2.0,58.0,-2.0,-24.0,-30.0,-8.0,-13.0,-47.0,1.0,-16.0,0.0
1.0,61.0,0.0,-17.0,-21.0,-8.0,-7.0,-42.0,5.0,-4.0,0.0
7.0,58.0,16.0,-1.0,-21.0,0.0,-7.0,-31.0,-3.0,0.0,0.0
3.0,57.0,34.0,9.0,-24.0,11.0,-25.0,-28.0,-10.0,-20.0,0.0
-19.0,36.0,27.0,10.0,-12.0,10.0,-23.0,-24.0,-6.0,-37.0,0.0
-30.0,12.0,-5.0,-3.0,-9.0,17.0,-2.0,-8.0,-3.0,-35.0,0.0
-17.0,3.0,-14.0,-13.0,-12.0,29.0,0.0,1.0,10.0,-14.0,0.0
-20.0,0.0,-19.0,-29.0,-20.0,29.0,-1.0,13.0,15.0,-11.0,0.0
-27.0,-4.0,-12.0,-28.0,-16.0,31.0,-1.0,13.0,6.0,-33.0,0.0
-30.0,-11.0,0.0,-30.0,-31.0,21.0,-15.0,7.0,0.0,-33.0,0.0
-34.0,-16.0,3.0,-20.0,-36.0,4.0,-29.0,-23.0,0.0,-22.0,0.0
-34.0,-7.0,-3.0,-15.0,-27.0,0.0,-23.0,-14.0,6.0,-14.0,0.0
-20.0,-1.0,-16.0,-10.0,-17.0,10.0,-23.0,-3.0,9.0,6.0,0.0
-18.0,-12.0,-26.0,-4.0,-5.0,17.0,-14.0,8.0,11.0,35.0,0.0
-12.0,-18.0,-45.0,-9.0,-8.0,13.0,-20.0,13.0,15.0,56.0,0.0
-3.0,-15.0,-43.0,-11.0,-12.0,17.0,-8.0,23.0,14.0,74.0,0.0
-2.0,-2.0,-31.0,-20.0,-8.0,11.0,-1.0,30.0,22.0,71.0,0.0
-8.0,-11.0,-30.0,-13.0,-12.0,6.0,21.0,37.0,31.0,32.0,0.0
-16.0,-19.0,-38.0,-8.0,-15.0,12.0,37.0,40.0,39.0,-50.0,0.0
-14.0,1.0,-20.0,-5.0,-10.0,1.0,25.0,36.0,28.0,-89.0,0.0
8.0,23.0,-7.0,-1.0,-17.0,-23.0,15.0,25.0,21.0,-51.0,0.0
31.0,46.0,-13.0,-10.0,-23.0,-29.0,12.0,9.0,15.0,-5.0,0.0
40.0,66.0,-14.0,-16.0,-25.0,-34.0,-4.0,-3.0,-3.0,15.0,0.0
44.0,74.0,-5.0,-10.0,-17.0,-47.0,-18.0,-3.0,-1.0,-2.0,0.0
43.0,62.0,10.0,4.0,-3.0,-51.0,-38.0,-23.0,-13.0,0.0,0.0
54.0,69.0,32.0,24.0,-1.0,-53.0,-62.0,-43.0,-26.0,22.0,0.0
53.0,108.0,57.0,30.0,-2.0,-48.0,-80.0,-54.0,-21.0,68.0,0.0
55.0,132.0,94.0,42.0,7.0,-51.0,-81.0,-64.0,-4.0,120.0,0.0
55.0,94.0,109.0,54.0,16.0,-49.0,-68.0,-46.0,13.0,154.0,0.0
53.0,34.0,72.0,28.0,24.0,-30.0,-54.0,-29.0,21.0,153.0,0.0
36.0,5.0,38.0,8.0,21.0,6.0,-24.0,-10.0,22.0,108.0,0.0
21.0,-16.0,45.0,9.0,7.0,42.0,8.0,8.0,26.0,11.0,0.0
0.0,-56.0,28.0,4.0,20.0,70.0,27.0,32.0,39.0,-106.0,0.0
-13.0,-86.0,-11.0,-7.0,38.0,82.0,41.0,61.0,54.0,-164.0,0.0
-23.0,-88.0,-45.0,-27.0,26.0,94.0,55.0,92.0,79.0,-49.0,0.0
-27.0,-52.0,-46.0,-33.0,9.0,76.0,48.0,99.0,80.0,24.0,0.0
-37.0,-35.0,-20.0,-27.0,-12.0,48.0,28.0,66.0,33.0,-8.0,0.0
-50.0,-31.0,-7.0,-30.0,-29.0,25.0,16.0,32.0,3.0,-64.0,0.0
-36.0,-28.0,-18.0,-30.0,-24.0,14.0,18.0,28.0,8.0,-73.0,0.0
-35.0,-43.0,-35.0,-31.0,-17.0,6.0,7.0,26.0,0.0,-50.0,0.0
-32.0,-29.0,-48.0,-37.0,-11.0,1.0,7.0,13.0,-11.0,-43.0,0.0
-25.0,-20.0,-46.0,-32.0,-14.0,1.0,14.0,-11.0,-9.0,-32.0,0.0
-13.0,-26.0,-38.0,-21.0,-22.0,-5.0,7.0,-22.0,-14.0,-15.0,0.0
-7.0,-27.0,-26.0,-7.0,-23.0,1.0,10.0,-10.0,-14.0,10.0,0.0
-8.0,-8.0,-12.0,4.0,-23.0,1.0,8.0,-10.0,-15.0,13.0,0.0
-6.0,2.0,4.0,3.0,-25.0,-17.0,-11.0,-13.0,-9.0,19.0,0.0
4.0,7.0,8.0,16.0,-16.0,-39.0,-30.0,-12.0,-15.0,12.0,0.0
18.0,5.0,0.0,19.0,-5.0,-41.0,-21.0,-5.0,-18.0,11.0,0.0
16.0,-7.0,-12.0,8.0,-15.0,-34.0,-12.0,8.0,-3.0,25.0,0.0
-7.0,-29.0,-33.0,-9.0,-13.0,-25.0,1.0,20.0,13.0,30.0,0.0
-16.0,-41.0,-40.0,-5.0,-20.0,-29.0,11.0,21.0,8.0,28.0,0.0
-1.0,-29.0,-33.0,0.0,-16.0,-35.0,13.0,3.0,6.0,44.0,0.0
16.0,-20.0,-36.0,0.0,-20.0,-40.0,4.0,-3.0,20.0,80.0,0.0
42.0,-6.0,-43.0,0.0,-30.0,-46.0,-5.0,3.0,36.0,140.0,0.0
46.0,-2.0,-51.0,-9.0,-40.0,-56.0,-5.0,0.0,42.0,165.0,0.0
32.0,-14.0,-47.0,-17.0,-45.0,-58.0,-11.0,-15.0,32.0,142.0,0.0
30.0,8.0,-36.0,-5.0,-34.0,-49.0,-28.0,-21.0,19.0,88.0,0.0
51.0,52.0,-1.0,7.0,-19.0,-42.0,-22.0,-18.0,32.0,26.0,0.0
50.0,76.0,29.0,13.0,-7.0,-47.0,-22.0,-33.0,36.0,-3.0,0.0
32.0,94.0,38.0,24.0,-4.0,-48.0,-30.0,-35.0,34.0,-8.0,0.0
7.0,90.0,50.0,48.0,18.0,-31.0,-21.0,-10.0,57.0,-52.0,0.0
-29.0,73.0,51.0,58.0,56.0,-8.0,15.0,22.0,70.0,-178.0,0.0
-46.0,70.0,38.0,44.0,53.0,11.0,48.0,32.0,74.0,-194.0,0.0
-50.0,69.0,55.0,17.0,21.0,7.0,33.0,30.0,68.0,-125.0,0.0
-61.0,12.0,60.0,-3.0,5.0,-5.0,3.0,18.0,57.0,-52.0,0.0
-58.0,-50.0,30.0,-31.0,0.0,9.0,16.0,16.0,73.0,14.0,0.0
-46.0,-40.0,7.0,-32.0,1.0,27.0,34.0,36.0,84.0,64.0,0.0
-20.0,-16.0,7.0,-25.0,-4.0,11.0,27.0,29.0,75.0,80.0,0.0
-12.0,-4.0,21.0,-11.0,-14.0,-16.0,1.0,12.0,51.0,53.0,0.0
-7.0,3.0,35.0,9.0,2.0,-21.0,-4.0,1.0,42.0,-22.0,0.0
10.0,13.0,35.0,10.0,15.0,-28.0,3.0,8.0,29.0,-33.0,0.0
10.0,3.0,1.0,-1.0,2.0,-35.0,2.0,25.0,29.0,-7.0,0.0
-12.0,10.0,-19.0,-3.0,-5.0,-40.0,17.0,35.0,78.0,-40.0,0.0
-34.0,7.0,-12.0,-3.0,-4.0,-39.0,15.0,20.0,67.0,-91.0,0.0
-56.0,2.0,-2.0,-11.0,-15.0,-46.0,-4.0,0.0,24.0,-93.0,0.0
-63.0,-1.0,-7.0,-11.0,-29.0,-57.0,-30.0,-22.0,-1.0,-78.0,0.0
-51.0,-8.0,-20.0,-25.0,-27.0,-60.0,-39.0,-43.0,9.0,-45.0,0.0
-22.0,2.0,-6.0,-15.0,-18.0,-55.0,-36.0,-46.0,41.0,16.0,0.0
7.0,17.0,17.0,10.0,7.0,-43.0,-29.0,-47.0,48.0,63.0,0.0
24.0,28.0,29.0,14.0,13.0,-33.0,-4.0,-41.0,64.0,112.0,0.0
51.0,43.0,51.0,6.0,11.0,-22.0,8.0,-24.0,74.0,104.0,0.0
39.0,37.0,53.0,14.0,14.0,-18.0,11.0,-15.0,78.0,35.0,1.0
13.0,33.0,38.0,10.0,14.0,-26.0,3.0,-1.0,87.0,-23.0,1.0
12.0,45.0,28.0,1.0,11.0,-44.0,-10.0,-15.0,85.0,-30.0,1.0
7.0,44.0,34.0,8.0,-14.0,-60.0,-27.0,-33.0,71.0,-19.0,1.0
11.0,27.0,17.0,20.0,-16.0,-47.0,-19.0,-24.0,76.0,-1.0,1.0
12.0,12.0,-7.0,7.0,-4.0,-34.0,-4.0,0.0,101.0,21.0,1.0
1.0,-10.0,-43.0,-4.0,-4.0,-15.0,30.0,24.0,117.0,32.0,1.0
-12.0,-25.0,-71.0,-2.0,-6.0,11.0,65.0,42.0,135.0,19.0,1.0
-2.0,-24.0,-76.0,9.0,-12.0,18.0,69.0,34.0,124.0,15.0,1.0
0.0,-8.0,-48.0,7.0,-7.0,16.0,57.0,24.0,106.0,21.0,1.0
-18.0,2.0,-27.0,4.0,-18.0,9.0,36.0,21.0,85.0,-2.0,1.0
-32.0,-3.0,-35.0,-7.0,-23.0,2.0,28.0,20.0,88.0,-12.0,1.0
-21.0,-21.0,-33.0,0.0,-8.0,-3.0,21.0,30.0,100.0,-7.0,1.0
-10.0,-13.0,-17.0,18.0,5.0,6.0,9.0,25.0,106.0,11.0,1.0
0.0,6.0,0.0,37.0,13.0,6.0,2.0,20.0,90.0,9.0,1.0
7.0,22.0,19.0,41.0,9.0,4.0,3.0,18.0,72.0,0.0,1.0
13.0,30.0,26.0,34.0,6.0,0.0,13.0,19.0,73.0,8.0,1.0
11.0,11.0,15.0,19.0,2.0,4.0,12.0,0.0,73.0,-2.0,1.0
2.0,-1.0,16.0,3.0,2.0,6.0,3.0,7.0,69.0,-20.0,0.0
-11.0,-27.0,10.0,-13.0,0.0,10.0,5.0,5.0,61.0,-22.0,0.0
-14.0,-31.0,-6.0,-22.0,2.0,21.0,20.0,6.0,54.0,-27.0,0.0
-10.0,-17.0,-5.0,-32.0,0.0,14.0,13.0,4.0,40.0,-22.0,0.0
0.0,-1.0,12.0,-8.0,-3.0,0.0,-10.0,-8.0,24.0,3.0,0.0
10.0,0.0,32.0,-10.0,-6.0,-2.0,-12.0,0.0,28.0,10.0,0.0
4.0,-4.0,40.0,-2.0,-8.0,-2.0,-10.0,6.0,32.0,12.0,0.0
6.0,-10.0,11.0,-16.0,-15.0,-1.0,-11.0,5.0,31.0,17.0,0.0
17.0,-17.0,-1.0,-26.0,-2.0,25.0,3.0,14.0,42.0,1.0,0.0
24.0,-31.0,-15.0,-29.0,7.0,34.0,27.0,16.0,40.0,-8.0,0.0
61.0,-22.0,-25.0,-28.0,3.0,32.0,32.0,5.0,33.0,5.0,0.0
77.0,-1.0,-2.0,-9.0,6.0,25.0,14.0,-5.0,29.0,0.0,0.0
65.0,11.0,1.0,-13.0,7.0,17.0,0.0,-22.0,15.0,-40.0,0.0
43.0,10.0,-16.0,-28.0,-3.0,1.0,-24.0,-36.0,7.0,-76.0,0.0
7.0,-15.0,-21.0,6.0,7.0,-3.0,-19.0,-31.0,10.0,-59.0,0.0
-7.0,-16.0,-32.0,15.0,10.0,1.0,-11.0,-24.0,2.0,-25.0,0.0
-22.0,-12.0,-44.0,9.0,-10.0,-23.0,-24.0,-34.0,-6.0,-14.0,0.0
-78.0,-18.0,-44.0,-2.0,-20.0,-32.0,-17.0,-25.0,-20.0,-16.0,0.0
-96.0,-27.0,-49.0,-2.0,1.0,-28.0,-10.0,1.0,-23.0,11.0,0.0
-75.0,-17.0,-32.0,15.0,7.0,-12.0,-5.0,12.0,-10.0,70.0,0.0
-27.0,-5.0,-27.0,15.0,13.0,-2.0,-10.0,13.0,-1.0,119.0,0.0
6.0,10.0,-26.0,7.0,10.0,-11.0,-10.0,-1.0,-5.0,98.0,0.0
26.0,16.0,-8.0,29.0,10.0,-12.0,-1.0,2.0,10.0,19.0,0.0
28.0,11.0,-7.0,30.0,3.0,-13.0,1.0,9.0,21.0,-12.0,0.0
25.0,7.0,0.0,7.0,6.0,-23.0,-11.0,0.0,10.0,18.0,0.0
17.0,9.0,20.0,-22.0,0.0,-21.0,-10.0,-19.0,-1.0,51.0,0.0
8.0,0.0,7.0,-27.0,-2.0,-19.0,-10.0,-29.0,-11.0,58.0,0.0
17.0,-5.0,-3.0,-14.0,16.0,-25.0,-13.0,-30.0,-15.0,85.0,0.0
14.0,-1.0,12.0,0.0,26.0,-13.0,-20.0,-18.0,-6.0,71.0,0.0
-4.0,10.0,18.0,6.0,25.0,11.0,-13.0,-11.0,-9.0,6.0,0.0
-22.0,15.0,19.0,8.0,48.0,28.0,-3.0,-12.0,-20.0,-90.0,0.0
-13.0,24.0,11.0,11.0,49.0,47.0,8.0,0.0,-27.0,-150.0,0.0
-12.0,21.0,22.0,13.0,32.0,26.0,12.0,0.0,-22.0,-117.0,0.0
-13.0,15.0,32.0,3.0,29.0,-1.0,0.0,-4.0,-20.0,-75.0,0.0
-3.0,22.0,30.0,6.0,34.0,-5.0,-22.0,-3.0,-24.0,-72.0,0.0
4.0,22.0,22.0,11.0,28.0,-4.0,-30.0,-5.0,-33.0,-68.0,0.0
7.0,16.0,18.0,17.0,26.0,-6.0,-17.0,-3.0,-42.0,-60.0,0.0
7.0,3.0,18.0,12.0,24.0,-19.0,-11.0,1.0,-42.0,-45.0,0.0
6.0,-7.0,8.0,-2.0,16.0,-24.0,-12.0,-10.0,-31.0,-37.0,0.0
20.0,-17.0,-7.0,-13.0,6.0,-15.0,-2.0,-11.0,-33.0,-15.0,0.0
5.0,-27.0,-17.0,-26.0,3.0,-17.0,3.0,-4.0,-43.0,13.0,0.0
-10.0,-28.0,-24.0,-33.0,0.0,-27.0,-4.0,-20.0,-46.0,36.0,0.0
-14.0,-19.0,-35.0,-45.0,-8.0,-34.0,-18.0,-40.0,-55.0,66.0,0.0
-29.0,-16.0,-45.0,-68.0,-4.0,-17.0,-13.0,-40.0,-58.0,72.0,0.0
-36.0,-35.0,-46.0,-67.0,-8.0,11.0,14.0,-21.0,-54.0,87.0,0.0
-38.0,-58.0,-30.0,-44.0,-9.0,22.0,27.0,-6.0,-60.0,90.0,0.0
-29.0,-42.0,-6.0,-29.0,5.0,17.0,16.0,-7.0,-66.0,56.0,0.0
-7.0,11.0,9.0,-6.0,21.0,10.0,5.0,-2.0,-65.0,-28.0,0.0
3.0,29.0,23.0,8.0,22.0,25.0,2.0,15.0,-69.0,-54.0,0.0
7.0,18.0,17.0,5.0,17.0,44.0,15.0,39.0,-56.0,-3.0,0.0
35.0,12.0,23.0,13.0,29.0,48.0,38.0,55.0,-50.0,11.0,0.0
54.0,0.0,12.0,15.0,32.0,31.0,39.0,63.0,-68.0,25.0,0.0
53.0,-9.0,0.0,5.0,16.0,5.0,22.0,49.0,-71.0,50.0,0.0
51.0,1.0,-3.0,15.0,5.0,-3.0,5.0,32.0,-83.0,40.0,0.0
37.0,1.0,-5.0,13.0,-3.0,-3.0,4.0,29.0,-74.0,24.0,0.0
2.0,-15.0,-15.0,-6.0,2.0,6.0,9.0,26.0,-68.0,21.0,0.0
-16.0,-23.0,-13.0,-8.0,3.0,7.0,7.0,18.0,-72.0,3.0,0.0
-26.0,-12.0,17.0,8.0,0.0,8.0,9.0,13.0,-82.0,-32.0,0.0
-29.0,-15.0,48.0,21.0,11.0,18.0,17.0,20.0,-92.0,-67.0,0.0
-35.0,-11.0,27.0,18.0,26.0,32.0,19.0,22.0,-99.0,-73.0,0.0
-24.0,18.0,12.0,22.0,35.0,30.0,5.0,15.0,-106.0,-84.0,0.0
16.0,30.0,16.0,25.0,30.0,11.0,-8.0,-4.0,-110.0,-50.0,0.0
56.0,29.0,32.0,33.0,35.0,2.0,-19.0,-6.0,-110.0,-9.0,0.0
71.0,34.0,42.0,46.0,37.0,2.0,-36.0,-11.0,-107.0,0.0,0.0
91.0,56.0,38.0,65.0,39.0,19.0,-46.0,-8.0,-103.0,18.0,0.0
95.0,62.0,50.0,65.0,41.0,11.0,-45.0,-11.0,-103.0,27.0,0.0
89.0,57.0,43.0,56.0,52.0,0.0,-26.0,-15.0,-92.0,22.0,0.0
80.0,50.0,42.0,54.0,49.0,9.0,-17.0,-12.0,-79.0,26.0,0.0
59.0,34.0,39.0,41.0,38.0,13.0,2.0,-1.0,-75.0,15.0,0.0
39.0,8.0,10.0,-3.0,21.0,23.0,30.0,22.0,-63.0,4.0,0.0
1.0,-5.0,-10.0,-59.0,2.0,19.0,40.0,34.0,-53.0,-2.0,0.0
-28.0,-9.0,-25.0,-78.0,-5.0,7.0,26.0,16.0,-67.0,-28.0,0.0
-40.0,0.0,-38.0,-77.0,-18.0,9.0,33.0,8.0,-82.0,-39.0,0.0
-44.0,7.0,-41.0,-66.0,-38.0,10.0,29.0,-3.0,-94.0,-53.0,0.0
-45.0,10.0,-21.0,-40.0,-42.0,3.0,4.0,-12.0,-104.0,-52.0,0.0
-40.0,-18.0,-12.0,-46.0,-35.0,-8.0,-16.0,-14.0,-113.0,-48.0,0.0
-40.0,-46.0,-8.0,-57.0,-31.0,-11.0,-20.0,-28.0,-107.0,-26.0,0.0
-35.0,-74.0,-7.0,-52.0,-26.0,-7.0,-24.0,-19.0,-118.0,7.0,0.0
-52.0,-92.0,-7.0,-40.0,-21.0,-9.0,-18.0,-9.0,-127.0,30.0,0.0
-52.0,-85.0,-10.0,-32.0,-30.0,-12.0,1.0,-11.0,-123.0,13.0,0.0
-38.0,-70.0,-6.0,-26.0,-23.0,-6.0,10.0,-7.0,-98.0,1.0,0.0
-21.0,-63.0,4.0,-10.0,-9.0,3.0,4.0,9.0,-92.0,18.0,0.0
-1.0,-48.0,21.0,2.0,1.0,16.0,5.0,20.0,-95.0,13.0,0.0
2.0,-44.0,25.0,0.0,-6.0,4.0,22.0,8.0,-73.0,3.0,0.0
5.0,-44.0,10.0,4.0,8.0,-1.0,23.0,2.0,-53.0,0.0,0.0
7.0,-44.0,-5.0,-7.0,0.0,0.0,35.0,14.0,-59.0,11.0,0.0
4.0,-54.0,-17.0,-13.0,-15.0,-6.0,24.0,18.0,-55.0,12.0,0.0
-3.0,-59.0,-24.0,-26.0,-16.0,-2.0,38.0,25.0,-62.0,-3.0,0.0
-15.0,-44.0,-24.0,-60.0,-27.0,7.0,48.0,23.0,-55.0,-21.0,0.0
-15.0,-24.0,-19.0,-67.0,-31.0,-14.0,34.0,8.0,-49.0,-34.0,0.0
0.0,-8.0,-13.0,-45.0,-39.0,-49.0,14.0,0.0,-69.0,-33.0,0.0
15.0,2.0,-7.0,-29.0,-39.0,-55.0,-3.0,1.0,-76.0,-22.0,0.0
5.0,14.0,-31.0,-19.0,-42.0,-57.0,-15.0,-16.0,-71.0,-10.0,0.0
29.0,41.0,-35.0,9.0,-32.0,-64.0,-17.0,-43.0,-63.0,14.0,0.0
53.0,60.0,-3.0,43.0,-10.0,-48.0,-10.0,-47.0,-61.0,52.0,0.0
63.0,70.0,17.0,68.0,0.0,-27.0,-19.0,-36.0,-63.0,123.0,0.0
74.0,72.0,27.0,75.0,14.0,-17.0,-13.0,-5.0,-55.0,178.0,0.0
73.0,76.0,21.0,72.0,30.0,-9.0,-3.0,5.0,-43.0,124.0,0.0
60.0,56.0,-12.0,61.0,39.0,16.0,3.0,6.0,-27.0,21.0,0.0
53.0,38.0,-40.0,35.0,40.0,24.0,16.0,18.0,-7.0,37.0,0.0
49.0,25.0,-42.0,13.0,26.0,15.0,33.0,28.0,6.0,55.0,0.0
42.0,9.0,-12.0,11.0,21.0,15.0,34.0,36.0,6.0,-8.0,0.0
28.0,-3.0,15.0,25.0,23.0,11.0,24.0,45.0,-6.0,-72.0,0.0
5.0,-8.0,10.0,30.0,24.0,0.0,16.0,37.0,-24.0,-49.0,0.0
0.0,-25.0,-18.0,-6.0,25.0,-3.0,20.0,21.0,-25.0,3.0,0.0
0.0,-43.0,-36.0,-15.0,20.0,-2.0,16.0,30.0,-20.0,14.0,0.0
-13.0,-43.0,-14.0,15.0,27.0,0.0,21.0,45.0,0.0,-12.0,0.0
-16.0,-22.0,3.0,29.0,26.0,8.0,24.0,49.0,1.0,-46.0,0.0
-18.0,-1.0,21.0,24.0,20.0,12.0,20.0,45.0,0.0,-90.0,0.0
-29.0,1.0,25.0,16.0,12.0,-2.0,25.0,32.0,-15.0,-86.0,0.0
-42.0,-13.0,-3.0,-12.0,6.0,-16.0,33.0,26.0,-23.0,-51.0,0.0
-22.0,-7.0,-25.0,-38.0,-11.0,-15.0,29.0,25.0,-30.0,-22.0,0.0
-1.0,32.0,-5.0,-45.0,-17.0,-15.0,0.0,9.0,-35.0,-18.0,0.0
0.0,37.0,17.0,-47.0,-17.0,-13.0,-11.0,15.0,-29.0,-19.0,0.0
-9.0,14.0,26.0,-71.0,-7.0,-15.0,-19.0,14.0,-17.0,-15.0,0.0
-9.0,7.0,22.0,-65.0,-3.0,-24.0,-28.0,14.0,-21.0,-8.0,0.0
0.0,16.0,35.0,-44.0,13.0,-28.0,-25.0,9.0,-29.0,2.0,0.0
7.0,22.0,24.0,-37.0,12.0,-37.0,-12.0,16.0,-20.0,15.0,0.0
9.0,26.0,-10.0,-21.0,7.0,-19.0,9.0,15.0,-11.0,22.0,0.0
4.0,17.0,-32.0,-13.0,2.0,-2.0,18.0,12.0,-31.0,21.0,0.0
4.0,21.0,-20.0,-20.0,9.0,-8.0,17.0,6.0,-33.0,26.0,0.0
5.0,26.0,3.0,-7.0,6.0,-8.0,-1.0,-1.0,-21.0,35.0,0.0
3.0,13.0,6.0,-5.0,2.0,-5.0,-6.0,2.0,-15.0,33.0,0.0
-6.0,-8.0,-10.0,-19.0,-2.0,-9.0,-3.0,1.0,-37.0,17.0,0.0
-29.0,-28.0,-27.0,-38.0,-7.0,12.0,30.0,25.0,-11.0,3.0,0.0
-46.0,-65.0,-46.0,-46.0,-8.0,29.0,46.0,26.0,-10.0,-1.0,0.0
-52.0,-85.0,-46.0,-25.0,-8.0,38.0,40.0,24.0,-15.0,13.0,0.0
-48.0,-69.0,-34.0,-22.0,-13.0,28.0,13.0,14.0,-24.0,15.0,0.0
-29.0,-49.0,-8.0,-24.0,-7.0,3.0,-4.0,-1.0,-37.0,2.0,0.0
-29.0,-45.0,-3.0,-11.0,-2.0,10.0,28.0,3.0,6.0,17.0,0.0
-25.0,-42.0,-6.0,-5.0,8.0,24.0,32.0,-5.0,9.0,22.0,0.0
-11.0,-26.0,-17.0,6.0,15.0,22.0,16.0,-7.0,-6.0,2.0,0.0
-4.0,-16.0,-11.0,1.0,13.0,14.0,0.0,-17.0,-17.0,-6.0,0.0
17.0,-11.0,-10.0,-8.0,4.0,15.0,-9.0,-17.0,-6.0,44.0,0.0
41.0,-6.0,-20.0,-7.0,-5.0,-3.0,-9.0,-12.0,20.0,130.0,0.0
53.0,-5.0,-12.0,-13.0,-18.0,-20.0,-20.0,-24.0,25.0,144.0,0.0
63.0,5.0,-19.0,-27.0,-26.0,-32.0,-37.0,-40.0,11.0,146.0,0.0
63.0,19.0,-23.0,-24.0,-38.0,-35.0,-34.0,-36.0,13.0,125.0,0.0
49.0,31.0,-18.0,-12.0,-32.0,-20.0,-17.0,-18.0,37.0,87.0,0.0
19.0,14.0,-30.0,2.0,-30.0,-13.0,-12.0,-6.0,43.0,45.0,0.0
-5.0,13.0,-45.0,-8.0,-30.0,-14.0,-31.0,-22.0,30.0,-7.0,0.0
-32.0,11.0,-48.0,-19.0,-26.0,-7.0,-35.0,-41.0,22.0,-72.0,0.0
-53.0,7.0,-35.0,-21.0,-19.0,14.0,-11.0,-11.0,19.0,-127.0,0.0
-54.0,3.0,0.0,-12.0,2.0,24.0,16.0,15.0,16.0,-170.0,0.0
-52.0,16.0,42.0,19.0,10.0,29.0,23.0,12.0,7.0,-188.0,0.0
-11.0,29.0,62.0,34.0,1.0,23.0,8.0,2.0,-4.0,-142.0,0.0
50.0,30.0,64.0,41.0,0.0,4.0,-19.0,-9.0,-13.0,-76.0,0.0
63.0,21.0,32.0,28.0,11.0,4.0,-28.0,-21.0,-23.0,-57.0,0.0
36.0,17.0,8.0,10.0,14.0,23.0,-14.0,-19.0,-19.0,-56.0,0.0
9.0,0.0,0.0,0.0,14.0,25.0,-6.0,0.0,-1.0,-29.0,0.0
-7.0,-25.0,-13.0,-5.0,12.0,22.0,3.0,0.0,23.0,4.0,0.0
-11.0,-17.0,-16.0,1.0,13.0,14.0,17.0,8.0,32.0,25.0,0.0
-15.0,8.0,-4.0,6.0,17.0,1.0,6.0,0.0,15.0,25.0,0.0
-37.0,32.0,3.0,9.0,6.0,1.0,-1.0,-11.0,1.0,19.0,0.0
-20.0,50.0,11.0,25.0,14.0,11.0,4.0,-4.0,4.0,14.0,0.0
16.0,59.0,27.0,47.0,26.0,13.0,9.0,-6.0,6.0,-32.0,0.0
37.0,74.0,61.0,54.0,21.0,-5.0,-7.0,-15.0,-1.0,-53.0,0.0
39.0,88.0,69.0,44.0,6.0,-26.0,-28.0,-42.0,-8.0,-29.0,0.0
37.0,62.0,33.0,27.0,4.0,-26.0,-35.0,-37.0,-14.0,0.0,0.0
46.0,42.0,18.0,14.0,10.0,-19.0,-27.0,-37.0,-16.0,16.0,0.0
53.0,31.0,29.0,2.0,8.0,-17.0,-28.0,-52.0,-9.0,29.0,0.0
50.0,29.0,23.0,8.0,1.0,-34.0,-30.0,-53.0,2.0,43.0,0.0
46.0,34.0,29.0,9.0,-13.0,-33.0,-19.0,-38.0,0.0,40.0,0.0
36.0,17.0,24.0,2.0,-11.0,-21.0,-10.0,-28.0,7.0,21.0,0.0
21.0,-2.0,5.0,-8.0,-1.0,-18.0,-8.0,-20.0,14.0,22.0,0.0
-2.0,-20.0,14.0,-7.0,-6.0,-18.0,-15.0,-11.0,18.0,21.0,0.0
-17.0,-43.0,22.0,2.0,-3.0,-18.0,-12.0,-2.0,14.0,21.0,0.0
-24.0,-58.0,15.0,-10.0,4.0,-8.0,7.0,-11.0,14.0,15.0,0.0
-43.0,-80.0,-1.0,-12.0,11.0,11.0,27.0,-8.0,15.0,16.0,0.0
-44.0,-88.0,-7.0,-13.0,14.0,20.0,24.0,-1.0,10.0,18.0,0.0
-56.0,-78.0,-8.0,-3.0,10.0,20.0,25.0,11.0,19.0,20.0,0.0
-45.0,-69.0,-9.0,-10.0,20.0,10.0,22.0,8.0,17.0,10.0,0.0
-21.0,-31.0,5.0,-15.0,10.0,-5.0,17.0,-9.0,13.0,0.0,0.0
-30.0,10.0,19.0,-24.0,-7.0,-12.0,7.0,-23.0,10.0,5.0,0.0
-23.0,16.0,15.0,-20.0,-16.0,-10.0,8.0,-21.0,-3.0,-5.0,0.0
1.0,9.0,5.0,-18.0,-11.0,-11.0,7.0,-9.0,7.0,2.0,0.0
7.0,1.0,-10.0,-13.0,-10.0,-14.0,-6.0,3.0,20.0,-2.0,0.0
2.0,6.0,0.0,-3.0,-11.0,-22.0,-10.0,16.0,-5.0,-20.0,0.0
2.0,9.0,8.0,0.0,-8.0,-20.0,-9.0,5.0,0.0,-20.0,0.0
3.0,-2.0,-8.0,-4.0,-11.0,-12.0,-6.0,-7.0,8.0,-34.0,0.0
0.0,-8.0,-15.0,3.0,-9.0,-13.0,-16.0,-18.0,4.0,-46.0,0.0
14.0,-7.0,-13.0,15.0,-8.0,-3.0,-27.0,-11.0,-6.0,-52.0,0.0
7.0,-1.0,2.0,29.0,0.0,-7.0,-32.0,-16.0,-7.0,-42.0,0.0
9.0,-5.0,-19.0,12.0,-9.0,-10.0,-7.0,-33.0,-16.0,96.0,0.0
15.0,-25.0,-33.0,0.0,11.0,-1.0,7.0,-13.0,-2.0,152.0,0.0
37.0,-40.0,-39.0,-14.0,19.0,-6.0,5.0,-26.0,-62.0,80.0,0.0
48.0,-40.0,-53.0,-47.0,8.0,-5.0,-14.0,-25.0,-136.0,38.0,0.0
44.0,-4.0,-43.0,-34.0,15.0,20.0,52.0,12.0,-19.0,51.0,0.0
44.0,32.0,-8.0,7.0,28.0,28.0,84.0,28.0,16.0,19.0,0.0
50.0,66.0,41.0,45.0,36.0,24.0,68.0,20.0,15.0,-34.0,0.0
66.0,77.0,80.0,53.0,34.0,-1.0,32.0,-9.0,-9.0,-66.0,0.0
77.0,93.0,91.0,45.0,34.0,-17.0,18.0,-14.0,-11.0,-50.0,0.0
59.0,86.0,66.0,55.0,38.0,-13.0,9.0,-11.0,2.0,-21.0,0.0
45.0,66.0,39.0,53.0,28.0,-6.0,11.0,-7.0,10.0,-4.0,0.0
31.0,71.0,32.0,39.0,19.0,0.0,24.0,-5.0,12.0,-9.0,0.0
18.0,84.0,40.0,25.0,8.0,0.0,19.0,-9.0,10.0,-25.0,0.0
16.0,78.0,51.0,22.0,3.0,-9.0,-5.0,-20.0,-3.0,-28.0,0.0
-3.0,28.0,24.0,6.0,-5.0,-10.0,-17.0,-33.0,-11.0,-21.0,0.0
-44.0,-22.0,-16.0,-6.0,-19.0,-21.0,-16.0,-41.0,-10.0,-23.0,0.0
-65.0,-78.0,-59.0,-41.0,-32.0,-26.0,-5.0,-42.0,-3.0,-22.0,0.0
-58.0,-110.0,-74.0,-66.0,-26.0,-16.0,14.0,-23.0,15.0,-18.0,0.0
-62.0,-124.0,-67.0,-69.0,-31.0,2.0,10.0,9.0,23.0,-39.0,0.0
-73.0,-144.0,-104.0,-72.0,-28.0,6.0,6.0,8.0,23.0,-70.0,0.0
-72.0,-126.0,-115.0,-69.0,-23.0,7.0,17.0,13.0,15.0,-71.0,0.0
-76.0,-109.0,-102.0,-56.0,-21.0,13.0,24.0,12.0,9.0,-46.0,0.0
-61.0,-96.0,-76.0,-39.0,-6.0,27.0,29.0,11.0,23.0,-10.0,0.0
-43.0,-59.0,-55.0,-35.0,-8.0,28.0,41.0,13.0,29.0,25.0,0.0
-32.0,-40.0,-46.0,-40.0,-12.0,24.0,30.0,3.0,12.0,68.0,0.0
-22.0,-32.0,-41.0,-50.0,-3.0,4.0,9.0,-16.0,-1.0,77.0,0.0
-1.0,-23.0,-30.0,-41.0,1.0,1.0,-7.0,-24.0,-19.0,79.0,0.0
28.0,-4.0,-2.0,-14.0,4.0,-7.0,-11.0,-30.0,-11.0,67.0,0.0
48.0,31.0,25.0,3.0,9.0,-1.0,-8.0,-21.0,8.0,-43.0,0.0
56.0,78.0,62.0,37.0,15.0,0.0,-6.0,-8.0,11.0,-127.0,0.0
65.0,90.0,65.0,74.0,26.0,5.0,-7.0,3.0,19.0,-45.0,0.0
102.0,108.0,72.0,78.0,41.0,11.0,-7.0,-5.0,34.0,54.0,0.0
107.0,114.0,83.0,86.0,46.0,-4.0,-22.0,-17.0,0.0,30.0,0.0
76.0,119.0,71.0,93.0,37.0,-3.0,-21.0,-4.0,8.0,-1.0,0.0
24.0,113.0,52.0,86.0,31.0,0.0,-2.0,4.0,36.0,8.0,0.0
-1.0,74.0,21.0,55.0,33.0,8.0,15.0,9.0,35.0,11.0,0.0
-15.0,36.0,-29.0,28.0,21.0,6.0,10.0,0.0,27.0,-1.0,0.0
-22.0,23.0,-36.0,0.0,-3.0,-20.0,-9.0,-23.0,-6.0,-28.0,0.0
-28.0,-4.0,-32.0,-15.0,-21.0,-3.0,4.0,-2.0,17.0,-18.0,0.0
-43.0,-40.0,-39.0,-28.0,-28.0,24.0,23.0,10.0,32.0,-4.0,0.0
-47.0,-53.0,-49.0,-37.0,-34.0,28.0,30.0,8.0,20.0,-14.0,0.0
-53.0,-47.0,-41.0,-32.0,-32.0,25.0,27.0,-3.0,16.0,-19.0,0.0
-45.0,-38.0,-22.0,-21.0,-15.0,8.0,15.0,-23.0,2.0,-18.0,0.0
-37.0,-15.0,-10.0,-13.0,-12.0,4.0,-5.0,-22.0,-7.0,9.0,0.0
-27.0,-4.0,13.0,-7.0,-16.0,13.0,-8.0,-13.0,14.0,25.0,0.0
-15.0,11.0,17.0,-9.0,-7.0,14.0,-13.0,-19.0,25.0,14.0,0.0
0.0,26.0,10.0,-24.0,-13.0,0.0,-32.0,-29.0,-1.0,-14.0,0.0
0.0,41.0,9.0,-39.0,-27.0,-6.0,-45.0,-34.0,-24.0,-26.0,0.0
2.0,46.0,16.0,-32.0,-29.0,-12.0,-39.0,-24.0,-25.0,-8.0,0.0
-15.0,10.0,-4.0,-38.0,-19.0,-16.0,-30.0,-10.0,-20.0,2.0,0.0
-46.0,-25.0,-38.0,-39.0,-10.0,0.0,-6.0,4.0,-8.0,0.0,0.0
-43.0,-42.0,-54.0,-43.0,-10.0,18.0,8.0,14.0,4.0,4.0,0.0
-18.0,-22.0,-30.0,-45.0,-9.0,12.0,9.0,9.0,5.0,-4.0,0.0
-6.0,4.0,-7.0,-20.0,-2.0,10.0,-5.0,-6.0,-3.0,-20.0,0.0
-4.0,8.0,-11.0,-5.0,8.0,15.0,-18.0,-11.0,-18.0,-28.0,0.0
8.0,17.0,2.0,-6.0,1.0,19.0,-16.0,-10.0,-12.0,-18.0,0.0
22.0,20.0,19.0,-8.0,7.0,17.0,-12.0,-11.0,-8.0,-23.0,0.0
34.0,26.0,17.0,3.0,7.0,28.0,-18.0,-1.0,-7.0,-17.0,0.0
28.0,33.0,10.0,39.0,9.0,42.0,-23.0,7.0,2.0,-8.0,0.0
15.0,37.0,12.0,45.0,21.0,35.0,-19.0,-6.0,-10.0,1.0,0.0
21.0,39.0,23.0,55.0,34.0,12.0,-20.0,-21.0,-17.0,6.0,0.0
12.0,35.0,37.0,63.0,37.0,1.0,-26.0,-32.0,-15.0,3.0,0.0
4.0,31.0,50.0,41.0,25.0,-8.0,-42.0,-42.0,-32.0,-13.0,0.0
24.0,10.0,33.0,19.0,14.0,-15.0,-49.0,-49.0,-30.0,20.0,0.0
38.0,-3.0,11.0,-1.0,2.0,-19.0,-49.0,-56.0,-19.0,141.0,0.0
25.0,-32.0,-25.0,-19.0,-6.0,-13.0,-45.0,-43.0,2.0,207.0,0.0
26.0,-39.0,-28.0,-22.0,-19.0,-11.0,-24.0,-24.0,5.0,190.0,0.0
20.0,-24.0,-9.0,-16.0,-28.0,-11.0,-37.0,-30.0,7.0,159.0,0.0
15.0,-18.0,-5.0,6.0,-30.0,-12.0,-46.0,-34.0,10.0,121.0,0.0
7.0,-8.0,-1.0,20.0,-17.0,-7.0,-38.0,-19.0,15.0,51.0,0.0
-8.0,1.0,23.0,19.0,-8.0,10.0,-8.0,0.0,6.0,-36.0,0.0
-23.0,0.0,37.0,25.0,6.0,27.0,16.0,6.0,12.0,-100.0,0.0
-47.0,5.0,46.0,52.0,23.0,55.0,37.0,47.0,38.0,-153.0,0.0
-61.0,22.0,56.0,55.0,39.0,67.0,43.0,60.0,30.0,-208.0,0.0
-44.0,28.0,37.0,48.0,49.0,65.0,37.0,37.0,19.0,-236.0,0.0
-37.0,24.0,17.0,29.0,43.0,53.0,34.0,28.0,16.0,-170.0,0.0
-13.0,38.0,16.0,7.0,15.0,24.0,12.0,20.0,8.0,-108.0,0.0
34.0,46.0,26.0,11.0,4.0,10.0,-13.0,9.0,16.0,-55.0,0.0
94.0,65.0,32.0,22.0,14.0,3.0,-11.0,0.0,19.0,-14.0,0.0
126.0,83.0,17.0,20.0,23.0,0.0,-13.0,-4.0,21.0,0.0,0.0
119.0,98.0,8.0,38.0,23.0,11.0,-22.0,-17.0,27.0,10.0,0.0
94.0,102.0,13.0,57.0,26.0,2.0,-23.0,-31.0,5.0,8.0,0.0
60.0,107.0,11.0,59.0,31.0,-12.0,-17.0,-25.0,-7.0,-3.0,0.0
42.0,113.0,11.0,58.0,19.0,-22.0,-21.0,-1.0,7.0,-21.0,0.0
2.0,108.0,31.0,67.0,15.0,-23.0,-44.0,-6.0,-6.0,-50.0,0.0
-66.0,97.0,66.0,72.0,16.0,-32.0,-60.0,-34.0,-29.0,-63.0,0.0
-102.0,59.0,80.0,74.0,9.0,-28.0,-60.0,-50.0,-25.0,-42.0,0.0
-103.0,5.0,71.0,54.0,-6.0,-27.0,-41.0,-64.0,-8.0,2.0,0.0
-97.0,-75.0,7.0,-6.0,-7.0,-3.0,-5.0,-28.0,28.0,45.0,0.0
-101.0,-150.0,-56.0,-58.0,-13.0,34.0,36.0,-8.0,47.0,61.0,0.0
-127.0,-202.0,-99.0,-81.0,-18.0,49.0,72.0,13.0,55.0,35.0,0.0
-133.0,-202.0,-91.0,-88.0,-13.0,59.0,88.0,32.0,56.0,-22.0,0.0
-114.0,-161.0,-53.0,-58.0,1.0,61.0,65.0,28.0,47.0,-53.0,0.0
-91.0,-133.0,-39.0,-46.0,4.0,49.0,50.0,19.0,45.0,-18.0,0.0
-69.0,-108.0,-23.0,-37.0,0.0,41.0,52.0,24.0,45.0,15.0,0.0
-43.0,-92.0,-28.0,-24.0,6.0,42.0,38.0,14.0,33.0,22.0,0.0
-31.0,-77.0,-26.0,-21.0,7.0,33.0,24.0,-4.0,18.0,19.0,0.0
-4.0,-47.0,-12.0,-16.0,0.0,41.0,19.0,-12.0,27.0,9.0,0.0
0.0,-17.0,0.0,-7.0,2.0,42.0,8.0,-1.0,30.0,9.0,0.0
4.0,-8.0,19.0,-1.0,-2.0,29.0,0.0,5.0,18.0,0.0,0.0
9.0,-2.0,26.0,10.0,-4.0,22.0,6.0,1.0,12.0,0.0,0.0
7.0,8.0,45.0,25.0,10.0,13.0,6.0,-11.0,20.0,0.0,0.0
21.0,29.0,47.0,36.0,14.0,-5.0,-7.0,-13.0,17.0,4.0,0.0
30.0,43.0,46.0,45.0,17.0,-11.0,0.0,2.0,18.0,-4.0,0.0
29.0,51.0,56.0,45.0,17.0,-14.0,1.0,4.0,17.0,-13.0,0.0
19.0,26.0,49.0,44.0,16.0,-15.0,-1.0,-1.0,18.0,-11.0,0.0
16.0,19.0,34.0,33.0,18.0,-8.0,12.0,29.0,21.0,4.0,0.0
9.0,14.0,15.0,25.0,8.0,-13.0,8.0,40.0,29.0,9.0,0.0
-4.0,13.0,4.0,14.0,6.0,-16.0,9.0,29.0,10.0,-9.0,0.0
-17.0,1.0,2.0,5.0,13.0,-19.0,-12.0,-2.0,-11.0,-21.0,0.0
-19.0,-8.0,-7.0,-12.0,-6.0,-14.0,-18.0,-17.0,-23.0,-18.0,0.0
-9.0,-22.0,-51.0,-37.0,-17.0,-17.0,-13.0,-19.0,-17.0,4.0,0.0
-4.0,-28.0,-82.0,-40.0,-12.0,-16.0,-9.0,-12.0,2.0,28.0,0.0
-7.0,-50.0,-73.0,-47.0,-24.0,-14.0,9.0,7.0,22.0,58.0,0.0
4.0,-46.0,-50.0,-47.0,-22.0,-8.0,23.0,2.0,49.0,71.0,0.0
-4.0,-37.0,-39.0,-36.0,-27.0,-10.0,15.0,-6.0,61.0,49.0,0.0
-19.0,-34.0,-27.0,-10.0,-25.0,-22.0,-7.0,-6.0,50.0,21.0,0.0
-22.0,-22.0,-15.0,-2.0,-30.0,-34.0,-5.0,-17.0,43.0,9.0,0.0
-16.0,-12.0,-16.0,-7.0,-28.0,-39.0,-6.0,-4.0,45.0,8.0,0.0
-8.0,-22.0,-7.0,0.0,-20.0,-46.0,0.0,-4.0,40.0,5.0,0.0
-5.0,-46.0,-8.0,5.0,-18.0,-24.0,17.0,-17.0,38.0,11.0,0.0
-18.0,-65.0,-39.0,6.0,-11.0,-6.0,16.0,-1.0,54.0,26.0,0.0
-17.0,-52.0,-46.0,-4.0,3.0,12.0,26.0,22.0,71.0,17.0,0.0
8.0,-29.0,-41.0,-12.0,-4.0,19.0,12.0,35.0,56.0,18.0,0.0
10.0,-5.0,-37.0,-22.0,-9.0,19.0,1.0,26.0,35.0,11.0,0.0
-14.0,8.0,-37.0,-23.0,3.0,13.0,17.0,20.0,31.0,-4.0,0.0
1.0,29.0,-29.0,-14.0,5.0,0.0,21.0,19.0,21.0,-15.0,0.0
15.0,39.0,3.0,-5.0,0.0,-2.0,16.0,12.0,31.0,-5.0,0.0
35.0,47.0,20.0,10.0,-4.0,-10.0,-11.0,9.0,49.0,3.0,0.0
46.0,54.0,35.0,18.0,-10.0,-9.0,-36.0,-9.0,35.0,-9.0,0.0
41.0,62.0,52.0,31.0,-3.0,-6.0,-27.0,-21.0,36.0,-18.0,0.0
38.0,63.0,48.0,37.0,10.0,-6.0,-39.0,-24.0,47.0,-21.0,0.0
40.0,46.0,29.0,28.0,16.0,-12.0,-35.0,1.0,60.0,-8.0,0.0
29.0,26.0,1.0,24.0,10.0,0.0,-11.0,27.0,75.0,5.0,0.0
21.0,25.0,-4.0,5.0,3.0,7.0,3.0,31.0,85.0,5.0,0.0
-6.0,14.0,-7.0,-16.0,0.0,17.0,13.0,32.0,98.0,5.0,0.0
-39.0,-2.0,-36.0,-31.0,-22.0,7.0,-8.0,19.0,95.0,-39.0,0.0
-62.0,-20.0,-54.0,-59.0,-52.0,-11.0,-38.0,-4.0,66.0,-56.0,0.0
-63.0,-29.0,-61.0,-82.0,-63.0,-25.0,-28.0,-14.0,44.0,11.0,0.0
-62.0,-30.0,-72.0,-72.0,-49.0,-16.0,-14.0,-1.0,61.0,64.0,0.0
-53.0,-25.0,-67.0,-55.0,-35.0,-20.0,-28.0,2.0,70.0,84.0,0.0
-20.0,-11.0,-66.0,-48.0,-39.0,-40.0,-51.0,-1.0,63.0,117.0,0.0
22.0,6.0,-51.0,-46.0,-51.0,-42.0,-55.0,-11.0,71.0,192.0,0.0
58.0,-3.0,-44.0,-44.0,-48.0,-52.0,-58.0,-22.0,62.0,249.0,0.0
71.0,-19.0,-50.0,-48.0,-33.0,-57.0,-57.0,-30.0,64.0,268.0,0.0
49.0,-27.0,-46.0,-60.0,-25.0,-34.0,-33.0,-29.0,78.0,174.0,0.0
32.0,-34.0,-12.0,-43.0,-16.0,-21.0,-12.0,-4.0,89.0,41.0,0.0
29.0,-19.0,7.0,-23.0,1.0,-12.0,-6.0,7.0,95.0,20.0,0.0
35.0,5.0,5.0,-14.0,11.0,1.0,-7.0,9.0,100.0,64.0,0.0
41.0,30.0,23.0,0.0,16.0,31.0,1.0,3.0,117.0,16.0,0.0
22.0,60.0,48.0,31.0,29.0,47.0,9.0,17.0,129.0,-164.0,0.0
-19.0,79.0,65.0,54.0,53.0,56.0,16.0,24.0,139.0,-369.0,0.0
-54.0,66.0,47.0,51.0,59.0,51.0,26.0,26.0,133.0,-394.0,0.0
-64.0,29.0,24.0,12.0,27.0,36.0,22.0,22.0,104.0,-274.0,0.0
-43.0,-2.0,-1.0,-21.0,3.0,11.0,10.0,10.0,82.0,-135.0,0.0
-3.0,-14.0,-8.0,-20.0,10.0,12.0,-4.0,10.0,76.0,9.0,0.0
25.0,0.0,4.0,11.0,24.0,27.0,2.0,17.0,51.0,36.0,0.0
52.0,35.0,12.0,47.0,32.0,34.0,24.0,9.0,22.0,-10.0,0.0
44.0,42.0,3.0,48.0,38.0,31.0,32.0,-6.0,3.0,-26.0,0.0
44.0,27.0,-9.0,35.0,31.0,25.0,28.0,9.0,7.0,-24.0,0.0
49.0,42.0,-7.0,45.0,26.0,30.0,17.0,17.0,6.0,-94.0,0.0
31.0,54.0,15.0,43.0,16.0,24.0,5.0,12.0,-12.0,-83.0,0.0
11.0,40.0,37.0,58.0,13.0,16.0,-2.0,-11.0,-21.0,-30.0,0.0
22.0,41.0,52.0,56.0,9.0,-3.0,-15.0,-31.0,-21.0,-4.0,0.0
32.0,45.0,57.0,32.0,2.0,-4.0,-26.0,-30.0,-31.0,9.0,0.0
22.0,26.0,48.0,9.0,7.0,-2.0,-33.0,-32.0,-18.0,-6.0,0.0
12.0,28.0,43.0,16.0,5.0,-5.0,-40.0,-42.0,-14.0,-17.0,0.0
-7.0,42.0,66.0,21.0,-10.0,-21.0,-43.0,-48.0,-19.0,-10.0,0.0
-10.0,36.0,84.0,15.0,-10.0,-25.0,-45.0,-44.0,-33.0,-4.0,0.0
-16.0,19.0,82.0,2.0,-14.0,-30.0,-50.0,-32.0,-41.0,-1.0,0.0
-15.0,10.0,49.0,-3.0,-30.0,-34.0,-58.0,-10.0,-25.0,0.0,0.0
-14.0,-10.0,19.0,-18.0,-34.0,-28.0,-37.0,-4.0,0.0,0.0,0.0
-14.0,-34.0,8.0,-27.0,-24.0,-16.0,-8.0,2.0,21.0,4.0,0.0
-13.0,-39.0,-15.0,-15.0,-22.0,-15.0,0.0,5.0,27.0,11.0,0.0
-6.0,-43.0,-44.0,-21.0,-34.0,-7.0,2.0,12.0,31.0,19.0,0.0
-2.0,-36.0,-70.0,-38.0,-30.0,-2.0,13.0,23.0,32.0,24.0,0.0
4.0,-12.0,-62.0,-47.0,-14.0,7.0,10.0,13.0,23.0,12.0,0.0
14.0,-4.0,-38.0,-25.0,-6.0,2.0,-2.0,0.0,17.0,8.0,0.0
29.0,0.0,-27.0,-4.0,1.0,-11.0,-15.0,-11.0,14.0,3.0,0.0
56.0,-6.0,-28.0,2.0,2.0,-29.0,-28.0,-34.0,-9.0,-10.0,0.0
61.0,-38.0,-27.0,-15.0,-15.0,-52.0,-49.0,-50.0,-26.0,-25.0,0.0
31.0,-64.0,-26.0,-13.0,-25.0,-56.0,-63.0,-49.0,-25.0,-18.0,0.0
16.0,-69.0,-21.0,-20.0,-17.0,-62.0,-52.0,-38.0,-15.0,39.0,0.0
18.0,-59.0,-25.0,-24.0,-12.0,-43.0,-22.0,-2.0,14.0,158.0,0.0
21.0,-53.0,-17.0,-12.0,-16.0,-12.0,14.0,16.0,40.0,270.0,0.0
33.0,-21.0,-3.0,-1.0,-8.0,3.0,25.0,14.0,40.0,289.0,0.0
-17.0,12.0,15.0,1.0,-2.0,5.0,17.0,-2.0,19.0,172.0,0.0
-67.0,11.0,23.0,-14.0,15.0,-1.0,14.0,2.0,4.0,49.0,0.0
-65.0,-3.0,6.0,-28.0,26.0,14.0,33.0,28.0,22.0,-38.0,0.0
-46.0,-2.0,-4.0,-16.0,22.0,18.0,44.0,32.0,30.0,-172.0,0.0
-26.0,16.0,-17.0,13.0,24.0,21.0,53.0,45.0,31.0,-268.0,0.0
-19.0,21.0,-23.0,17.0,16.0,18.0,40.0,45.0,34.0,-194.0,0.0
-10.0,13.0,-26.0,2.0,15.0,7.0,14.0,22.0,22.0,-49.0,0.0
9.0,16.0,-17.0,0.0,20.0,-5.0,-4.0,11.0,6.0,100.0,0.0
31.0,23.0,0.0,22.0,17.0,-10.0,-8.0,6.0,-3.0,133.0,0.0
44.0,40.0,18.0,29.0,27.0,-7.0,-4.0,1.0,-8.0,41.0,0.0
50.0,48.0,23.0,15.0,36.0,-14.0,-19.0,-17.0,-7.0,-24.0,0.0
31.0,34.0,41.0,22.0,30.0,-11.0,-41.0,-37.0,-21.0,-88.0,0.0
12.0,32.0,73.0,35.0,28.0,-6.0,-46.0,-38.0,-44.0,-116.0,0.0
15.0,55.0,98.0,20.0,23.0,-22.0,-37.0,-40.0,-45.0,-66.0,0.0
13.0,73.0,87.0,0.0,8.0,-36.0,-35.0,-42.0,-33.0,-63.0,0.0
3.0,61.0,68.0,-10.0,-5.0,-34.0,-30.0,-33.0,-25.0,-74.0,0.0
-4.0,22.0,49.0,-11.0,-1.0,-29.0,-31.0,-10.0,-9.0,-48.0,0.0
0.0,-2.0,25.0,-5.0,-18.0,-33.0,-31.0,0.0,-1.0,4.0,0.0
3.0,-8.0,18.0,-21.0,-38.0,-59.0,-42.0,6.0,2.0,55.0,0.0
-16.0,-32.0,8.0,-28.0,-30.0,-61.0,-20.0,25.0,20.0,78.0,0.0
-28.0,-58.0,2.0,-23.0,-21.0,-31.0,-1.0,50.0,21.0,74.0,0.0
-35.0,-79.0,-3.0,-24.0,-11.0,-4.0,8.0,45.0,22.0,49.0,0.0
-31.0,-77.0,-25.0,-24.0,-4.0,8.0,2.0,45.0,23.0,34.0,0.0
-30.0,-59.0,-38.0,-32.0,-1.0,17.0,-3.0,36.0,5.0,16.0,0.0
-29.0,-44.0,-9.0,-16.0,0.0,15.0,0.0,26.0,0.0,4.0,0.0
-33.0,-54.0,-9.0,-14.0,2.0,25.0,0.0,31.0,6.0,1.0,0.0
-33.0,-74.0,-34.0,-34.0,0.0,40.0,14.0,48.0,17.0,7.0,0.0
-18.0,-84.0,-51.0,-29.0,2.0,36.0,21.0,48.0,28.0,61.0,0.0
-2.0,-89.0,-47.0,-18.0,0.0,30.0,20.0,34.0,40.0,124.0,0.0
-3.0,-88.0,-40.0,-22.0,-17.0,21.0,12.0,36.0,35.0,147.0,0.0
4.0,-77.0,-31.0,-20.0,-21.0,11.0,6.0,22.0,19.0,138.0,0.0
21.0,-73.0,-28.0,-21.0,-28.0,-8.0,-5.0,4.0,17.0,84.0,0.0
17.0,-62.0,-29.0,-19.0,-40.0,-14.0,-21.0,-16.0,9.0,15.0,0.0
25.0,-55.0,-23.0,-16.0,-33.0,-18.0,-32.0,-29.0,4.0,18.0,0.0
35.0,-43.0,-27.0,-31.0,-21.0,-31.0,-33.0,-33.0,20.0,66.0,0.0
28.0,-39.0,-26.0,-29.0,-36.0,-31.0,-41.0,-27.0,4.0,26.0,0.0
24.0,-20.0,-11.0,-28.0,-25.0,-26.0,-31.0,-17.0,-16.0,-67.0,0.0
-1.0,-1.0,8.0,-7.0,3.0,-2.0,2.0,14.0,-3.0,-178.0,0.0
-40.0,16.0,17.0,23.0,36.0,30.0,40.0,58.0,25.0,-178.0,0.0
-45.0,17.0,3.0,25.0,26.0,17.0,19.0,50.0,31.0,-49.0,0.0
-29.0,37.0,-7.0,26.0,-6.0,-10.0,-10.0,10.0,18.0,-48.0,0.0
9.0,93.0,18.0,50.0,11.0,-2.0,-2.0,10.0,27.0,-178.0,0.0
36.0,111.0,40.0,73.0,27.0,9.0,-1.0,27.0,40.0,-124.0,0.0
38.0,95.0,40.0,63.0,26.0,13.0,0.0,39.0,46.0,31.0,0.0
49.0,99.0,40.0,44.0,27.0,4.0,10.0,31.0,43.0,68.0,0.0
52.0,104.0,43.0,33.0,19.0,-3.0,-3.0,9.0,4.0,4.0,0.0
37.0,98.0,44.0,43.0,26.0,-1.0,6.0,5.0,5.0,-108.0,0.0
8.0,60.0,46.0,53.0,43.0,19.0,39.0,25.0,21.0,-158.0,0.0
-2.0,28.0,40.0,43.0,40.0,26.0,41.0,29.0,35.0,-127.0,0.0
-2.0,25.0,15.0,30.0,35.0,18.0,40.0,20.0,24.0,-95.0,0.0
0.0,14.0,-13.0,6.0,34.0,16.0,50.0,20.0,17.0,-98.0,0.0
-6.0,8.0,-37.0,-20.0,13.0,22.0,57.0,19.0,27.0,-75.0,0.0
-7.0,-1.0,-40.0,-30.0,-3.0,10.0,58.0,16.0,22.0,-37.0,0.0
-12.0,-11.0,-34.0,-32.0,-14.0,2.0,59.0,20.0,13.0,-5.0,0.0
-8.0,-1.0,-9.0,-22.0,-19.0,12.0,43.0,16.0,12.0,54.0,0.0
-6.0,22.0,5.0,-15.0,-30.0,1.0,27.0,16.0,18.0,121.0,0.0
-8.0,33.0,11.0,-26.0,-39.0,-25.0,-5.0,8.0,-6.0,86.0,0.0
-5.0,38.0,42.0,-40.0,-44.0,-23.0,-14.0,-6.0,-24.0,25.0,0.0
-9.0,25.0,44.0,-31.0,-27.0,0.0,-4.0,-8.0,-23.0,24.0,0.0
-18.0,-6.0,24.0,-17.0,-17.0,2.0,9.0,14.0,-19.0,43.0,0.0
-10.0,-16.0,11.0,0.0,-10.0,-6.0,0.0,20.0,-18.0,69.0,0.0
-2.0,-17.0,1.0,15.0,-7.0,-10.0,-14.0,10.0,-48.0,83.0,0.0
13.0,3.0,2.0,19.0,-12.0,3.0,-11.0,10.0,-28.0,86.0,0.0
26.0,4.0,-1.0,17.0,-13.0,-6.0,-29.0,0.0,-13.0,62.0,0.0
25.0,12.0,-11.0,1.0,-9.0,-24.0,-22.0,0.0,-32.0,29.0,0.0
18.0,34.0,1.0,12.0,5.0,-2.0,27.0,30.0,-6.0,-29.0,0.0
5.0,32.0,20.0,12.0,10.0,9.0,15.0,32.0,-41.0,-76.0,0.0
12.0,33.0,22.0,14.0,0.0,0.0,13.0,18.0,-27.0,-40.0,0.0
12.0,34.0,18.0,18.0,-8.0,-16.0,4.0,-5.0,-21.0,-9.0,0.0
20.0,60.0,40.0,23.0,-6.0,-27.0,-15.0,-18.0,-34.0,-1.0,0.0
28.0,87.0,51.0,37.0,-6.0,-32.0,-36.0,-27.0,-33.0,21.0,0.0
31.0,89.0,38.0,35.0,10.0,-27.0,-26.0,-23.0,-26.0,22.0,0.0
35.0,86.0,21.0,39.0,12.0,-19.0,-18.0,-25.0,-28.0,21.0,0.0
25.0,101.0,24.0,33.0,5.0,-2.0,-28.0,-23.0,-34.0,16.0,0.0
28.0,104.0,31.0,2.0,0.0,4.0,-22.0,-15.0,-35.0,5.0,0.0
29.0,87.0,28.0,-1.0,-2.0,-14.0,-26.0,-23.0,-34.0,-5.0,0.0
18.0,80.0,19.0,10.0,10.0,-19.0,-28.0,-39.0,-25.0,4.0,0.0
12.0,78.0,23.0,2.0,20.0,-17.0,-37.0,-51.0,-44.0,16.0,0.0
11.0,53.0,13.0,-19.0,18.0,-10.0,-44.0,-41.0,-62.0,19.0,0.0
-7.0,3.0,-19.0,-27.0,24.0,11.0,-14.0,-21.0,-24.0,19.0,0.0
-42.0,-53.0,-43.0,-45.0,17.0,13.0,-3.0,-13.0,-24.0,17.0,0.0
-62.0,-98.0,-68.0,-80.0,-4.0,19.0,8.0,0.0,-28.0,26.0,0.0
-80.0,-137.0,-61.0,-102.0,-24.0,32.0,60.0,30.0,-13.0,26.0,0.0
-107.0,-173.0,-55.0,-95.0,-28.0,38.0,102.0,43.0,8.0,23.0,0.0
-95.0,-172.0,-63.0,-78.0,-31.0,48.0,105.0,44.0,26.0,27.0,0.0
-73.0,-161.0,-57.0,-60.0,-23.0,51.0,93.0,27.0,14.0,37.0,0.0
-60.0,-124.0,-51.0,-33.0,-14.0,33.0,78.0,6.0,15.0,27.0,0.0
-56.0,-90.0,-36.0,-28.0,-17.0,18.0,55.0,12.0,7.0,18.0,0.0
-47.0,-48.0,-17.0,-36.0,-19.0,2.0,35.0,11.0,0.0,9.0,0.0
-27.0,-32.0,-11.0,-39.0,-23.0,0.0,34.0,17.0,-4.0,13.0,0.0
-7.0,-31.0,-8.0,-16.0,-16.0,-5.0,28.0,19.0,-24.0,17.0,0.0
-6.0,-39.0,5.0,-4.0,-15.0,-13.0,6.0,1.0,-63.0,13.0,0.0
1.0,-27.0,-6.0,12.0,-5.0,0.0,9.0,6.0,-51.0,21.0,0.0
13.0,0.0,-3.0,23.0,-11.0,21.0,7.0,-4.0,-52.0,19.0,0.0
12.0,23.0,17.0,16.0,-7.0,23.0,1.0,-16.0,-63.0,8.0,0.0
2.0,18.0,41.0,23.0,-23.0,4.0,-2.0,-8.0,-65.0,0.0,0.0
-7.0,6.0,34.0,9.0,-26.0,-3.0,-12.0,0.0,-93.0,0.0,0.0
7.0,12.0,10.0,9.0,-26.0,3.0,6.0,9.0,-66.0,18.0,0.0
25.0,27.0,-10.0,7.0,-30.0,6.0,13.0,7.0,-57.0,22.0,0.0
16.0,26.0,-16.0,7.0,-14.0,4.0,23.0,2.0,-58.0,20.0,0.0
32.0,18.0,-13.0,22.0,-1.0,16.0,23.0,10.0,-70.0,17.0,0.0
55.0,22.0,-18.0,27.0,3.0,17.0,16.0,9.0,-85.0,19.0,0.0
72.0,18.0,4.0,45.0,0.0,7.0,0.0,4.0,-77.0,17.0,0.0
57.0,19.0,36.0,54.0,1.0,4.0,-4.0,-11.0,-60.0,15.0,0.0
51.0,23.0,64.0,60.0,5.0,-3.0,-1.0,-11.0,-33.0,9.0,0.0
26.0,29.0,88.0,73.0,9.0,4.0,0.0,-4.0,-21.0,12.0,0.0
17.0,41.0,84.0,65.0,5.0,0.0,-10.0,-11.0,-22.0,6.0,0.0
-16.0,39.0,45.0,38.0,-6.0,-23.0,-27.0,-5.0,-33.0,-4.0,0.0
-65.0,-10.0,6.0,15.0,-5.0,-9.0,-21.0,19.0,-13.0,34.0,0.0
-84.0,-54.0,-29.0,0.0,16.0,27.0,12.0,37.0,8.0,58.0,0.0
-87.0,-58.0,-52.0,-6.0,31.0,34.0,33.0,55.0,17.0,33.0,0.0
-75.0,-53.0,-60.0,-26.0,13.0,23.0,40.0,46.0,2.0,14.0,0.0
-60.0,-66.0,-80.0,-41.0,4.0,32.0,52.0,45.0,-12.0,3.0,0.0
-52.0,-88.0,-110.0,-74.0,-11.0,31.0,53.0,37.0,-15.0,-17.0,0.0
-42.0,-96.0,-124.0,-94.0,-13.0,15.0,20.0,23.0,-34.0,-23.0,0.0
-38.0,-82.0,-116.0,-98.0,-19.0,-8.0,-8.0,8.0,-33.0,2.0,0.0
-32.0,-67.0,-104.0,-84.0,-21.0,-18.0,-15.0,4.0,-28.0,14.0,0.0
-25.0,-61.0,-81.0,-65.0,-17.0,-17.0,-29.0,-1.0,-33.0,25.0,0.0
-27.0,-45.0,-45.0,-48.0,-25.0,-20.0,-23.0,-13.0,-29.0,27.0,0.0
-11.0,-28.0,-22.0,-33.0,-40.0,-36.0,-20.0,-14.0,-35.0,35.0,0.0
8.0,-7.0,-13.0,-9.0,-25.0,-34.0,-21.0,-1.0,-32.0,58.0,0.0
19.0,18.0,-9.0,11.0,2.0,-7.0,-20.0,0.0,-23.0,79.0,0.0
29.0,31.0,7.0,18.0,22.0,15.0,-19.0,6.0,-8.0,63.0,0.0
23.0,47.0,27.0,30.0,42.0,28.0,-17.0,8.0,-15.0,29.0,0.0
6.0,46.0,46.0,50.0,58.0,44.0,1.0,16.0,-21.0,-27.0,0.0
0.0,32.0,55.0,53.0,56.0,61.0,8.0,27.0,-10.0,-104.0,0.0
5.0,38.0,70.0,52.0,54.0,43.0,5.0,17.0,-12.0,-163.0,0.0
9.0,42.0,70.0,33.0,42.0,12.0,4.0,14.0,-22.0,-138.0,0.0
2.0,15.0,44.0,14.0,27.0,0.0,0.0,2.0,-29.0,-92.0,0.0
-24.0,-20.0,25.0,10.0,30.0,6.0,11.0,16.0,-26.0,-93.0,0.0
-63.0,-38.0,11.0,4.0,20.0,6.0,2.0,9.0,-32.0,-99.0,0.0
-54.0,-33.0,4.0,-6.0,0.0,-7.0,-22.0,-15.0,-22.0,-85.0,0.0
-17.0,-41.0,-16.0,-18.0,-6.0,2.0,-14.0,-3.0,-4.0,-16.0,0.0
7.0,-41.0,-44.0,-25.0,-2.0,19.0,9.0,-1.0,16.0,133.0,0.0
10.0,-42.0,-53.0,-18.0,7.0,36.0,29.0,18.0,42.0,282.0,0.0
42.0,-21.0,-46.0,-8.0,0.0,30.0,34.0,42.0,43.0,327.0,0.0
62.0,10.0,-41.0,-5.0,-16.0,30.0,6.0,16.0,22.0,165.0,0.0
41.0,19.0,-40.0,-7.0,-8.0,22.0,-9.0,-4.0,9.0,26.0,0.0
23.0,0.0,-51.0,-4.0,-19.0,15.0,-13.0,-13.0,10.0,1.0,0.0
8.0,2.0,-43.0,-3.0,-15.0,7.0,-20.0,-1.0,11.0,15.0,0.0
7.0,21.0,-27.0,15.0,13.0,15.0,-4.0,9.0,15.0,6.0,0.0
-22.0,40.0,11.0,61.0,34.0,39.0,7.0,19.0,18.0,-44.0,0.0
-37.0,31.0,28.0,88.0,43.0,45.0,-3.0,4.0,-14.0,-39.0,0.0
-27.0,31.0,18.0,91.0,40.0,33.0,-18.0,-15.0,-19.0,44.0,0.0
8.0,28.0,16.0,85.0,40.0,24.0,-16.0,-6.0,-11.0,65.0,0.0
44.0,27.0,-4.0,75.0,36.0,33.0,0.0,5.0,-1.0,-4.0,0.0
56.0,24.0,-22.0,61.0,22.0,29.0,1.0,4.0,-4.0,-47.0,0.0
41.0,32.0,-19.0,49.0,11.0,25.0,8.0,16.0,-2.0,-133.0,0.0
36.0,50.0,-10.0,40.0,8.0,25.0,12.0,23.0,-11.0,-179.0,0.0
44.0,74.0,-19.0,26.0,8.0,22.0,-10.0,12.0,-28.0,-76.0,0.0
47.0,84.0,-11.0,31.0,19.0,31.0,0.0,26.0,-18.0,-63.0,0.0
48.0,79.0,-12.0,49.0,30.0,28.0,13.0,22.0,-22.0,-97.0,0.0
35.0,79.0,-3.0,41.0,28.0,20.0,7.0,13.0,-44.0,-59.0,0.0
20.0,64.0,8.0,31.0,19.0,25.0,14.0,15.0,-39.0,-32.0,0.0
9.0,36.0,38.0,26.0,14.0,26.0,9.0,22.0,-32.0,-39.0,0.0
-10.0,13.0,72.0,25.0,7.0,24.0,-11.0,-2.0,-46.0,-29.0,0.0
-21.0,-1.0,75.0,14.0,1.0,20.0,-20.0,-10.0,-52.0,-23.0,0.0
-26.0,-44.0,56.0,-7.0,2.0,17.0,-13.0,-10.0,-38.0,-18.0,0.0
-22.0,-83.0,6.0,-29.0,13.0,12.0,13.0,6.0,-6.0,6.0,0.0
-31.0,-98.0,-49.0,-53.0,13.0,14.0,26.0,18.0,7.0,23.0,0.0
-26.0,-89.0,-81.0,-62.0,25.0,27.0,30.0,15.0,14.0,27.0,0.0
-10.0,-58.0,-86.0,-60.0,33.0,25.0,31.0,10.0,16.0,32.0,0.0
-10.0,-32.0,-73.0,-53.0,28.0,9.0,28.0,-7.0,0.0,29.0,0.0
-22.0,-16.0,-39.0,-37.0,10.0,-2.0,16.0,-28.0,-14.0,23.0,0.0
-26.0,6.0,13.0,-21.0,3.0,-18.0,-10.0,-40.0,-10.0,13.0,0.0
-19.0,-2.0,33.0,-21.0,0.0,-27.0,-10.0,-26.0,2.0,16.0,0.0
-27.0,-19.0,-1.0,-42.0,-7.0,-17.0,-9.0,-15.0,14.0,23.0,0.0
-23.0,-10.0,-16.0,-40.0,-8.0,-9.0,0.0,-6.0,4.0,13.0,0.0
-23.0,-14.0,-3.0,-20.0,7.0,-13.0,6.0,-9.0,-7.0,7.0,0.0
-13.0,-6.0,-1.0,3.0,18.0,-14.0,5.0,-23.0,-5.0,4.0,0.0
-14.0,0.0,13.0,18.0,19.0,-25.0,5.0,-40.0,-11.0,11.0,0.0
-15.0,6.0,34.0,23.0,18.0,-29.0,5.0,-37.0,-14.0,9.0,0.0
1.0,19.0,21.0,19.0,14.0,-34.0,-10.0,-27.0,-9.0,6.0,0.0
16.0,47.0,19.0,5.0,7.0,-35.0,-11.0,-28.0,12.0,-2.0,0.0
13.0,53.0,33.0,-1.0,7.0,-23.0,-12.0,-27.0,12.0,-4.0,0.0
0.0,27.0,35.0,-6.0,18.0,-20.0,-9.0,-25.0,10.0,2.0,0.0
-17.0,5.0,8.0,-16.0,6.0,-13.0,8.0,-27.0,14.0,0.0,0.0
-24.0,10.0,1.0,-14.0,1.0,-10.0,11.0,-26.0,19.0,-8.0,0.0
-23.0,2.0,3.0,0.0,-4.0,-14.0,8.0,-22.0,15.0,-15.0,0.0
-21.0,3.0,-1.0,-9.0,-14.0,-31.0,-9.0,-19.0,0.0,-25.0,0.0
-23.0,-4.0,9.0,-9.0,-14.0,-38.0,-7.0,-14.0,10.0,-14.0,0.0
-32.0,-25.0,15.0,-1.0,-21.0,-22.0,8.0,8.0,28.0,-9.0,0.0
-42.0,-44.0,24.0,10.0,-19.0,-25.0,15.0,21.0,18.0,-17.0,0.0
-45.0,-42.0,24.0,10.0,-16.0,-27.0,13.0,13.0,15.0,-12.0,0.0
-23.0,-18.0,19.0,-10.0,-19.0,-24.0,11.0,-1.0,9.0,-17.0,0.0
-14.0,-11.0,6.0,-28.0,-24.0,-38.0,0.0,8.0,7.0,-16.0,0.0
-3.0,2.0,-10.0,-28.0,-22.0,-52.0,-9.0,-6.0,13.0,2.0,0.0
9.0,23.0,-5.0,0.0,0.0,-47.0,-5.0,-10.0,16.0,26.0,0.0
25.0,25.0,5.0,20.0,2.0,-40.0,-2.0,-2.0,20.0,57.0,0.0
41.0,22.0,3.0,20.0,-8.0,-35.0,-5.0,-13.0,22.0,63.0,0.0
58.0,40.0,16.0,29.0,-15.0,-34.0,-7.0,-19.0,10.0,64.0,0.0
52.0,60.0,20.0,32.0,-21.0,-35.0,-19.0,-10.0,5.0,47.0,0.0
38.0,70.0,24.0,59.0,-23.0,-40.0,-27.0,-13.0,-11.0,24.0,0.0
44.0,90.0,31.0,67.0,-17.0,-49.0,-38.0,-15.0,-24.0,13.0,0.0
45.0,116.0,51.0,56.0,-20.0,-47.0,-36.0,-8.0,-22.0,-16.0,0.0
39.0,103.0,63.0,47.0,-11.0,-52.0,-35.0,-11.0,-12.0,-29.0,0.0
55.0,91.0,84.0,52.0,6.0,-33.0,-27.0,-15.0,1.0,15.0,0.0
86.0,63.0,61.0,51.0,24.0,-15.0,-21.0,-15.0,1.0,42.0,0.0
66.0,24.0,6.0,23.0,27.0,6.0,6.0,18.0,8.0,-6.0,0.0
34.0,-10.0,-34.0,-13.0,18.0,36.0,46.0,44.0,6.0,-83.0,0.0
6.0,-35.0,-36.0,-34.0,10.0,43.0,34.0,33.0,1.0,-88.0,0.0
-22.0,-57.0,-10.0,-32.0,0.0,30.0,12.0,24.0,-11.0,-8.0,0.0
-39.0,-80.0,-19.0,-36.0,-8.0,27.0,5.0,23.0,-17.0,7.0,0.0
-92.0,-120.0,-64.0,-60.0,-15.0,38.0,10.0,28.0,-10.0,-37.0,0.0
-141.0,-140.0,-83.0,-60.0,-10.0,43.0,20.0,26.0,4.0,-57.0,0.0
-127.0,-118.0,-79.0,-31.0,6.0,46.0,28.0,35.0,5.0,-29.0,0.0
-90.0,-82.0,-51.0,-10.0,2.0,41.0,17.0,26.0,3.0,1.0,0.0
-48.0,-54.0,-30.0,-2.0,-12.0,16.0,2.0,1.0,-9.0,15.0,0.0
-16.0,-36.0,-49.0,-16.0,-31.0,-2.0,-22.0,-14.0,-16.0,30.0,0.0
-5.0,-14.0,-45.0,-24.0,-28.0,-8.0,-34.0,-23.0,-28.0,64.0,0.0
8.0,6.0,-20.0,-5.0,-5.0,5.0,-31.0,-7.0,-33.0,56.0,0.0
21.0,16.0,-11.0,10.0,2.0,23.0,-23.0,11.0,-29.0,0.0,0.0
16.0,16.0,-19.0,24.0,6.0,16.0,-6.0,5.0,-19.0,-64.0,0.0
7.0,24.0,-12.0,27.0,5.0,14.0,12.0,13.0,-9.0,-96.0,0.0
-4.0,36.0,7.0,28.0,-8.0,10.0,7.0,16.0,-19.0,-92.0,0.0
-12.0,34.0,15.0,38.0,-16.0,-10.0,-10.0,-1.0,-26.0,-86.0,0.0
-6.0,41.0,10.0,31.0,-11.0,-17.0,-31.0,-3.0,-36.0,-85.0,0.0
16.0,55.0,12.0,13.0,-11.0,-17.0,-32.0,-2.0,-36.0,-65.0,0.0
24.0,77.0,9.0,13.0,-10.0,-21.0,-23.0,-13.0,-23.0,4.0,0.0
32.0,96.0,18.0,24.0,-1.0,-16.0,-17.0,-9.0,-6.0,109.0,0.0
57.0,111.0,23.0,41.0,-1.0,-11.0,-6.0,0.0,4.0,135.0,0.0
66.0,101.0,28.0,66.0,22.0,3.0,13.0,19.0,1.0,82.0,0.0
54.0,59.0,21.0,68.0,32.0,8.0,3.0,16.0,-13.0,53.0,0.0
43.0,57.0,26.0,56.0,24.0,0.0,-15.0,5.0,-22.0,43.0,0.0
45.0,67.0,24.0,44.0,20.0,-3.0,-16.0,7.0,-21.0,31.0,0.0
47.0,55.0,17.0,31.0,24.0,10.0,-9.0,1.0,-11.0,32.0,0.0
46.0,33.0,19.0,16.0,38.0,21.0,2.0,6.0,2.0,35.0,0.0
34.0,7.0,-1.0,-7.0,30.0,14.0,3.0,10.0,-1.0,17.0,0.0
20.0,0.0,-35.0,-27.0,13.0,11.0,1.0,3.0,-17.0,-10.0,0.0
15.0,22.0,-26.0,-47.0,10.0,4.0,2.0,6.0,-11.0,-24.0,0.0
6.0,49.0,4.0,-54.0,14.0,0.0,0.0,1.0,-4.0,-23.0,0.0
-22.0,29.0,28.0,-54.0,-2.0,-16.0,10.0,-15.0,-10.0,0.0,0.0
-43.0,-33.0,34.0,-46.0,-14.0,-32.0,10.0,-17.0,-17.0,19.0,0.0
-64.0,-62.0,17.0,-45.0,-21.0,-22.0,14.0,5.0,-13.0,14.0,0.0
-68.0,-47.0,-13.0,-47.0,-26.0,-19.0,30.0,15.0,-2.0,30.0,0.0
-54.0,-34.0,-19.0,-45.0,-33.0,-27.0,26.0,5.0,3.0,57.0,0.0
-25.0,-43.0,-34.0,-53.0,-35.0,-15.0,23.0,0.0,9.0,117.0,0.0
-4.0,-37.0,-36.0,-46.0,-30.0,-7.0,1.0,-9.0,0.0,133.0,0.0
-4.0,-27.0,-26.0,-32.0,-12.0,3.0,-23.0,-15.0,-12.0,66.0,0.0
-6.0,-39.0,-30.0,-25.0,-6.0,17.0,-19.0,-6.0,-20.0,-4.0,0.0
-14.0,-54.0,-34.0,-28.0,-4.0,13.0,-6.0,0.0,-23.0,-6.0,0.0
-7.0,-57.0,-44.0,-31.0,1.0,2.0,0.0,-4.0,-30.0,42.0,0.0
16.0,-28.0,-30.0,-20.0,5.0,1.0,-7.0,-12.0,-38.0,72.0,0.0
17.0,9.0,-9.0,2.0,18.0,2.0,-12.0,-5.0,-37.0,47.0,0.0
19.0,35.0,6.0,18.0,16.0,0.0,-15.0,-6.0,-28.0,-14.0,0.0
29.0,56.0,24.0,45.0,22.0,8.0,-3.0,0.0,-9.0,-39.0,0.0
31.0,54.0,39.0,60.0,28.0,13.0,10.0,7.0,-4.0,-57.0,0.0
29.0,55.0,36.0,55.0,35.0,20.0,10.0,10.0,1.0,-114.0,0.0
20.0,63.0,29.0,58.0,45.0,30.0,14.0,8.0,12.0,-175.0,0.0
7.0,60.0,37.0,43.0,43.0,39.0,7.0,13.0,15.0,-169.0,0.0
-10.0,50.0,45.0,36.0,35.0,45.0,19.0,5.0,13.0,-155.0,0.0
-3.0,42.0,18.0,26.0,31.0,42.0,29.0,10.0,6.0,-118.0,0.0
8.0,34.0,3.0,9.0,17.0,36.0,27.0,6.0,-2.0,-84.0,0.0
0.0,27.0,11.0,9.0,1.0,16.0,17.0,-3.0,-5.0,-56.0,0.0
-10.0,20.0,31.0,16.0,4.0,19.0,9.0,-20.0,-20.0,-44.0,0.0
-30.0,-19.0,55.0,22.0,10.0,16.0,2.0,-40.0,-33.0,-43.0,0.0
-36.0,-52.0,40.0,36.0,5.0,13.0,5.0,-32.0,-24.0,-38.0,0.0
-34.0,-63.0,6.0,37.0,8.0,23.0,10.0,-17.0,-3.0,-19.0,0.0
-15.0,-51.0,-2.0,36.0,10.0,18.0,11.0,-10.0,10.0,5.0,0.0
-6.0,-32.0,6.0,23.0,14.0,9.0,6.0,-6.0,16.0,36.0,0.0
-6.0,-49.0,-18.0,11.0,14.0,26.0,18.0,-4.0,11.0,37.0,0.0
0.0,-57.0,-28.0,10.0,25.0,37.0,17.0,-6.0,8.0,35.0,0.0
-8.0,-52.0,-23.0,18.0,27.0,31.0,7.0,3.0,-1.0,20.0,0.0
-13.0,-52.0,-20.0,27.0,28.0,35.0,2.0,-11.0,-3.0,5.0,0.0
-17.0,-48.0,-3.0,22.0,26.0,35.0,0.0,-10.0,2.0,-6.0,0.0
-24.0,-52.0,-4.0,12.0,16.0,15.0,-10.0,-15.0,-12.0,-18.0,0.0
-33.0,-46.0,-16.0,7.0,8.0,6.0,-12.0,-33.0,-27.0,-18.0,0.0
-42.0,-52.0,-34.0,-8.0,0.0,9.0,-18.0,-28.0,-19.0,-2.0,0.0
-28.0,-60.0,-35.0,-28.0,-5.0,0.0,-17.0,-16.0,-1.0,27.0,0.0
-16.0,-58.0,-35.0,-39.0,-21.0,-8.0,-16.0,-8.0,2.0,40.0,0.0
-17.0,-41.0,-27.0,-34.0,-25.0,-10.0,-8.0,-10.0,-7.0,46.0,0.0
-4.0,-21.0,-18.0,-27.0,-28.0,-15.0,-19.0,-11.0,-1.0,57.0,0.0
11.0,-11.0,0.0,-25.0,-38.0,0.0,-25.0,-2.0,4.0,56.0,0.0
22.0,0.0,21.0,-3.0,-14.0,14.0,-14.0,3.0,12.0,41.0,0.0
29.0,9.0,31.0,29.0,17.0,39.0,-4.0,5.0,17.0,22.0,0.0
36.0,34.0,31.0,47.0,34.0,64.0,11.0,11.0,11.0,1.0,0.0
46.0,60.0,20.0,18.0,25.0,59.0,3.0,22.0,7.0,-3.0,0.0
39.0,57.0,23.0,-3.0,14.0,36.0,0.0,13.0,3.0,-30.0,0.0
23.0,47.0,18.0,0.0,10.0,11.0,0.0,2.0,1.0,-104.0,0.0
24.0,34.0,-2.0,-1.0,13.0,5.0,5.0,1.0,-14.0,-168.0,0.0
32.0,31.0,-17.0,-6.0,19.0,24.0,7.0,4.0,-19.0,-135.0,0.0
39.0,31.0,-20.0,-10.0,35.0,18.0,3.0,4.0,-25.0,-46.0,0.0
46.0,40.0,10.0,1.0,44.0,12.0,3.0,-4.0,-25.0,19.0,0.0
47.0,57.0,58.0,32.0,53.0,20.0,-3.0,-1.0,-31.0,33.0,0.0
54.0,70.0,75.0,51.0,45.0,20.0,-6.0,0.0,-21.0,68.0,0.0
54.0,75.0,64.0,49.0,37.0,15.0,-5.0,23.0,12.0,133.0,0.0
52.0,78.0,44.0,53.0,36.0,15.0,6.0,26.0,25.0,88.0,0.0
46.0,83.0,53.0,51.0,37.0,19.0,1.0,24.0,19.0,-13.0,0.0
26.0,84.0,59.0,30.0,28.0,17.0,-12.0,24.0,10.0,-9.0,0.0
1.0,66.0,57.0,9.0,21.0,13.0,0.0,28.0,5.0,6.0,0.0
-19.0,20.0,18.0,-4.0,17.0,13.0,10.0,25.0,17.0,11.0,0.0
-24.0,-26.0,-40.0,-28.0,15.0,29.0,10.0,25.0,29.0,24.0,0.0
-9.0,-16.0,-54.0,-43.0,3.0,39.0,-2.0,10.0,16.0,34.0,0.0
-17.0,-14.0,-38.0,-34.0,-3.0,33.0,2.0,-5.0,9.0,22.0,0.0
-34.0,-44.0,-29.0,-27.0,4.0,21.0,3.0,-6.0,-1.0,9.0,0.0
-44.0,-69.0,-15.0,-17.0,8.0,26.0,12.0,0.0,-23.0,8.0,0.0
-42.0,-83.0,-25.0,-30.0,-5.0,22.0,26.0,-3.0,-12.0,10.0,0.0
-41.0,-76.0,-36.0,-47.0,-28.0,20.0,32.0,-1.0,1.0,15.0,0.0
-53.0,-74.0,-37.0,-49.0,-25.0,28.0,48.0,12.0,-2.0,11.0,0.0
-59.0,-75.0,-38.0,-41.0,-17.0,40.0,47.0,25.0,-3.0,20.0,0.0
-49.0,-45.0,-29.0,-31.0,-11.0,31.0,32.0,22.0,-5.0,34.0,0.0
-41.0,-26.0,-26.0,-32.0,-22.0,0.0,0.0,8.0,-50.0,14.0,0.0
-31.0,0.0,-33.0,-28.0,-32.0,-3.0,-3.0,13.0,-35.0,8.0,0.0
-21.0,7.0,-34.0,-19.0,-23.0,-1.0,-13.0,2.0,-12.0,17.0,0.0
-8.0,11.0,-28.0,4.0,-23.0,0.0,-19.0,-4.0,-5.0,33.0,0.0
2.0,14.0,-16.0,18.0,-19.0,11.0,-12.0,7.0,-5.0,58.0,0.0
20.0,23.0,-16.0,10.0,-14.0,18.0,-2.0,15.0,-4.0,53.0,0.0
22.0,25.0,-15.0,14.0,-5.0,29.0,9.0,12.0,0.0,48.0,0.0
32.0,38.0,3.0,22.0,-3.0,36.0,7.0,16.0,14.0,47.0,0.0
40.0,53.0,20.0,32.0,-9.0,23.0,-2.0,17.0,7.0,39.0,0.0
48.0,66.0,41.0,54.0,-3.0,19.0,-15.0,7.0,2.0,27.0,0.0
45.0,74.0,65.0,74.0,21.0,23.0,-11.0,-9.0,-3.0,-19.0,0.0
19.0,73.0,81.0,85.0,25.0,16.0,-17.0,-22.0,-7.0,-84.0,0.0
-20.0,62.0,91.0,75.0,13.0,6.0,-25.0,-10.0,-19.0,-103.0,0.0
-50.0,44.0,81.0,34.0,-8.0,-7.0,-33.0,-22.0,-36.0,-53.0,0.0
-31.0,31.0,63.0,-7.0,-22.0,-17.0,-29.0,-21.0,-22.0,-2.0,0.0
-48.0,-4.0,42.0,-34.0,-23.0,5.0,-5.0,-2.0,-1.0,-1.0,0.0
-72.0,-43.0,-13.0,-61.0,-26.0,3.0,2.0,10.0,-27.0,-4.0,0.0
-61.0,-58.0,-55.0,-86.0,-39.0,-13.0,2.0,1.0,-26.0,4.0,0.0
-49.0,-81.0,-71.0,-95.0,-46.0,-20.0,13.0,-16.0,-11.0,28.0,0.0
-47.0,-112.0,-86.0,-90.0,-30.0,-19.0,6.0,-12.0,-3.0,60.0,0.0
-47.0,-105.0,-79.0,-75.0,-7.0,-8.0,11.0,3.0,6.0,84.0,0.0
-45.0,-94.0,-54.0,-44.0,0.0,-6.0,8.0,18.0,14.0,91.0,0.0
-16.0,-81.0,-31.0,-28.0,1.0,8.0,8.0,25.0,29.0,55.0,0.0
-5.0,-47.0,-15.0,-16.0,-1.0,27.0,1.0,30.0,36.0,-11.0,0.0
-3.0,-32.0,-3.0,-19.0,-4.0,24.0,15.0,38.0,39.0,-9.0,0.0
4.0,-31.0,-7.0,-16.0,-17.0,5.0,10.0,35.0,25.0,12.0,0.0
8.0,-19.0,-14.0,-25.0,-25.0,-16.0,-18.0,15.0,16.0,39.0,0.0
25.0,-18.0,-11.0,-21.0,-23.0,-30.0,-26.0,9.0,26.0,102.0,0.0
20.0,-42.0,-6.0,-4.0,-12.0,-28.0,-24.0,7.0,27.0,137.0,0.0
9.0,-56.0,0.0,-1.0,-20.0,-43.0,-42.0,-13.0,-1.0,128.0,0.0
0.0,-65.0,-1.0,-30.0,-37.0,-72.0,-65.0,-40.0,-60.0,113.0,0.0
-4.0,-41.0,-21.0,-41.0,-51.0,-77.0,-56.0,-46.0,-38.0,128.0,0.0
-8.0,-32.0,-26.0,-47.0,-49.0,-72.0,-49.0,-53.0,-20.0,128.0,0.0
1.0,-24.0,-23.0,-32.0,-43.0,-64.0,-39.0,-37.0,-5.0,95.0,0.0
-2.0,-19.0,-10.0,-22.0,-30.0,-41.0,-25.0,-20.0,-26.0,3.0,0.0
-2.0,-24.0,12.0,-6.0,2.0,-11.0,3.0,-13.0,-55.0,-123.0,0.0
37.0,0.0,25.0,5.0,21.0,8.0,23.0,-1.0,-20.0,-105.0,0.0
55.0,27.0,51.0,26.0,28.0,23.0,28.0,9.0,3.0,-81.0,0.0
48.0,62.0,91.0,61.0,49.0,45.0,31.0,23.0,20.0,-172.0,0.0
23.0,75.0,111.0,79.0,53.0,40.0,21.0,22.0,20.0,-241.0,0.0
10.0,69.0,136.0,79.0,35.0,19.0,20.0,26.0,14.0,-213.0,0.0
17.0,80.0,115.0,83.0,10.0,4.0,12.0,11.0,8.0,-98.0,0.0
18.0,90.0,88.0,85.0,3.0,-4.0,0.0,-6.0,0.0,51.0,0.0
-26.0,57.0,70.0,77.0,12.0,-7.0,10.0,-15.0,-2.0,75.0,0.0
-42.0,24.0,28.0,55.0,35.0,12.0,41.0,1.0,19.0,23.0,0.0
-23.0,11.0,1.0,25.0,38.0,12.0,45.0,19.0,39.0,-21.0,0.0
-10.0,-18.0,-45.0,-12.0,-1.0,-14.0,21.0,15.0,28.0,-29.0,0.0
8.0,-38.0,-87.0,-36.0,-22.0,-34.0,0.0,-2.0,13.0,-16.0,0.0
18.0,-19.0,-91.0,-37.0,-25.0,-30.0,-5.0,-2.0,15.0,-56.0,0.0
1.0,4.0,-76.0,-47.0,-32.0,-33.0,-10.0,-5.0,-4.0,-100.0,0.0
3.0,2.0,-64.0,-55.0,-43.0,-43.0,-8.0,-21.0,-27.0,-14.0,0.0
7.0,13.0,-24.0,-39.0,-39.0,-40.0,-4.0,-30.0,-26.0,78.0,0.0
12.0,31.0,31.0,-9.0,-21.0,-32.0,0.0,-44.0,-23.0,135.0,0.0
16.0,33.0,71.0,18.0,0.0,-21.0,2.0,-43.0,-2.0,199.0,0.0
6.0,35.0,75.0,32.0,20.0,-4.0,0.0,-28.0,12.0,166.0,0.0
8.0,27.0,101.0,36.0,34.0,20.0,18.0,-12.0,23.0,-62.0,0.0
15.0,33.0,106.0,56.0,59.0,47.0,40.0,21.0,50.0,-300.0,0.0
15.0,47.0,82.0,49.0,53.0,44.0,33.0,25.0,38.0,-278.0,0.0
14.0,19.0,33.0,36.0,20.0,24.0,7.0,2.0,24.0,-127.0,0.0
9.0,-12.0,-12.0,23.0,2.0,3.0,4.0,-19.0,20.0,-52.0,0.0
9.0,-13.0,-16.0,16.0,-15.0,-4.0,-17.0,-43.0,-1.0,-42.0,0.0
0.0,-34.0,-26.0,9.0,-11.0,-15.0,-31.0,-36.0,-5.0,-37.0,0.0
-5.0,-65.0,-47.0,0.0,-4.0,-14.0,1.0,-6.0,7.0,-34.0,0.0
4.0,-53.0,-56.0,-13.0,1.0,6.0,32.0,3.0,20.0,-28.0,0.0
12.0,-25.0,-50.0,-8.0,15.0,6.0,20.0,-7.0,19.0,-31.0,0.0
26.0,-5.0,-32.0,-12.0,-5.0,-9.0,-12.0,-32.0,6.0,-15.0,0.0
50.0,21.0,-21.0,-7.0,-14.0,-22.0,-15.0,-49.0,-10.0,11.0,0.0
67.0,37.0,-4.0,2.0,-18.0,-31.0,-33.0,-53.0,-26.0,18.0,0.0
62.0,46.0,-2.0,12.0,-19.0,-30.0,-28.0,-39.0,-15.0,28.0,0.0
61.0,50.0,-16.0,9.0,3.0,-19.0,-9.0,-14.0,-2.0,39.0,0.0
42.0,36.0,-31.0,2.0,30.0,-3.0,3.0,-10.0,-2.0,36.0,0.0
17.0,6.0,-32.0,14.0,44.0,24.0,19.0,-9.0,5.0,31.0,0.0
0.0,-11.0,-9.0,11.0,36.0,40.0,14.0,-17.0,14.0,28.0,0.0
-20.0,-17.0,32.0,12.0,8.0,18.0,-15.0,-38.0,-1.0,10.0,0.0
-32.0,-51.0,58.0,3.0,-8.0,-2.0,-32.0,-37.0,-17.0,2.0,0.0
-40.0,-69.0,35.0,-12.0,-3.0,10.0,-16.0,-21.0,-8.0,15.0,0.0
-45.0,-102.0,-13.0,-33.0,3.0,35.0,10.0,0.0,-2.0,20.0,0.0
-39.0,-132.0,-53.0,-53.0,2.0,40.0,12.0,0.0,-28.0,20.0,0.0
-34.0,-104.0,-62.0,-53.0,-17.0,24.0,9.0,14.0,0.0,10.0,0.0
-18.0,-84.0,-59.0,-51.0,-31.0,22.0,18.0,16.0,5.0,-3.0,0.0
-10.0,-65.0,-59.0,-50.0,-16.0,30.0,24.0,15.0,-2.0,12.0,0.0
-10.0,-49.0,-53.0,-34.0,-13.0,27.0,19.0,8.0,-3.0,22.0,0.0
2.0,-42.0,-47.0,-18.0,-11.0,12.0,10.0,5.0,-11.0,18.0,0.0
5.0,-22.0,-29.0,-12.0,-13.0,5.0,-2.0,10.0,-7.0,4.0,0.0
10.0,-2.0,1.0,-1.0,-5.0,17.0,-2.0,16.0,22.0,-3.0,0.0
12.0,9.0,10.0,8.0,0.0,28.0,-1.0,-2.0,26.0,-7.0,0.0
12.0,19.0,7.0,26.0,0.0,27.0,0.0,-4.0,9.0,-1.0,0.0
19.0,22.0,19.0,16.0,4.0,16.0,-16.0,-21.0,-16.0,-11.0,0.0
39.0,31.0,30.0,15.0,0.0,0.0,-33.0,-30.0,-12.0,-3.0,0.0
42.0,31.0,30.0,23.0,-7.0,-8.0,-38.0,-19.0,21.0,8.0,0.0
22.0,13.0,27.0,17.0,-10.0,-9.0,-35.0,-21.0,28.0,15.0,0.0
14.0,6.0,14.0,15.0,-6.0,4.0,-23.0,-23.0,13.0,26.0,0.0
15.0,-29.0,-2.0,3.0,-9.0,0.0,-32.0,-19.0,-12.0,15.0,0.0
5.0,-30.0,-21.0,-10.0,-11.0,-5.0,-43.0,-19.0,-18.0,8.0,0.0
-1.0,-11.0,-9.0,-4.0,-5.0,4.0,-34.0,-11.0,0.0,11.0,0.0
-11.0,-11.0,8.0,2.0,-6.0,3.0,-48.0,-26.0,-13.0,-6.0,0.0
-14.0,-16.0,13.0,-7.0,-14.0,-11.0,-54.0,-26.0,-35.0,-19.0,0.0
-17.0,-20.0,0.0,-12.0,-26.0,-18.0,-49.0,-21.0,-35.0,-2.0,0.0
-6.0,-15.0,-19.0,-15.0,-23.0,-22.0,-40.0,-24.0,-29.0,23.0,0.0
14.0,5.0,-17.0,-35.0,-13.0,-12.0,-27.0,-21.0,-7.0,29.0,0.0
30.0,17.0,-22.0,-47.0,-12.0,-2.0,-25.0,-23.0,-1.0,24.0,0.0
20.0,5.0,-33.0,-50.0,-12.0,7.0,-14.0,-9.0,6.0,37.0,0.0
8.0,-8.0,-24.0,-70.0,0.0,6.0,-28.0,-13.0,-10.0,30.0,0.0
16.0,11.0,-10.0,-74.0,0.0,-1.0,-22.0,-6.0,-11.0,31.0,0.0
15.0,22.0,2.0,-64.0,-6.0,-4.0,-30.0,-2.0,8.0,68.0,0.0
2.0,-18.0,13.0,-59.0,-6.0,0.0,-30.0,-8.0,2.0,95.0,0.0
-8.0,-48.0,7.0,-55.0,0.0,11.0,-18.0,-15.0,-1.0,88.0,0.0
-13.0,-73.0,19.0,-56.0,-1.0,-1.0,-36.0,-34.0,-51.0,83.0,0.0
0.0,-69.0,21.0,-46.0,0.0,-6.0,-39.0,-35.0,-37.0,140.0,0.0
22.0,-41.0,20.0,-28.0,1.0,3.0,-30.0,-30.0,4.0,228.0,0.0
59.0,-16.0,34.0,-7.0,11.0,11.0,-10.0,-5.0,17.0,224.0,0.0
67.0,-6.0,46.0,4.0,37.0,20.0,12.0,16.0,30.0,177.0,0.0
24.0,-9.0,42.0,22.0,53.0,27.0,33.0,42.0,32.0,81.0,0.0
0.0,12.0,45.0,36.0,77.0,48.0,65.0,73.0,30.0,-55.0,0.0
-20.0,15.0,16.0,32.0,63.0,48.0,53.0,45.0,-9.0,-126.0,0.0
-23.0,-1.0,-24.0,-10.0,25.0,26.0,11.0,5.0,-51.0,-108.0,0.0
-9.0,0.0,-35.0,-36.0,0.0,2.0,-12.0,-15.0,-62.0,-56.0,0.0
-9.0,-30.0,-49.0,-60.0,-18.0,-34.0,-41.0,-32.0,-91.0,-12.0,0.0
-24.0,-89.0,-57.0,-63.0,-37.0,-50.0,-48.0,-48.0,-102.0,2.0,0.0
-51.0,-113.0,-94.0,-74.0,-64.0,-64.0,-55.0,-58.0,-68.0,-10.0,0.0
-21.0,-116.0,-118.0,-104.0,-85.0,-98.0,-96.0,-76.0,-76.0,87.0,0.0
24.0,-74.0,-103.0,-84.0,-75.0,-97.0,-91.0,-60.0,-56.0,89.0,0.0
10.0,-45.0,-61.0,-50.0,-58.0,-82.0,-73.0,-49.0,-75.0,-41.0,0.0
0.0,-8.0,-23.0,-21.0,-22.0,-54.0,-47.0,-17.0,-74.0,-142.0,0.0
11.0,49.0,32.0,23.0,14.0,-8.0,1.0,30.0,-12.0,-173.0,0.0
38.0,101.0,92.0,72.0,62.0,29.0,49.0,64.0,0.0,-52.0,0.0
40.0,132.0,113.0,109.0,94.0,57.0,84.0,85.0,6.0,126.0,0.0
33.0,126.0,146.0,145.0,130.0,97.0,113.0,107.0,10.0,117.0,0.0
55.0,173.0,201.0,175.0,170.0,159.0,185.0,161.0,47.0,-195.0,0.0
72.0,213.0,204.0,212.0,192.0,170.0,200.0,172.0,77.0,-410.0,0.0
46.0,164.0,165.0,194.0,156.0,107.0,137.0,113.0,41.0,-481.0,0.0
37.0,137.0,131.0,154.0,105.0,56.0,80.0,68.0,16.0,-491.0,0.0
42.0,121.0,92.0,87.0,76.0,18.0,36.0,48.0,-35.0,-340.0,0.0
33.0,84.0,53.0,47.0,50.0,-9.0,12.0,39.0,-47.0,-195.0,0.0
25.0,60.0,0.0,18.0,23.0,-28.0,-13.0,12.0,-27.0,-119.0,0.0
6.0,23.0,-34.0,0.0,13.0,-41.0,-9.0,1.0,-15.0,-89.0,0.0
-16.0,4.0,-21.0,-5.0,-7.0,-53.0,-11.0,0.0,-32.0,-35.0,0.0
-26.0,-28.0,-11.0,-10.0,-29.0,-67.0,-43.0,-22.0,-88.0,13.0,0.0
-28.0,-35.0,-9.0,-14.0,-23.0,-59.0,-46.0,-27.0,-71.0,61.0,0.0
-13.0,-19.0,7.0,-17.0,-24.0,-56.0,-28.0,-34.0,-36.0,134.0,0.0
2.0,-19.0,4.0,-12.0,-17.0,-50.0,-26.0,-37.0,-12.0,185.0,0.0
18.0,5.0,-12.0,11.0,3.0,-48.0,-24.0,-42.0,-7.0,205.0,0.0
7.0,22.0,-3.0,15.0,5.0,-58.0,-37.0,-39.0,-14.0,115.0,0.0
0.0,28.0,26.0,49.0,9.0,-53.0,-18.0,-35.0,-3.0,5.0,0.0
7.0,12.0,22.0,50.0,5.0,-59.0,-14.0,-27.0,10.0,23.0,0.0
26.0,2.0,30.0,62.0,27.0,-32.0,7.0,8.0,33.0,4.0,0.0
60.0,16.0,41.0,71.0,56.0,10.0,34.0,38.0,42.0,-76.0,0.0
36.0,24.0,43.0,42.0,32.0,3.0,16.0,10.0,31.0,-92.0,0.0
-13.0,-13.0,26.0,18.0,6.0,0.0,0.0,-6.0,9.0,-48.0,0.0
-47.0,-89.0,-30.0,-19.0,-8.0,0.0,20.0,-1.0,16.0,0.0,0.0
-68.0,-133.0,-87.0,-49.0,-16.0,6.0,34.0,17.0,25.0,25.0,0.0
-62.0,-110.0,-99.0,-42.0,-20.0,-9.0,31.0,7.0,17.0,45.0,0.0
-64.0,-95.0,-70.0,-34.0,-32.0,-28.0,3.0,-9.0,-28.0,37.0,0.0
-71.0,-75.0,-38.0,-33.0,-30.0,-39.0,2.0,-31.0,-44.0,38.0,0.0
-60.0,-49.0,-12.0,-20.0,-25.0,-45.0,6.0,-13.0,-15.0,44.0,0.0
-40.0,-29.0,-1.0,3.0,-25.0,-55.0,-1.0,0.0,-10.0,50.0,0.0
-15.0,10.0,2.0,19.0,-8.0,-65.0,-12.0,-21.0,-14.0,55.0,0.0
7.0,47.0,21.0,23.0,6.0,-79.0,-17.0,-38.0,-11.0,60.0,0.0
7.0,60.0,32.0,33.0,11.0,-94.0,-36.0,-25.0,-12.0,66.0,0.0
1.0,50.0,13.0,32.0,9.0,-76.0,-46.0,-13.0,-20.0,58.0,0.0
-1.0,16.0,-5.0,19.0,18.0,-44.0,-26.0,-16.0,-8.0,43.0,0.0
-16.0,-31.0,-43.0,-14.0,24.0,-13.0,-1.0,-2.0,-4.0,58.0,0.0
-30.0,-64.0,-92.0,-47.0,-1.0,-12.0,16.0,10.0,-6.0,58.0,0.0
-41.0,-69.0,-102.0,-73.0,-29.0,0.0,47.0,25.0,12.0,47.0,0.0
-54.0,-63.0,-73.0,-75.0,-33.0,-3.0,64.0,44.0,17.0,43.0,0.0
-53.0,-63.0,-24.0,-47.0,-19.0,-15.0,54.0,25.0,15.0,40.0,0.0
-53.0,-63.0,-11.0,-37.0,-19.0,-29.0,39.0,10.0,18.0,38.0,0.0
-47.0,-56.0,-4.0,-29.0,-13.0,-43.0,-2.0,-14.0,-3.0,14.0,0.0
-38.0,-39.0,8.0,-4.0,-5.0,-45.0,5.0,-7.0,8.0,11.0,0.0
-26.0,-20.0,-16.0,4.0,-3.0,-43.0,20.0,7.0,40.0,24.0,0.0
-18.0,-22.0,-41.0,4.0,-7.0,-33.0,8.0,2.0,31.0,21.0,0.0
-12.0,-24.0,-30.0,1.0,1.0,-20.0,13.0,11.0,19.0,28.0,0.0
-15.0,-17.0,-27.0,1.0,6.0,-12.0,15.0,21.0,30.0,39.0,0.0
-1.0,-6.0,-31.0,6.0,14.0,-22.0,20.0,28.0,45.0,42.0,0.0
11.0,18.0,-25.0,15.0,7.0,-40.0,-6.0,15.0,46.0,43.0,0.0
9.0,35.0,-5.0,16.0,0.0,-53.0,-26.0,-4.0,38.0,39.0,0.0
2.0,30.0,7.0,9.0,-8.0,-60.0,-37.0,-18.0,38.0,28.0,0.0
-6.0,41.0,35.0,6.0,-34.0,-75.0,-49.0,-9.0,42.0,27.0,0.0
-19.0,34.0,63.0,5.0,-38.0,-75.0,-50.0,-17.0,27.0,1.0,0.0
-39.0,23.0,58.0,-13.0,-31.0,-76.0,-39.0,-8.0,5.0,-11.0,0.0
-44.0,17.0,24.0,-26.0,-33.0,-65.0,-39.0,-25.0,3.0,-24.0,0.0
-30.0,4.0,-12.0,-34.0,-27.0,-44.0,-31.0,-20.0,8.0,-23.0,0.0
-1.0,-39.0,-43.0,-45.0,-28.0,-35.0,-22.0,-11.0,7.0,-24.0,0.0
10.0,-62.0,-69.0,-60.0,-33.0,-31.0,-20.0,-7.0,-1.0,-24.0,0.0
13.0,-73.0,-75.0,-72.0,-40.0,-36.0,-5.0,-4.0,8.0,-11.0,0.0
4.0,-86.0,-80.0,-83.0,-37.0,-30.0,-1.0,-1.0,31.0,11.0,0.0
-8.0,-67.0,-59.0,-59.0,-26.0,-25.0,1.0,7.0,52.0,25.0,0.0
-26.0,-50.0,-39.0,-15.0,-22.0,-28.0,-8.0,22.0,38.0,28.0,0.0
-37.0,-52.0,-21.0,-4.0,-19.0,-24.0,-19.0,22.0,18.0,14.0,0.0
-70.0,-32.0,-19.0,-2.0,-14.0,-18.0,-36.0,3.0,-2.0,-20.0,0.0
-82.0,-17.0,-35.0,-2.0,-3.0,-19.0,-29.0,0.0,-7.0,-21.0,0.0
-60.0,-15.0,-37.0,7.0,3.0,-12.0,-12.0,12.0,9.0,-2.0,0.0
-36.0,-16.0,-41.0,7.0,0.0,-17.0,-13.0,19.0,7.0,14.0,0.0
-12.0,3.0,-27.0,2.0,0.0,-22.0,-16.0,14.0,10.0,11.0,0.0
-1.0,14.0,-6.0,13.0,-8.0,-21.0,-22.0,22.0,17.0,-5.0,0.0
6.0,23.0,11.0,9.0,-8.0,-27.0,-13.0,34.0,14.0,-8.0,0.0
14.0,36.0,13.0,14.0,-12.0,-22.0,-3.0,38.0,25.0,-28.0,0.0
3.0,23.0,3.0,11.0,-15.0,-34.0,-2.0,40.0,27.0,-51.0,0.0
-11.0,11.0,19.0,8.0,-13.0,-29.0,-5.0,36.0,33.0,-86.0,0.0
-28.0,18.0,25.0,18.0,-21.0,-27.0,-4.0,23.0,28.0,-168.0,0.0
-43.0,11.0,25.0,29.0,-34.0,-29.0,-19.0,2.0,1.0,-239.0,0.0
-47.0,-8.0,25.0,25.0,-29.0,-27.0,-11.0,2.0,9.0,-198.0,0.0
-52.0,-34.0,12.0,2.0,-27.0,-39.0,-14.0,0.0,0.0,-81.0,0.0
-43.0,-56.0,-25.0,-16.0,-50.0,-60.0,-28.0,-11.0,-38.0,71.0,0.0
-22.0,-49.0,-38.0,-1.0,-36.0,-32.0,-28.0,-7.0,-54.0,208.0,0.0
8.0,0.0,-5.0,33.0,-8.0,17.0,-2.0,27.0,-25.0,94.0,0.0
24.0,21.0,21.0,18.0,-22.0,8.0,-12.0,9.0,-12.0,25.0,0.0
35.0,16.0,23.0,5.0,-24.0,-9.0,-11.0,0.0,-2.0,-30.0,0.0
18.0,10.0,18.0,9.0,-5.0,5.0,13.0,23.0,7.0,-156.0,0.0
1.0,-10.0,0.0,8.0,-10.0,4.0,8.0,8.0,-18.0,-152.0,0.0
-7.0,-14.0,0.0,11.0,0.0,2.0,8.0,-11.0,-62.0,-117.0,0.0
-10.0,-8.0,0.0,0.0,-2.0,8.0,15.0,0.0,-6.0,15.0,0.0
29.0,-2.0,15.0,8.0,-9.0,8.0,16.0,32.0,45.0,135.0,0.0
61.0,5.0,20.0,17.0,-10.0,9.0,19.0,31.0,34.0,114.0,0.0
32.0,0.0,17.0,6.0,-3.0,19.0,29.0,39.0,24.0,17.0,0.0
20.0,4.0,17.0,15.0,6.0,19.0,28.0,48.0,26.0,0.0,0.0
38.0,36.0,24.0,27.0,19.0,10.0,25.0,39.0,34.0,49.0,0.0
63.0,96.0,60.0,46.0,38.0,24.0,41.0,59.0,48.0,53.0,0.0
79.0,121.0,81.0,70.0,43.0,31.0,25.0,66.0,58.0,72.0,0.0
75.0,83.0,59.0,64.0,27.0,1.0,-2.0,36.0,17.0,-27.0,0.0
47.0,34.0,32.0,45.0,11.0,-22.0,-34.0,6.0,-24.0,-105.0,0.0
51.0,15.0,18.0,43.0,7.0,-22.0,-45.0,-11.0,-37.0,74.0,0.0
74.0,20.0,19.0,71.0,19.0,-3.0,-18.0,-3.0,-35.0,178.0,0.0
55.0,14.0,15.0,70.0,37.0,19.0,9.0,10.0,-27.0,88.0,0.0
49.0,0.0,1.0,40.0,29.0,28.0,21.0,29.0,-11.0,86.0,0.0
67.0,29.0,17.0,37.0,23.0,23.0,27.0,49.0,10.0,131.0,0.0
58.0,34.0,36.0,25.0,28.0,33.0,33.0,46.0,20.0,147.0,0.0
27.0,-4.0,23.0,-33.0,12.0,37.0,37.0,42.0,3.0,90.0,0.0
-7.0,-35.0,3.0,-58.0,7.0,42.0,47.0,57.0,-1.0,45.0,0.0
-13.0,-44.0,-14.0,-51.0,18.0,38.0,45.0,70.0,-3.0,21.0,0.0
3.0,-25.0,-17.0,-51.0,11.0,39.0,42.0,75.0,-14.0,0.0,0.0
11.0,-46.0,-30.0,-44.0,4.0,31.0,32.0,72.0,-28.0,-10.0,0.0
9.0,-71.0,-35.0,-17.0,14.0,22.0,25.0,56.0,-45.0,-17.0,0.0
7.0,-73.0,-43.0,-14.0,19.0,34.0,22.0,50.0,-21.0,-13.0,0.0
0.0,-69.0,-51.0,-8.0,18.0,44.0,48.0,49.0,16.0,-25.0,0.0
-2.0,-53.0,-57.0,-5.0,9.0,37.0,49.0,50.0,10.0,-80.0,0.0
-5.0,-31.0,-55.0,-10.0,-3.0,21.0,31.0,45.0,2.0,-121.0,0.0
-7.0,-22.0,-37.0,-14.0,-4.0,13.0,6.0,31.0,-24.0,-99.0,0.0
-18.0,-4.0,-10.0,-11.0,2.0,13.0,-3.0,24.0,-41.0,-90.0,0.0
-14.0,23.0,3.0,-6.0,1.0,22.0,-3.0,19.0,-44.0,-70.0,0.0
-10.0,36.0,18.0,11.0,24.0,31.0,11.0,13.0,-36.0,3.0,0.0
-6.0,43.0,30.0,18.0,48.0,41.0,22.0,35.0,3.0,72.0,0.0
33.0,67.0,43.0,13.0,33.0,34.0,8.0,30.0,20.0,-3.0,0.0
77.0,62.0,39.0,10.0,-6.0,-10.0,-23.0,-9.0,0.0,27.0,0.0
128.0,56.0,45.0,24.0,-10.0,-19.0,-14.0,0.0,19.0,170.0,0.0
118.0,28.0,37.0,37.0,-9.0,-19.0,-12.0,-9.0,22.0,119.0,0.0
79.0,-2.0,27.0,33.0,-9.0,-34.0,-31.0,-27.0,2.0,40.0,0.0
70.0,-9.0,24.0,13.0,-13.0,-40.0,-28.0,-19.0,4.0,32.0,0.0
73.0,4.0,29.0,6.0,-11.0,-32.0,-14.0,12.0,32.0,73.0,0.0
62.0,20.0,30.0,4.0,-4.0,-28.0,-8.0,20.0,36.0,76.0,0.0
16.0,24.0,0.0,-6.0,-5.0,-13.0,-2.0,9.0,16.0,43.0,0.0
-68.0,23.0,-23.0,-28.0,-7.0,4.0,2.0,0.0,-8.0,-28.0,0.0
-134.0,-19.0,-31.0,-47.0,6.0,13.0,12.0,13.0,-35.0,-108.0,0.0
-122.0,-30.0,-43.0,-56.0,6.0,33.0,45.0,31.0,5.0,-218.0,0.0
-99.0,-16.0,-28.0,-35.0,6.0,39.0,47.0,27.0,-3.0,-308.0,0.0
-95.0,15.0,4.0,-13.0,9.0,28.0,46.0,20.0,-26.0,-290.0,0.0
-53.0,43.0,1.0,-6.0,4.0,24.0,37.0,16.0,-10.0,-128.0,0.0
-14.0,51.0,13.0,-4.0,-13.0,-9.0,-11.0,5.0,-40.0,6.0,0.0
4.0,64.0,30.0,23.0,-1.0,-7.0,10.0,14.0,-14.0,35.0,0.0
18.0,47.0,14.0,20.0,2.0,9.0,27.0,16.0,-26.0,5.0,0.0
32.0,8.0,-40.0,-3.0,-11.0,-3.0,-1.0,-8.0,-45.0,163.0,0.0
39.0,-8.0,-51.0,2.0,-1.0,0.0,11.0,-9.0,-20.0,167.0,0.0
44.0,1.0,-11.0,17.0,13.0,1.0,17.0,0.0,-25.0,15.0,0.0
13.0,-19.0,-19.0,22.0,17.0,29.0,53.0,15.0,19.0,-26.0,0.0
-3.0,-32.0,-38.0,11.0,15.0,33.0,54.0,24.0,39.0,-24.0,0.0
-9.0,-48.0,-73.0,-23.0,10.0,29.0,56.0,31.0,28.0,-36.0,0.0
-28.0,-90.0,-80.0,-64.0,-2.0,-3.0,9.0,-6.0,-97.0,-64.0,0.0
-48.0,-104.0,-61.0,-86.0,-12.0,-3.0,17.0,-17.0,-102.0,-64.0,0.0
-45.0,-74.0,-55.0,-83.0,-7.0,19.0,81.0,20.0,16.0,-33.0,0.0
-43.0,-59.0,-29.0,-73.0,-11.0,8.0,70.0,26.0,7.0,-37.0,0.0
-28.0,-48.0,-29.0,-50.0,2.0,-4.0,37.0,12.0,-35.0,-30.0,0.0
0.0,-26.0,-27.0,-20.0,9.0,-5.0,19.0,-8.0,-21.0,-9.0,0.0
15.0,0.0,-28.0,-1.0,6.0,11.0,28.0,-11.0,8.0,14.0,0.0
17.0,17.0,-30.0,3.0,11.0,17.0,25.0,-11.0,21.0,14.0,0.0
20.0,40.0,-29.0,0.0,18.0,29.0,20.0,0.0,31.0,6.0,0.0
11.0,52.0,-28.0,2.0,10.0,22.0,13.0,0.0,14.0,12.0,0.0
6.0,27.0,-41.0,-15.0,-6.0,5.0,-10.0,-1.0,-31.0,-8.0,0.0
16.0,16.0,-43.0,-31.0,-19.0,2.0,-20.0,0.0,-19.0,-25.0,0.0
9.0,11.0,-28.0,-16.0,-28.0,-2.0,-29.0,-10.0,-20.0,-56.0,0.0
9.0,27.0,-21.0,1.0,-32.0,-6.0,-27.0,-17.0,-32.0,-57.0,0.0
5.0,38.0,-2.0,17.0,-26.0,-10.0,-28.0,-28.0,-30.0,-14.0,0.0
-26.0,0.0,13.0,34.0,-9.0,0.0,-9.0,-6.0,-20.0,49.0,0.0
-49.0,-15.0,1.0,38.0,10.0,31.0,28.0,44.0,36.0,115.0,0.0
-37.0,0.0,16.0,35.0,5.0,23.0,-1.0,14.0,3.0,112.0,0.0
-16.0,38.0,37.0,33.0,-8.0,-4.0,-29.0,-21.0,-61.0,49.0,0.0
8.0,61.0,34.0,50.0,-3.0,-9.0,-12.0,-18.0,-32.0,-15.0,0.0
12.0,58.0,37.0,60.0,9.0,-14.0,-29.0,0.0,-62.0,-122.0,0.0
23.0,66.0,34.0,53.0,16.0,7.0,-17.0,19.0,-29.0,-150.0,0.0
2.0,54.0,10.0,36.0,16.0,20.0,-3.0,25.0,-27.0,-142.0,0.0
-20.0,12.0,-9.0,12.0,11.0,33.0,1.0,19.0,-30.0,-121.0,0.0
-12.0,10.0,-15.0,5.0,-5.0,24.0,-6.0,2.0,-6.0,-73.0,0.0
-7.0,2.0,-8.0,-7.0,-21.0,-8.0,-42.0,-17.0,-44.0,-56.0,0.0
-18.0,8.0,4.0,11.0,-21.0,-12.0,-27.0,-13.0,14.0,-50.0,0.0
-22.0,-4.0,0.0,17.0,-11.0,-6.0,-26.0,-7.0,25.0,-43.0,0.0
-27.0,-24.0,1.0,11.0,-16.0,4.0,-14.0,-6.0,8.0,-41.0,0.0
-27.0,-41.0,-10.0,-25.0,-17.0,-23.0,-57.0,-48.0,-99.0,-77.0,0.0
-16.0,-10.0,-27.0,-34.0,-22.0,-17.0,-51.0,-55.0,-109.0,-64.0,0.0
9.0,38.0,-18.0,-9.0,-19.0,16.0,-7.0,-32.0,17.0,-29.0,0.0
20.0,51.0,3.0,1.0,-27.0,11.0,-21.0,-42.0,8.0,-4.0,0.0
39.0,50.0,-11.0,-10.0,-39.0,2.0,-23.0,-52.0,0.0,84.0,0.0
55.0,32.0,-15.0,-27.0,-43.0,-18.0,-37.0,-59.0,-16.0,164.0,0.0
65.0,34.0,-24.0,-34.0,-33.0,7.0,-22.0,-53.0,11.0,165.0,0.0
47.0,17.0,-50.0,-39.0,-26.0,28.0,-2.0,-37.0,29.0,103.0,0.0
14.0,8.0,-52.0,-48.0,-12.0,41.0,4.0,-13.0,37.0,45.0,0.0
-7.0,1.0,-37.0,-44.0,-6.0,52.0,5.0,-4.0,32.0,-11.0,0.0
-16.0,-8.0,-31.0,-50.0,-11.0,38.0,6.0,-18.0,6.0,-49.0,0.0
-23.0,-17.0,-28.0,-47.0,-11.0,35.0,16.0,-17.0,34.0,-68.0,0.0
-24.0,-6.0,-18.0,-30.0,-3.0,36.0,14.0,-17.0,35.0,-73.0,0.0
-20.0,20.0,1.0,-2.0,15.0,30.0,2.0,-20.0,30.0,-69.0,0.0
-27.0,23.0,-5.0,-4.0,3.0,21.0,-2.0,-27.0,6.0,-81.0,0.0
-22.0,14.0,-12.0,-31.0,-21.0,5.0,-21.0,-40.0,-28.0,-78.0,0.0
-7.0,18.0,-10.0,-33.0,-29.0,-9.0,-32.0,-26.0,-9.0,-44.0,0.0
4.0,5.0,-17.0,-18.0,-27.0,-5.0,-33.0,-40.0,-19.0,-44.0,0.0
16.0,0.0,-16.0,-12.0,-18.0,-1.0,-47.0,-49.0,-30.0,-1.0,0.0
29.0,1.0,0.0,-13.0,-26.0,-12.0,-38.0,-40.0,-12.0,80.0,0.0
49.0,17.0,11.0,-3.0,-14.0,-10.0,-24.0,-18.0,0.0,90.0,0.0
54.0,34.0,10.0,10.0,-6.0,8.0,-11.0,-25.0,-1.0,124.0,0.0
63.0,56.0,36.0,27.0,0.0,14.0,6.0,-25.0,21.0,137.0,0.0
78.0,78.0,76.0,62.0,21.0,17.0,11.0,-7.0,35.0,37.0,0.0
75.0,105.0,95.0,92.0,29.0,29.0,11.0,5.0,25.0,-77.0,0.0
58.0,77.0,78.0,76.0,45.0,40.0,12.0,5.0,3.0,-191.0,0.0
34.0,38.0,61.0,34.0,28.0,29.0,10.0,-6.0,0.0,-195.0,0.0
9.0,7.0,7.0,11.0,5.0,3.0,-8.0,-28.0,-7.0,-128.0,0.0
2.0,2.0,-6.0,8.0,11.0,5.0,-8.0,-13.0,-17.0,-82.0,0.0
-10.0,-2.0,24.0,12.0,21.0,17.0,12.0,-2.0,-10.0,-92.0,0.0
-22.0,-4.0,43.0,10.0,10.0,9.0,-11.0,-13.0,-32.0,-56.0,0.0
-16.0,-4.0,23.0,8.0,12.0,4.0,-12.0,-2.0,-2.0,47.0,0.0
-2.0,-2.0,-11.0,-12.0,0.0,-1.0,0.0,6.0,30.0,126.0,0.0
0.0,-11.0,-23.0,-37.0,-13.0,-2.0,17.0,14.0,44.0,102.0,0.0
-3.0,-49.0,-21.0,-45.0,-14.0,15.0,29.0,15.0,48.0,77.0,0.0
-31.0,-76.0,-32.0,-46.0,-18.0,27.0,20.0,20.0,15.0,71.0,0.0
-41.0,-72.0,-38.0,-50.0,-5.0,29.0,34.0,20.0,30.0,56.0,0.0
-39.0,-52.0,-26.0,-61.0,-1.0,34.0,45.0,7.0,43.0,21.0,0.0
-33.0,-33.0,-9.0,-55.0,-1.0,33.0,32.0,10.0,46.0,-32.0,0.0
-22.0,-24.0,10.0,-18.0,-7.0,21.0,29.0,23.0,35.0,-67.0,0.0
-8.0,-14.0,11.0,-14.0,2.0,8.0,17.0,11.0,7.0,-48.0,0.0
-3.0,6.0,12.0,-6.0,8.0,5.0,22.0,8.0,26.0,28.0,0.0
-4.0,27.0,33.0,-3.0,2.0,12.0,23.0,13.0,39.0,87.0,0.0
10.0,35.0,37.0,-14.0,-10.0,19.0,26.0,13.0,50.0,102.0,0.0
22.0,36.0,30.0,-29.0,-14.0,23.0,13.0,10.0,40.0,91.0,0.0
16.0,34.0,32.0,-15.0,-15.0,9.0,-13.0,5.0,-8.0,43.0,0.0
16.0,65.0,43.0,6.0,-13.0,2.0,-3.0,7.0,5.0,-18.0,0.0
9.0,99.0,70.0,27.0,-8.0,0.0,-13.0,0.0,2.0,-71.0,0.0
2.0,94.0,93.0,49.0,-9.0,-20.0,-17.0,-1.0,3.0,-85.0,0.0
22.0,67.0,85.0,43.0,-8.0,-29.0,-8.0,-4.0,1.0,-57.0,0.0
45.0,50.0,61.0,35.0,0.0,-28.0,-7.0,-14.0,-6.0,-32.0,0.0
36.0,27.0,43.0,34.0,0.0,-31.0,-5.0,-15.0,-4.0,-13.0,0.0
13.0,3.0,23.0,17.0,4.0,-30.0,0.0,-2.0,7.0,7.0,0.0
4.0,-2.0,15.0,2.0,-3.0,-25.0,6.0,3.0,18.0,23.0,0.0
-9.0,-13.0,2.0,6.0,-11.0,-16.0,19.0,13.0,29.0,37.0,0.0
-14.0,-15.0,-10.0,4.0,-9.0,-11.0,18.0,7.0,25.0,33.0,0.0
-31.0,4.0,-13.0,12.0,-8.0,-16.0,14.0,-1.0,23.0,14.0,0.0
-65.0,25.0,-16.0,15.0,6.0,-18.0,19.0,2.0,39.0,5.0,0.0
-62.0,22.0,-28.0,26.0,12.0,-3.0,20.0,11.0,50.0,12.0,0.0
-28.0,20.0,-24.0,14.0,14.0,13.0,20.0,11.0,52.0,18.0,0.0
-9.0,24.0,-13.0,0.0,10.0,11.0,5.0,-6.0,5.0,21.0,0.0
0.0,12.0,-13.0,5.0,5.0,10.0,2.0,-20.0,-2.0,23.0,0.0
14.0,9.0,-8.0,6.0,-5.0,8.0,13.0,-21.0,11.0,21.0,0.0
22.0,16.0,4.0,3.0,-10.0,1.0,22.0,-20.0,26.0,33.0,0.0
24.0,2.0,8.0,2.0,-25.0,4.0,27.0,-2.0,48.0,43.0,0.0
9.0,-10.0,7.0,-3.0,-35.0,-7.0,16.0,-14.0,13.0,12.0,0.0
0.0,-7.0,7.0,4.0,-33.0,-24.0,3.0,-26.0,-2.0,11.0,0.0
-8.0,-15.0,0.0,4.0,-12.0,-8.0,22.0,-17.0,33.0,27.0,0.0
-27.0,-49.0,-22.0,0.0,18.0,6.0,43.0,-1.0,61.0,22.0,0.0
-49.0,-81.0,-47.0,-9.0,9.0,21.0,47.0,8.0,57.0,12.0,0.0
-57.0,-100.0,-38.0,-27.0,-13.0,20.0,19.0,-13.0,2.0,-20.0,0.0
-43.0,-86.0,-25.0,-26.0,-20.0,2.0,12.0,-17.0,13.0,-18.0,0.0
-14.0,-66.0,-27.0,-19.0,-7.0,0.0,33.0,-11.0,38.0,10.0,0.0
-13.0,-50.0,-29.0,-12.0,5.0,21.0,41.0,4.0,46.0,24.0,0.0
-23.0,-24.0,-22.0,-8.0,4.0,26.0,32.0,8.0,35.0,27.0,0.0
-19.0,-23.0,-21.0,-13.0,-5.0,2.0,-5.0,-18.0,-23.0,6.0,0.0
-6.0,-15.0,-24.0,-18.0,-10.0,-21.0,-12.0,-35.0,-26.0,-12.0,0.0
6.0,-11.0,-15.0,-7.0,4.0,-22.0,-6.0,-39.0,-10.0,-9.0,0.0
6.0,-6.0,4.0,17.0,19.0,1.0,11.0,-21.0,-5.0,-15.0,0.0
20.0,20.0,22.0,32.0,21.0,6.0,6.0,-14.0,-16.0,-23.0,0.0
25.0,24.0,39.0,44.0,14.0,-12.0,-28.0,-29.0,-46.0,-29.0,0.0
34.0,34.0,44.0,50.0,11.0,3.0,-19.0,-19.0,0.0,-3.0,0.0
40.0,45.0,53.0,60.0,20.0,15.0,-9.0,-24.0,19.0,-18.0,0.0
34.0,62.0,64.0,68.0,22.0,-4.0,-11.0,-31.0,7.0,-50.0,0.0
19.0,48.0,55.0,55.0,-6.0,-33.0,-33.0,-44.0,-7.0,-71.0,0.0
1.0,-12.0,22.0,24.0,-37.0,-67.0,-73.0,-77.0,-45.0,-11.0,0.0
18.0,-16.0,20.0,38.0,-18.0,-45.0,-43.0,-61.0,13.0,139.0,0.0
15.0,-1.0,0.0,33.0,-1.0,-13.0,-18.0,-32.0,51.0,120.0,0.0
17.0,14.0,0.0,4.0,-4.0,1.0,-12.0,-23.0,53.0,60.0,0.0
0.0,-5.0,-1.0,-20.0,-6.0,-5.0,-25.0,-30.0,21.0,27.0,0.0
-22.0,-39.0,-15.0,-22.0,-16.0,-32.0,-58.0,-47.0,-12.0,8.0,0.0
0.0,-39.0,-9.0,-31.0,-22.0,10.0,-34.0,-8.0,19.0,98.0,0.0
-6.0,-65.0,-32.0,-25.0,-20.0,32.0,-9.0,2.0,28.0,125.0,0.0
1.0,-56.0,-52.0,-18.0,-10.0,38.0,0.0,7.0,9.0,127.0,0.0
6.0,-67.0,-35.0,-20.0,-7.0,-1.0,-55.0,-36.0,-161.0,70.0,0.0
9.0,-68.0,8.0,0.0,-4.0,-6.0,-52.0,-27.0,-163.0,10.0,0.0
17.0,-10.0,14.0,14.0,10.0,37.0,20.0,33.0,28.0,-1.0,0.0
15.0,1.0,-23.0,-3.0,1.0,21.0,26.0,27.0,43.0,-7.0,0.0
26.0,2.0,-28.0,-10.0,-1.0,-1.0,14.0,3.0,31.0,7.0,0.0
43.0,-1.0,-11.0,-5.0,-8.0,-9.0,-3.0,-12.0,-5.0,-7.0,0.0
45.0,4.0,-2.0,-14.0,-4.0,-5.0,5.0,-6.0,33.0,-5.0,0.0
22.0,0.0,-2.0,-16.0,-4.0,-1.0,13.0,1.0,53.0,-5.0,0.0
2.0,4.0,-1.0,-1.0,-9.0,1.0,16.0,24.0,55.0,-18.0,0.0
-8.0,-1.0,-9.0,-8.0,-22.0,0.0,14.0,27.0,44.0,-22.0,0.0
-16.0,-10.0,12.0,-11.0,-27.0,11.0,18.0,26.0,30.0,27.0,0.0
-19.0,-47.0,-22.0,-29.0,-36.0,23.0,34.0,12.0,31.0,86.0,0.0
-9.0,-62.0,-54.0,-42.0,-43.0,13.0,26.0,-13.0,23.0,151.0,0.0
30.0,-34.0,-39.0,-16.0,-21.0,16.0,8.0,-17.0,13.0,181.0,0.0
43.0,-15.0,-27.0,-4.0,-14.0,18.0,-2.0,-20.0,6.0,129.0,0.0
25.0,13.0,-12.0,-10.0,-22.0,-8.0,-25.0,-25.0,14.0,71.0,0.0
-4.0,38.0,27.0,-6.0,-28.0,-31.0,-32.0,0.0,11.0,31.0,0.0
-30.0,36.0,78.0,20.0,-12.0,-8.0,-29.0,-8.0,-3.0,6.0,0.0
-46.0,15.0,107.0,46.0,0.0,-2.0,-26.0,2.0,0.0,-4.0,0.0
-56.0,-8.0,102.0,32.0,7.0,-6.0,-38.0,-4.0,-76.0,-109.0,0.0
-32.0,-11.0,34.0,24.0,37.0,25.0,35.0,47.0,43.0,-154.0,0.0
-23.0,-7.0,6.0,-9.0,32.0,29.0,44.0,43.0,38.0,-117.0,0.0
-24.0,-15.0,-2.0,-40.0,7.0,20.0,31.0,47.0,15.0,-88.0,0.0
-38.0,-78.0,-6.0,-54.0,-6.0,-7.0,-27.0,14.0,-124.0,-107.0,0.0
-44.0,-103.0,-7.0,-61.0,1.0,-1.0,-7.0,22.0,-125.0,-75.0,0.0
-30.0,-44.0,-22.0,-42.0,8.0,40.0,65.0,69.0,46.0,-2.0,0.0
-22.0,-14.0,-1.0,-30.0,1.0,38.0,51.0,47.0,57.0,6.0,0.0
-16.0,1.0,42.0,-19.0,3.0,20.0,31.0,32.0,42.0,13.0,0.0
-4.0,-8.0,53.0,-6.0,3.0,11.0,19.0,20.0,20.0,29.0,0.0
5.0,-1.0,35.0,-10.0,14.0,17.0,14.0,13.0,16.0,14.0,0.0
13.0,23.0,20.0,-15.0,9.0,11.0,-1.0,16.0,10.0,7.0,0.0
28.0,48.0,24.0,-13.0,5.0,11.0,-23.0,20.0,3.0,24.0,0.0
58.0,54.0,32.0,0.0,4.0,5.0,-39.0,5.0,-14.0,36.0,0.0
101.0,48.0,47.0,18.0,10.0,-12.0,-44.0,-14.0,-15.0,50.0,0.0
108.0,46.0,44.0,26.0,10.0,-36.0,-56.0,-17.0,-9.0,41.0,0.0
93.0,42.0,31.0,26.0,-1.0,-40.0,-45.0,-12.0,0.0,37.0,0.0
83.0,38.0,19.0,40.0,7.0,-29.0,-29.0,1.0,17.0,43.0,0.0
50.0,34.0,26.0,36.0,30.0,-14.0,-29.0,18.0,0.0,26.0,0.0
23.0,39.0,33.0,24.0,28.0,-26.0,-24.0,4.0,-28.0,-3.0,0.0
-50.0,84.0,3.0,-7.0,-9.0,-32.0,-11.0,-11.0,-26.0,-31.0,0.0
-67.0,59.0,-40.0,-31.0,-16.0,-24.0,3.0,7.0,5.0,0.0,0.0
-52.0,24.0,-72.0,-64.0,-15.0,-22.0,15.0,28.0,6.0,48.0,0.0
-43.0,-12.0,-69.0,-104.0,-16.0,-46.0,-30.0,0.0,-101.0,47.0,0.0
-50.0,-5.0,-59.0,-101.0,-22.0,-48.0,-30.0,-20.0,-76.0,51.0,0.0
-47.0,-6.0,-40.0,-77.0,-22.0,-37.0,-8.0,-9.0,-7.0,55.0,0.0
-36.0,-40.0,-17.0,-52.0,-14.0,-39.0,-7.0,-17.0,-2.0,44.0,0.0
-30.0,-48.0,34.0,-26.0,-6.0,-34.0,-18.0,-31.0,0.0,8.0,0.0
7.0,-24.0,60.0,-6.0,1.0,-18.0,-28.0,-29.0,-5.0,-54.0,0.0
27.0,-2.0,50.0,15.0,6.0,-5.0,-27.0,-11.0,-10.0,-64.0,0.0
6.0,-8.0,53.0,20.0,22.0,-3.0,-22.0,-11.0,-19.0,-63.0,0.0
-24.0,-32.0,43.0,9.0,29.0,5.0,-1.0,-11.0,-6.0,-83.0,0.0
-19.0,-46.0,22.0,-2.0,15.0,14.0,18.0,14.0,22.0,-59.0,0.0
-23.0,-62.0,-13.0,-21.0,10.0,25.0,23.0,37.0,37.0,-81.0,0.0
-34.0,-83.0,-68.0,-37.0,7.0,43.0,38.0,51.0,34.0,-86.0,0.0
-40.0,-76.0,-87.0,-61.0,-4.0,43.0,54.0,30.0,23.0,-11.0,0.0
-38.0,-54.0,-53.0,-52.0,1.0,31.0,57.0,15.0,13.0,56.0,0.0
-32.0,-42.0,-42.0,-37.0,5.0,30.0,46.0,25.0,5.0,85.0,0.0
-18.0,-36.0,-43.0,-21.0,7.0,22.0,22.0,17.0,-51.0,56.0,0.0
-2.0,-4.0,-27.0,-7.0,11.0,21.0,14.0,20.0,-37.0,22.0,0.0
-6.0,17.0,-10.0,5.0,17.0,31.0,11.0,39.0,2.0,-36.0,0.0
7.0,22.0,-7.0,9.0,21.0,26.0,4.0,51.0,23.0,-65.0,0.0
14.0,28.0,-14.0,-12.0,16.0,-1.0,-26.0,20.0,-4.0,-49.0,0.0
24.0,34.0,-17.0,-33.0,-3.0,-29.0,-69.0,-30.0,-78.0,-19.0,0.0
44.0,61.0,26.0,-9.0,-1.0,-31.0,-54.0,-26.0,-53.0,18.0,0.0
45.0,68.0,95.0,23.0,26.0,-14.0,-31.0,-6.0,-12.0,35.0,0.0
27.0,61.0,106.0,34.0,40.0,-2.0,-13.0,10.0,-4.0,14.0,0.0
7.0,44.0,65.0,21.0,27.0,8.0,-16.0,11.0,-9.0,-49.0,0.0
7.0,31.0,31.0,-5.0,18.0,0.0,-15.0,0.0,-14.0,-81.0,0.0
7.0,2.0,-11.0,-35.0,2.0,-22.0,-35.0,-16.0,-17.0,-109.0,0.0
-5.0,-35.0,-52.0,-62.0,-25.0,-37.0,-59.0,-20.0,-32.0,-122.0,0.0
-29.0,-62.0,-79.0,-85.0,-45.0,-56.0,-71.0,-32.0,-39.0,-94.0,0.0
-37.0,-69.0,-83.0,-77.0,-54.0,-51.0,-55.0,-28.0,-36.0,-23.0,0.0
-19.0,-62.0,-77.0,-71.0,-47.0,-46.0,-56.0,-32.0,-34.0,125.0,0.0
29.0,-23.0,-21.0,-21.0,-14.0,-41.0,-72.0,-44.0,-42.0,496.0,0.0
58.0,4.0,-4.0,-12.0,0.0,-18.0,-45.0,-23.0,-36.0,534.0,0.0
83.0,39.0,21.0,7.0,27.0,12.0,-23.0,-8.0,-40.0,420.0,0.0
96.0,67.0,63.0,33.0,64.0,33.0,-19.0,-6.0,-97.0,164.0,0.0
71.0,97.0,92.0,75.0,77.0,63.0,24.0,40.0,-27.0,-54.0,0.0
28.0,89.0,84.0,87.0,77.0,80.0,65.0,69.0,38.0,-269.0,0.0
0.0,78.0,77.0,77.0,75.0,71.0,63.0,76.0,10.0,-348.0,0.0
-34.0,81.0,109.0,68.0,62.0,47.0,38.0,53.0,-39.0,-334.0,0.0
-39.0,75.0,114.0,74.0,52.0,29.0,17.0,27.0,-76.0,-278.0,0.0
-36.0,59.0,124.0,74.0,41.0,28.0,23.0,24.0,-45.0,-202.0,0.0
-29.0,43.0,114.0,83.0,34.0,9.0,8.0,8.0,-41.0,-146.0,0.0
8.0,57.0,104.0,79.0,39.0,-17.0,-9.0,-10.0,-39.0,-93.0,0.0
38.0,76.0,110.0,80.0,41.0,-25.0,-29.0,-16.0,-38.0,-51.0,0.0
45.0,75.0,112.0,88.0,35.0,-26.0,-35.0,-11.0,-42.0,-23.0,0.0
39.0,70.0,73.0,77.0,24.0,-27.0,-44.0,-6.0,-40.0,-10.0,0.0
32.0,64.0,55.0,59.0,19.0,-15.0,-49.0,-10.0,-36.0,0.0,0.0
12.0,63.0,34.0,46.0,5.0,3.0,-41.0,-4.0,-28.0,2.0,0.0
-10.0,13.0,-3.0,22.0,9.0,18.0,-24.0,2.0,-19.0,8.0,0.0
-22.0,-46.0,-62.0,-28.0,3.0,36.0,8.0,1.0,4.0,43.0,0.0
-17.0,-47.0,-92.0,-70.0,-19.0,39.0,23.0,-6.0,5.0,79.0,0.0
-18.0,-45.0,-96.0,-75.0,-29.0,32.0,17.0,-11.0,9.0,81.0,0.0
-11.0,-41.0,-78.0,-76.0,-33.0,24.0,-4.0,-21.0,5.0,68.0,0.0
-8.0,-26.0,-59.0,-62.0,-43.0,2.0,-10.0,-36.0,-15.0,43.0,0.0
-26.0,-63.0,-70.0,-65.0,-38.0,3.0,-20.0,-48.0,-67.0,-3.0,0.0
-50.0,-99.0,-77.0,-58.0,-34.0,13.0,8.0,-27.0,-46.0,-24.0,0.0
-69.0,-101.0,-65.0,-48.0,-35.0,10.0,25.0,-4.0,-34.0,-55.0,0.0
-46.0,-84.0,-74.0,-24.0,-3.0,4.0,0.0,6.0,-38.0,0.0,0.0
-20.0,-46.0,-63.0,-6.0,0.0,18.0,2.0,2.0,-7.0,48.0,0.0
-16.0,-34.0,-42.0,1.0,3.0,8.0,-22.0,-12.0,-62.0,27.0,0.0
-7.0,-23.0,-26.0,-4.0,-4.0,-6.0,-32.0,-23.0,-97.0,0.0,0.0
11.0,5.0,-34.0,0.0,-7.0,13.0,5.0,2.0,-15.0,-36.0,0.0
12.0,7.0,-30.0,7.0,-11.0,-7.0,0.0,1.0,-22.0,-81.0,0.0
17.0,16.0,-47.0,5.0,-18.0,-19.0,-6.0,0.0,0.0,-61.0,0.0
19.0,18.0,-65.0,4.0,-24.0,-17.0,-37.0,-26.0,-34.0,-32.0,0.0
30.0,46.0,-53.0,-1.0,-38.0,-36.0,-34.0,-33.0,-29.0,31.0,0.0
40.0,74.0,-26.0,3.0,-39.0,-43.0,-20.0,-29.0,-4.0,87.0,0.0
34.0,51.0,-20.0,0.0,-37.0,-39.0,-34.0,-30.0,-36.0,97.0,0.0
18.0,24.0,-23.0,-1.0,-21.0,-2.0,5.0,-6.0,-8.0,96.0,0.0
-1.0,10.0,-7.0,11.0,4.0,23.0,28.0,0.0,12.0,83.0,0.0
-12.0,13.0,28.0,34.0,13.0,20.0,25.0,4.0,6.0,13.0,0.0
-24.0,-5.0,39.0,24.0,2.0,-11.0,-4.0,-3.0,3.0,-86.0,0.0
-19.0,-18.0,39.0,1.0,-28.0,-54.0,-55.0,-36.0,-45.0,-146.0,0.0
39.0,-5.0,56.0,17.0,-17.0,-32.0,-25.0,-17.0,-19.0,-182.0,0.0
36.0,-33.0,12.0,-6.0,-21.0,-25.0,-7.0,-17.0,-27.0,-158.0,0.0
12.0,-75.0,-35.0,-43.0,-38.0,-22.0,-13.0,-32.0,-51.0,-82.0,0.0
8.0,-112.0,-59.0,-64.0,-54.0,-22.0,-25.0,-38.0,-76.0,-4.0,0.0
-18.0,-107.0,-84.0,-58.0,-53.0,-25.0,-8.0,-32.0,-31.0,64.0,0.0
-49.0,-101.0,-98.0,-56.0,-39.0,-27.0,-6.0,-27.0,-2.0,97.0,0.0
-52.0,-83.0,-77.0,-38.0,-31.0,-10.0,9.0,-11.0,-3.0,118.0,0.0
-57.0,-26.0,-45.0,-14.0,-10.0,21.0,44.0,8.0,14.0,198.0,0.0
-55.0,20.0,-1.0,14.0,19.0,48.0,72.0,25.0,16.0,216.0,0.0
-32.0,33.0,51.0,16.0,54.0,58.0,72.0,28.0,-5.0,70.0,0.0
0.0,60.0,55.0,24.0,50.0,64.0,63.0,28.0,21.0,-51.0,0.0
4.0,51.0,17.0,1.0,13.0,33.0,36.0,13.0,6.0,-31.0,0.0
-5.0,-1.0,-8.0,-32.0,-12.0,-10.0,-1.0,-6.0,-24.0,46.0,0.0
-5.0,-17.0,-22.0,-39.0,-20.0,-38.0,-28.0,-16.0,-23.0,93.0,0.0
5.0,-8.0,-26.0,-35.0,-28.0,-40.0,-29.0,-5.0,-20.0,65.0,0.0
0.0,-4.0,-26.0,-38.0,-35.0,-42.0,-26.0,-9.0,-29.0,62.0,0.0
7.0,-24.0,-32.0,-43.0,-41.0,-44.0,-35.0,-15.0,-42.0,122.0,0.0
15.0,-32.0,-40.0,-38.0,-34.0,-27.0,-11.0,-9.0,-16.0,250.0,0.0
29.0,-20.0,-46.0,-17.0,-31.0,-20.0,-1.0,0.0,17.0,328.0,0.0
9.0,0.0,-14.0,0.0,-13.0,-20.0,-15.0,-16.0,-30.0,149.0,0.0
-2.0,62.0,42.0,44.0,18.0,3.0,21.0,14.0,-11.0,-203.0,0.0
-33.0,90.0,93.0,64.0,53.0,26.0,50.0,53.0,-6.0,-366.0,0.0
-76.0,83.0,115.0,65.0,66.0,33.0,58.0,55.0,-13.0,-423.0,0.0
-75.0,101.0,119.0,60.0,60.0,38.0,56.0,58.0,-13.0,-416.0,0.0
-51.0,83.0,84.0,22.0,34.0,18.0,23.0,25.0,-42.0,-248.0,0.0
-42.0,52.0,61.0,7.0,22.0,19.0,6.0,4.0,-10.0,-55.0,0.0
-48.0,0.0,27.0,-6.0,30.0,34.0,22.0,9.0,19.0,41.0,0.0
-40.0,-26.0,-10.0,-26.0,16.0,18.0,30.0,3.0,16.0,56.0,0.0
-38.0,-42.0,-3.0,-31.0,-7.0,-5.0,36.0,-2.0,6.0,0.0,0.0
-33.0,-63.0,0.0,-25.0,-14.0,-21.0,21.0,-8.0,-14.0,-99.0,0.0
-25.0,-38.0,-18.0,-16.0,-12.0,-17.0,36.0,3.0,10.0,-101.0,0.0
-27.0,-26.0,-16.0,-10.0,-19.0,-25.0,40.0,-11.0,29.0,-26.0,0.0
-38.0,-22.0,-3.0,-2.0,-19.0,-18.0,44.0,-23.0,29.0,5.0,0.0
-41.0,-13.0,20.0,-5.0,-11.0,-19.0,34.0,-19.0,28.0,0.0,0.0
-41.0,-15.0,27.0,-13.0,-26.0,-29.0,12.0,-23.0,18.0,9.0,0.0
-45.0,-34.0,18.0,-19.0,-17.0,-25.0,10.0,-15.0,25.0,13.0,0.0
-44.0,-34.0,0.0,-20.0,-7.0,-18.0,15.0,-16.0,24.0,-1.0,0.0
-37.0,-28.0,-19.0,-14.0,-8.0,-15.0,6.0,-20.0,32.0,-3.0,0.0
-33.0,-23.0,-21.0,-15.0,-18.0,-22.0,0.0,-27.0,17.0,-3.0,0.0
-24.0,-21.0,-25.0,-21.0,-27.0,-43.0,-8.0,-44.0,-38.0,-15.0,0.0
-20.0,-12.0,-19.0,-7.0,-9.0,-22.0,6.0,-22.0,-9.0,3.0,0.0
-19.0,-23.0,-12.0,6.0,-2.0,-17.0,12.0,-17.0,12.0,13.0,0.0
-3.0,-18.0,-16.0,27.0,-3.0,-31.0,1.0,-24.0,23.0,28.0,0.0
11.0,-1.0,-28.0,17.0,-9.0,-34.0,-23.0,-36.0,3.0,48.0,0.0
20.0,3.0,-27.0,12.0,-11.0,-41.0,-38.0,-66.0,-26.0,38.0,0.0
36.0,24.0,-18.0,11.0,-14.0,-35.0,-16.0,-64.0,3.0,41.0,0.0
43.0,41.0,-29.0,15.0,-20.0,-38.0,-12.0,-41.0,15.0,43.0,0.0
27.0,47.0,-29.0,9.0,-23.0,-42.0,-15.0,-54.0,41.0,30.0,0.0
5.0,36.0,-30.0,-13.0,-30.0,-54.0,-29.0,-64.0,38.0,8.0,0.0
-6.0,10.0,-31.0,-16.0,-51.0,-71.0,-43.0,-59.0,0.0,13.0,0.0
14.0,31.0,-8.0,14.0,-55.0,-67.0,-30.0,-55.0,18.0,61.0,0.0
43.0,46.0,18.0,39.0,-33.0,-61.0,-46.0,-51.0,19.0,107.0,0.0
50.0,50.0,16.0,35.0,-31.0,-43.0,-52.0,-45.0,14.0,145.0,0.0
50.0,54.0,25.0,33.0,-32.0,-22.0,-51.0,-40.0,17.0,139.0,0.0
54.0,69.0,29.0,45.0,-19.0,-26.0,-49.0,-39.0,21.0,95.0,0.0
62.0,64.0,17.0,50.0,-1.0,-4.0,-36.0,-34.0,26.0,56.0,0.0
43.0,42.0,-16.0,30.0,20.0,23.0,-3.0,0.0,42.0,-19.0,0.0
17.0,23.0,-43.0,7.0,17.0,38.0,18.0,20.0,41.0,-132.0,0.0
-11.0,-10.0,-42.0,-23.0,-4.0,66.0,38.0,18.0,19.0,-155.0,0.0
-51.0,-72.0,-49.0,-39.0,-2.0,89.0,66.0,27.0,20.0,-89.0,0.0
-53.0,-83.0,-56.0,-52.0,-6.0,77.0,67.0,27.0,28.0,-23.0,0.0
-28.0,-77.0,-54.0,-59.0,-13.0,49.0,51.0,11.0,33.0,-10.0,0.0
-18.0,-71.0,-55.0,-55.0,-11.0,34.0,31.0,9.0,29.0,-20.0,0.0
-19.0,-59.0,-49.0,-36.0,-9.0,22.0,16.0,-3.0,22.0,-11.0,0.0
-13.0,-49.0,-30.0,-16.0,-17.0,13.0,0.0,-16.0,19.0,4.0,0.0
-4.0,-36.0,-25.0,-14.0,-27.0,8.0,4.0,-10.0,15.0,22.0,0.0
-7.0,-34.0,-30.0,-28.0,-22.0,15.0,11.0,-3.0,4.0,41.0,0.0
0.0,-21.0,-33.0,-50.0,-18.0,20.0,13.0,1.0,5.0,71.0,0.0
18.0,0.0,-42.0,-63.0,-32.0,24.0,13.0,-4.0,-11.0,78.0,0.0
16.0,3.0,-41.0,-62.0,-23.0,6.0,-3.0,-16.0,-41.0,61.0,0.0
17.0,4.0,-18.0,-51.0,-6.0,18.0,9.0,1.0,-2.0,39.0,0.0
18.0,2.0,-14.0,-39.0,-9.0,31.0,14.0,28.0,33.0,-5.0,0.0
-3.0,2.0,-9.0,-24.0,-5.0,36.0,17.0,41.0,42.0,-47.0,0.0
-27.0,-32.0,-10.0,-32.0,0.0,36.0,12.0,35.0,24.0,-66.0,0.0
-44.0,-74.0,-23.0,-47.0,1.0,37.0,14.0,32.0,-3.0,-57.0,0.0
-54.0,-65.0,-40.0,-53.0,0.0,59.0,40.0,39.0,20.0,-37.0,0.0
-62.0,-58.0,-43.0,-51.0,-3.0,48.0,41.0,21.0,34.0,-25.0,0.0
-46.0,-57.0,-39.0,-36.0,3.0,50.0,35.0,16.0,36.0,-1.0,0.0
-13.0,-44.0,-22.0,-23.0,16.0,62.0,29.0,23.0,35.0,12.0,0.0
5.0,-16.0,12.0,-11.0,24.0,44.0,13.0,13.0,24.0,12.0,0.0
25.0,21.0,37.0,27.0,10.0,36.0,5.0,25.0,45.0,14.0,0.0
25.0,42.0,23.0,25.0,4.0,36.0,5.0,34.0,53.0,25.0,0.0
40.0,42.0,7.0,24.0,5.0,11.0,-17.0,20.0,0.0,21.0,0.0
30.0,35.0,28.0,25.0,0.0,-28.0,-68.0,-21.0,-122.0,-9.0,0.0
24.0,45.0,35.0,23.0,6.0,-5.0,-30.0,-11.0,-64.0,5.0,0.0
17.0,40.0,28.0,23.0,-2.0,9.0,-4.0,12.0,-1.0,13.0,0.0
5.0,40.0,19.0,18.0,-7.0,13.0,-8.0,13.0,-2.0,1.0,0.0
8.0,29.0,6.0,0.0,-6.0,14.0,-6.0,12.0,2.0,-21.0,0.0
5.0,18.0,-6.0,-7.0,-17.0,9.0,-5.0,6.0,-4.0,-47.0,0.0
6.0,4.0,-11.0,-5.0,-22.0,-11.0,-15.0,5.0,-23.0,-51.0,0.0
-1.0,-2.0,-3.0,-3.0,-23.0,-32.0,-40.0,-4.0,-17.0,-56.0,0.0
-13.0,-10.0,8.0,-3.0,-33.0,-44.0,-46.0,-32.0,3.0,-71.0,0.0
-28.0,-8.0,12.0,-7.0,-41.0,-45.0,-58.0,-46.0,-19.0,-38.0,0.0
-30.0,-11.0,7.0,-3.0,-21.0,-29.0,-57.0,-43.0,-19.0,49.0,0.0
-17.0,-29.0,-10.0,-1.0,-5.0,-3.0,-40.0,-25.0,26.0,161.0,0.0
26.0,-26.0,-6.0,21.0,9.0,11.0,-12.0,-4.0,39.0,181.0,0.0
82.0,1.0,27.0,49.0,24.0,14.0,13.0,-1.0,46.0,155.0,0.0
140.0,13.0,44.0,55.0,27.0,19.0,14.0,4.0,43.0,136.0,0.0
144.0,5.0,26.0,59.0,28.0,14.0,-9.0,-5.0,9.0,114.0,0.0
108.0,2.0,21.0,60.0,28.0,23.0,3.0,0.0,29.0,93.0,0.0
83.0,13.0,19.0,46.0,32.0,36.0,29.0,19.0,49.0,-26.0,0.0
42.0,32.0,33.0,61.0,34.0,40.0,40.0,50.0,65.0,-99.0,0.0
11.0,40.0,22.0,46.0,17.0,33.0,40.0,38.0,44.0,-93.0,0.0
-27.0,45.0,6.0,15.0,-5.0,14.0,9.0,-2.0,1.0,-90.0,0.0
-63.0,54.0,3.0,-3.0,-17.0,-9.0,-23.0,-18.0,-15.0,-99.0,0.0
-63.0,59.0,8.0,7.0,-5.0,-10.0,-22.0,-6.0,-2.0,-88.0,0.0
-46.0,50.0,38.0,20.0,0.0,5.0,-15.0,13.0,8.0,-71.0,0.0
-34.0,32.0,52.0,24.0,9.0,17.0,-31.0,15.0,-7.0,-65.0,0.0
-23.0,0.0,28.0,28.0,7.0,6.0,-45.0,-2.0,-46.0,-58.0,0.0
-11.0,-14.0,26.0,36.0,4.0,11.0,-37.0,-10.0,-25.0,-28.0,0.0
-11.0,-15.0,36.0,38.0,3.0,7.0,-31.0,-12.0,-17.0,-15.0,0.0
-22.0,-40.0,23.0,30.0,9.0,5.0,-12.0,-1.0,-3.0,-6.0,0.0
-29.0,-63.0,9.0,9.0,9.0,10.0,13.0,6.0,-5.0,-8.0,0.0
-32.0,-62.0,3.0,-5.0,9.0,3.0,12.0,6.0,-14.0,-14.0,0.0
-27.0,-23.0,0.0,4.0,5.0,-9.0,-1.0,-5.0,-19.0,-10.0,0.0
-15.0,14.0,4.0,15.0,-2.0,-33.0,-14.0,-10.0,-18.0,-6.0,0.0
2.0,25.0,13.0,13.0,0.0,-36.0,-15.0,-13.0,-14.0,0.0,0.0
25.0,7.0,11.0,20.0,6.0,-32.0,-27.0,2.0,-40.0,-1.0,0.0
30.0,-18.0,3.0,29.0,12.0,-39.0,-22.0,-2.0,-52.0,14.0,0.0
22.0,-48.0,-25.0,37.0,19.0,-1.0,17.0,24.0,7.0,28.0,0.0
7.0,-23.0,-10.0,38.0,23.0,5.0,21.0,38.0,24.0,13.0,0.0
-5.0,14.0,25.0,36.0,15.0,-8.0,0.0,26.0,-17.0,-25.0,0.0
-16.0,1.0,43.0,15.0,3.0,-39.0,-38.0,-13.0,-103.0,-47.0,0.0
-10.0,10.0,36.0,18.0,-4.0,-29.0,-11.0,-13.0,-35.0,-22.0,0.0
0.0,26.0,6.0,11.0,-15.0,-24.0,10.0,-11.0,11.0,-17.0,0.0
0.0,19.0,-21.0,6.0,-18.0,-11.0,24.0,14.0,17.0,1.0,0.0
5.0,15.0,-6.0,13.0,-11.0,-13.0,17.0,31.0,38.0,8.0,0.0
18.0,31.0,11.0,14.0,-9.0,-4.0,8.0,20.0,37.0,4.0,0.0
5.0,22.0,13.0,15.0,-14.0,-3.0,0.0,13.0,19.0,-1.0,0.0
9.0,-4.0,22.0,17.0,-7.0,-7.0,-11.0,9.0,10.0,-10.0,0.0
12.0,-33.0,10.0,13.0,-1.0,-12.0,-10.0,17.0,15.0,-11.0,0.0
8.0,-58.0,0.0,30.0,17.0,0.0,0.0,33.0,18.0,-3.0,0.0
14.0,-47.0,-13.0,33.0,26.0,2.0,-4.0,36.0,16.0,2.0,0.0
35.0,-16.0,-21.0,21.0,15.0,8.0,-14.0,28.0,22.0,30.0,0.0
36.0,-3.0,-16.0,9.0,16.0,6.0,-8.0,39.0,13.0,78.0,0.0
32.0,6.0,1.0,12.0,12.0,12.0,3.0,40.0,2.0,75.0,0.0
31.0,25.0,19.0,23.0,17.0,0.0,0.0,18.0,-9.0,30.0,0.0
39.0,24.0,38.0,39.0,17.0,-3.0,-14.0,1.0,-54.0,-4.0,0.0
50.0,37.0,47.0,55.0,21.0,7.0,0.0,17.0,-23.0,0.0,0.0
50.0,40.0,42.0,48.0,21.0,10.0,6.0,35.0,-6.0,7.0,0.0
34.0,13.0,21.0,30.0,10.0,14.0,19.0,32.0,6.0,0.0,0.0
-10.0,-21.0,-44.0,12.0,3.0,18.0,31.0,22.0,6.0,-17.0,0.0
-26.0,-44.0,-69.0,-17.0,2.0,16.0,24.0,13.0,-23.0,-18.0,0.0
-14.0,-48.0,-70.0,-34.0,2.0,28.0,49.0,31.0,4.0,-15.0,0.0
0.0,-46.0,-78.0,-41.0,15.0,25.0,60.0,37.0,20.0,-23.0,0.0
-4.0,-40.0,-54.0,-33.0,16.0,1.0,53.0,22.0,13.0,-36.0,0.0
-13.0,-43.0,-16.0,-39.0,-16.0,-35.0,11.0,-9.0,-7.0,-36.0,0.0
-13.0,-61.0,-9.0,-48.0,-33.0,-61.0,-31.0,-24.0,-10.0,46.0,0.0
18.0,-65.0,-2.0,-20.0,-4.0,-49.0,-23.0,-2.0,23.0,139.0,0.0
18.0,-58.0,-2.0,-18.0,8.0,-31.0,-14.0,24.0,26.0,96.0,0.0
17.0,-35.0,-7.0,-30.0,7.0,-33.0,-12.0,22.0,-3.0,38.0,0.0
10.0,-31.0,-13.0,-31.0,1.0,-40.0,-1.0,21.0,-23.0,22.0,0.0
4.0,-58.0,-31.0,-19.0,4.0,-22.0,9.0,16.0,-29.0,17.0,0.0
0.0,-68.0,-60.0,-35.0,3.0,-2.0,13.0,19.0,-16.0,10.0,0.0
4.0,-39.0,-60.0,-44.0,2.0,-10.0,11.0,13.0,-10.0,13.0,0.0
26.0,-15.0,-46.0,-31.0,6.0,-23.0,2.0,7.0,-17.0,23.0,0.0
35.0,-11.0,-38.0,-7.0,5.0,-23.0,-9.0,-4.0,-17.0,39.0,0.0
32.0,-18.0,-32.0,6.0,19.0,-29.0,-32.0,-18.0,-51.0,60.0,0.0
29.0,-13.0,-25.0,13.0,26.0,-11.0,-9.0,0.0,-12.0,86.0,0.0
27.0,16.0,3.0,30.0,15.0,-20.0,-2.0,11.0,-8.0,88.0,0.0
39.0,53.0,61.0,33.0,21.0,-44.0,-11.0,-18.0,-35.0,67.0,0.0
64.0,57.0,96.0,30.0,38.0,-35.0,-25.0,-34.0,-56.0,43.0,0.0
71.0,31.0,71.0,22.0,31.0,-19.0,-25.0,-23.0,-71.0,-7.0,0.0
58.0,21.0,51.0,24.0,40.0,4.0,-8.0,0.0,-28.0,-40.0,0.0
46.0,18.0,45.0,39.0,46.0,31.0,0.0,7.0,-2.0,-74.0,0.0
19.0,17.0,64.0,41.0,32.0,32.0,-7.0,19.0,16.0,-54.0,0.0
-3.0,13.0,50.0,35.0,30.0,28.0,-10.0,19.0,21.0,-10.0,0.0
-8.0,9.0,24.0,22.0,12.0,12.0,-15.0,9.0,8.0,-10.0,0.0
-56.0,14.0,2.0,-13.0,0.0,6.0,-8.0,3.0,15.0,-27.0,0.0
-83.0,10.0,0.0,-17.0,11.0,11.0,7.0,26.0,25.0,-27.0,0.0
-61.0,-1.0,-7.0,-15.0,22.0,32.0,25.0,45.0,16.0,-14.0,0.0
-23.0,-4.0,-28.0,-18.0,23.0,35.0,25.0,38.0,4.0,-6.0,0.0
-1.0,22.0,-42.0,-19.0,18.0,17.0,13.0,14.0,2.0,3.0,0.0
8.0,47.0,-49.0,-23.0,22.0,19.0,2.0,11.0,-4.0,18.0,0.0
10.0,48.0,-34.0,-17.0,16.0,33.0,11.0,23.0,-7.0,29.0,0.0
9.0,44.0,7.0,2.0,16.0,25.0,14.0,24.0,5.0,23.0,0.0
4.0,29.0,26.0,1.0,20.0,11.0,-1.0,-5.0,-12.0,6.0,0.0
-2.0,8.0,27.0,6.0,16.0,8.0,-9.0,-28.0,-41.0,-7.0,0.0
21.0,7.0,15.0,21.0,16.0,14.0,4.0,-9.0,-7.0,-3.0,0.0
22.0,5.0,13.0,19.0,10.0,13.0,-1.0,-9.0,-9.0,6.0,0.0
23.0,-4.0,34.0,15.0,10.0,17.0,-3.0,-9.0,-10.0,9.0,0.0
4.0,-35.0,22.0,1.0,20.0,25.0,11.0,5.0,8.0,13.0,0.0
-14.0,-64.0,4.0,8.0,18.0,19.0,-5.0,13.0,-8.0,-1.0,0.0
-19.0,-48.0,-5.0,9.0,10.0,11.0,-2.0,6.0,0.0,-17.0,0.0
-35.0,-13.0,-9.0,4.0,10.0,12.0,9.0,-8.0,18.0,-21.0,0.0
-28.0,3.0,11.0,7.0,9.0,18.0,3.0,-4.0,16.0,-16.0,0.0
-18.0,16.0,35.0,28.0,3.0,25.0,6.0,-2.0,14.0,-3.0,0.0
-7.0,19.0,47.0,26.0,4.0,14.0,0.0,-19.0,7.0,6.0,0.0
8.0,31.0,49.0,11.0,2.0,12.0,-10.0,-22.0,-8.0,11.0,0.0
9.0,51.0,29.0,16.0,-2.0,11.0,-14.0,-21.0,-12.0,14.0,0.0
3.0,48.0,29.0,12.0,-13.0,7.0,-26.0,-21.0,-10.0,11.0,0.0
1.0,31.0,58.0,10.0,-9.0,-3.0,-31.0,-32.0,-20.0,15.0,0.0
1.0,28.0,64.0,26.0,-1.0,-9.0,-29.0,-37.0,-26.0,17.0,0.0
5.0,16.0,33.0,30.0,-3.0,-6.0,-22.0,-29.0,-33.0,17.0,0.0
2.0,4.0,4.0,11.0,2.0,0.0,-7.0,-22.0,-36.0,16.0,0.0
-12.0,-15.0,-10.0,-17.0,-5.0,-2.0,-2.0,-39.0,-33.0,-21.0,0.0
-19.0,-32.0,-25.0,-52.0,-17.0,-10.0,7.0,-52.0,-30.0,-49.0,0.0
-31.0,-39.0,-20.0,-62.0,-20.0,-35.0,5.0,-40.0,-37.0,-45.0,0.0
-24.0,-20.0,-20.0,-48.0,-12.0,-32.0,19.0,-12.0,14.0,-11.0,0.0
-15.0,-9.0,-18.0,-29.0,-11.0,-19.0,6.0,5.0,33.0,33.0,0.0
-18.0,-25.0,-22.0,-33.0,-9.0,1.0,13.0,23.0,30.0,76.0,0.0
-15.0,-34.0,-31.0,-37.0,-7.0,3.0,28.0,15.0,-5.0,86.0,0.0
-3.0,-40.0,-24.0,-29.0,-11.0,-6.0,16.0,-3.0,-43.0,54.0,0.0
-9.0,-18.0,-14.0,5.0,-2.0,-2.0,22.0,-8.0,-23.0,22.0,0.0
0.0,8.0,7.0,40.0,18.0,-1.0,12.0,0.0,-20.0,-36.0,0.0
2.0,39.0,58.0,54.0,34.0,11.0,24.0,15.0,-15.0,-149.0,0.0
-18.0,47.0,89.0,67.0,46.0,39.0,45.0,25.0,5.0,-175.0,0.0
-15.0,38.0,66.0,46.0,28.0,33.0,30.0,8.0,14.0,-57.0,0.0
19.0,38.0,5.0,15.0,7.0,7.0,5.0,-22.0,-17.0,56.0,0.0
26.0,36.0,-20.0,5.0,-14.0,-20.0,-23.0,-41.0,-38.0,150.0,0.0
28.0,25.0,-3.0,1.0,-2.0,-14.0,-16.0,-33.0,-31.0,221.0,0.0
49.0,34.0,9.0,10.0,16.0,-4.0,14.0,-14.0,-8.0,166.0,0.0
36.0,31.0,13.0,12.0,19.0,-17.0,27.0,-4.0,-8.0,14.0,0.0
8.0,16.0,11.0,5.0,25.0,-19.0,28.0,12.0,-13.0,-102.0,0.0
-12.0,17.0,12.0,5.0,26.0,-8.0,23.0,13.0,-23.0,-159.0,0.0
-22.0,7.0,2.0,-2.0,14.0,-22.0,6.0,-19.0,-39.0,-189.0,0.0
-20.0,-8.0,-28.0,-7.0,9.0,-22.0,-12.0,-33.0,-32.0,-248.0,0.0
-26.0,-26.0,-32.0,-23.0,5.0,-31.0,-19.0,-31.0,-49.0,-250.0,0.0
-7.0,-19.0,-57.0,-45.0,-8.0,-27.0,0.0,-16.0,-20.0,-93.0,0.0
3.0,-15.0,-81.0,-47.0,-16.0,-26.0,10.0,-27.0,-2.0,94.0,0.0
5.0,-26.0,-77.0,-36.0,-7.0,-32.0,15.0,-31.0,-11.0,236.0,0.0
9.0,-18.0,-26.0,-7.0,0.0,-48.0,-3.0,-43.0,-36.0,306.0,0.0
34.0,13.0,16.0,19.0,10.0,-62.0,-28.0,-42.0,-50.0,214.0,0.0
71.0,57.0,40.0,39.0,26.0,-45.0,-7.0,-32.0,4.0,19.0,0.0
62.0,66.0,34.0,42.0,14.0,-32.0,-21.0,-34.0,-7.0,-115.0,0.0
42.0,73.0,51.0,56.0,11.0,-20.0,-8.0,-28.0,19.0,-185.0,0.0
14.0,64.0,74.0,47.0,1.0,-26.0,-14.0,-23.0,31.0,-151.0,0.0
-11.0,23.0,57.0,22.0,-10.0,-40.0,-33.0,-16.0,45.0,-89.0,0.0
-33.0,-8.0,8.0,-1.0,-20.0,-18.0,-20.0,-16.0,87.0,-93.0,0.0
-54.0,-40.0,-15.0,-35.0,-26.0,5.0,-15.0,-18.0,54.0,-114.0,0.0
-73.0,-46.0,-43.0,-67.0,-17.0,30.0,12.0,6.0,81.0,-93.0,0.0
-88.0,-81.0,-87.0,-86.0,-35.0,30.0,20.0,21.0,74.0,-44.0,0.0
-105.0,-114.0,-115.0,-99.0,-50.0,30.0,15.0,8.0,58.0,65.0,0.0
-79.0,-115.0,-112.0,-90.0,-44.0,28.0,45.0,15.0,104.0,205.0,0.0
-60.0,-107.0,-97.0,-80.0,-27.0,24.0,52.0,9.0,115.0,265.0,0.0
-50.0,-89.0,-65.0,-66.0,-12.0,43.0,40.0,21.0,114.0,159.0,0.0
-47.0,-65.0,-45.0,-46.0,15.0,60.0,50.0,35.0,99.0,-101.0,0.0
-59.0,-48.0,-17.0,-7.0,46.0,74.0,64.0,42.0,89.0,-308.0,0.0
-63.0,-31.0,-5.0,7.0,42.0,67.0,71.0,52.0,135.0,-217.0,0.0
-43.0,-40.0,-24.0,5.0,26.0,38.0,55.0,54.0,145.0,-86.0,0.0
-27.0,-33.0,-26.0,-5.0,15.0,18.0,28.0,49.0,108.0,-150.0,0.0
26.0,18.0,11.0,8.0,22.0,22.0,34.0,58.0,82.0,-300.0,0.0
58.0,59.0,48.0,11.0,30.0,25.0,33.0,52.0,90.0,-323.0,0.0
41.0,65.0,50.0,1.0,8.0,2.0,1.0,23.0,106.0,-159.0,0.0
40.0,48.0,30.0,-18.0,-22.0,-16.0,-23.0,-6.0,81.0,54.0,0.0
29.0,15.0,12.0,-33.0,-25.0,-19.0,-33.0,-30.0,62.0,232.0,0.0
30.0,-9.0,7.0,-42.0,-11.0,-20.0,-43.0,-45.0,35.0,335.0,0.0
96.0,41.0,46.0,-4.0,8.0,7.0,-10.0,3.0,95.0,202.0,0.0
41.0,31.0,10.0,-6.0,30.0,19.0,-6.0,6.0,-1.0,30.0,0.0
30.0,23.0,12.0,1.0,36.0,21.0,-17.0,-1.0,-36.0,-43.0,0.0
-3.0,40.0,17.0,22.0,63.0,46.0,13.0,9.0,15.0,-155.0,0.0
-22.0,5.0,17.0,5.0,60.0,17.0,-29.0,-13.0,-64.0,-237.0,0.0
-5.0,23.0,13.0,1.0,41.0,18.0,-4.0,-6.0,25.0,-190.0,0.0
24.0,47.0,37.0,17.0,67.0,44.0,23.0,8.0,59.0,-140.0,0.0
23.0,44.0,52.0,22.0,67.0,50.0,28.0,10.0,12.0,-122.0,0.0
11.0,35.0,44.0,9.0,56.0,47.0,38.0,22.0,37.0,-78.0,0.0
9.0,21.0,14.0,-7.0,35.0,50.0,22.0,10.0,30.0,-17.0,0.0
-9.0,23.0,-19.0,-21.0,24.0,53.0,16.0,16.0,60.0,24.0,0.0
-25.0,9.0,-55.0,-46.0,3.0,34.0,5.0,8.0,56.0,21.0,0.0
-23.0,-14.0,-66.0,-73.0,-24.0,-3.0,-15.0,-14.0,15.0,34.0,0.0
-22.0,-9.0,-80.0,-68.0,-30.0,0.0,-9.0,11.0,59.0,82.0,0.0
-13.0,-4.0,-66.0,-36.0,1.0,15.0,12.0,28.0,72.0,68.0,0.0
4.0,19.0,-52.0,6.0,21.0,12.0,15.0,18.0,57.0,47.0,0.0
8.0,35.0,-52.0,22.0,0.0,-9.0,-9.0,-7.0,38.0,31.0,0.0
7.0,28.0,-38.0,7.0,-19.0,-40.0,-25.0,-32.0,0.0,23.0,0.0
14.0,34.0,-30.0,4.0,-21.0,-39.0,1.0,-29.0,41.0,47.0,0.0
17.0,37.0,-20.0,-15.0,-16.0,-30.0,1.0,-5.0,40.0,62.0,0.0
13.0,32.0,-6.0,-14.0,-16.0,-26.0,-13.0,-15.0,37.0,64.0,0.0
9.0,6.0,3.0,-3.0,-11.0,-14.0,-22.0,-23.0,27.0,60.0,0.0
15.0,12.0,25.0,-13.0,-9.0,-19.0,-23.0,-38.0,-1.0,60.0,0.0
17.0,48.0,61.0,-6.0,-9.0,-23.0,-15.0,-59.0,-2.0,63.0,0.0
8.0,43.0,72.0,3.0,-14.0,-27.0,-26.0,-74.0,0.0,54.0,0.0
8.0,26.0,59.0,16.0,-8.0,-15.0,-26.0,-65.0,13.0,34.0,0.0
6.0,5.0,34.0,23.0,3.0,-10.0,-25.0,-55.0,0.0,14.0,0.0
-2.0,14.0,11.0,31.0,12.0,-16.0,-14.0,-39.0,-25.0,9.0,0.0
-12.0,46.0,9.0,27.0,11.0,-9.0,13.0,-39.0,-7.0,17.0,0.0
-23.0,43.0,27.0,23.0,-13.0,-16.0,0.0,-59.0,-13.0,14.0,0.0
-50.0,-131.0,-87.0,-70.0,-56.0,-71.0,-15.0,-96.0,-19.0,-11.0,0.0
-12.0,-128.0,-98.0,-71.0,-65.0,-45.0,-1.0,-62.0,7.0,92.0,0.0
-7.0,-127.0,-95.0,-69.0,-61.0,-42.0,-7.0,-54.0,3.0,198.0,0.0
0.0,-111.0,-92.0,-60.0,-58.0,-44.0,-26.0,-57.0,0.0,264.0,0.0
-3.0,-66.0,-84.0,-46.0,-37.0,-14.0,-7.0,-40.0,22.0,284.0,0.0
-15.0,-17.0,-46.0,-8.0,-13.0,7.0,25.0,-20.0,29.0,186.0,0.0
7.0,13.0,0.0,22.0,9.0,18.0,30.0,-7.0,31.0,13.0,0.0
-11.0,33.0,33.0,41.0,12.0,10.0,-1.0,-15.0,-8.0,-87.0,0.0
-37.0,38.0,45.0,33.0,9.0,0.0,-16.0,-26.0,-31.0,-64.0,0.0
5.0,66.0,51.0,56.0,25.0,-14.0,5.0,5.0,23.0,-73.0,0.0
19.0,55.0,50.0,48.0,27.0,-6.0,11.0,12.0,20.0,-87.0,0.0
12.0,32.0,43.0,32.0,30.0,-5.0,-4.0,0.0,-13.0,-112.0,0.0
15.0,6.0,31.0,24.0,17.0,-36.0,-47.0,-28.0,-69.0,-59.0,0.0
21.0,13.0,13.0,29.0,0.0,-27.0,-21.0,-6.0,3.0,21.0,0.0
20.0,20.0,-8.0,28.0,-12.0,-20.0,-17.0,1.0,21.0,37.0,0.0
26.0,5.0,11.0,31.0,-28.0,-29.0,-29.0,-11.0,17.0,33.0,0.0
21.0,-19.0,34.0,17.0,-29.0,-46.0,-44.0,-14.0,-9.0,25.0,0.0
17.0,-3.0,14.0,10.0,-19.0,-44.0,-48.0,-3.0,14.0,-7.0,0.0
5.0,12.0,0.0,16.0,-20.0,-19.0,-14.0,12.0,60.0,-22.0,0.0
-28.0,-1.0,0.0,7.0,0.0,10.0,25.0,40.0,64.0,-8.0,0.0
-55.0,-35.0,-26.0,-7.0,11.0,24.0,36.0,66.0,36.0,-61.0,0.0
-79.0,-67.0,-23.0,7.0,23.0,10.0,15.0,49.0,-44.0,-143.0,0.0
-72.0,-56.0,-33.0,13.0,17.0,29.0,33.0,34.0,9.0,-144.0,0.0
-73.0,-51.0,-57.0,-19.0,-20.0,11.0,-7.0,-12.0,8.0,-96.0,0.0
-46.0,-40.0,-61.0,-41.0,-36.0,-9.0,-34.0,-35.0,4.0,-33.0,0.0
-31.0,-48.0,-50.0,-50.0,-27.0,-4.0,-23.0,-24.0,-3.0,-19.0,0.0
-48.0,-68.0,-54.0,-42.0,-32.0,-4.0,-12.0,-8.0,-15.0,-25.0,0.0
-19.0,-33.0,-15.0,9.0,-37.0,9.0,-19.0,12.0,52.0,65.0,0.0
-10.0,-19.0,4.0,19.0,-27.0,1.0,-10.0,21.0,71.0,75.0,0.0
-15.0,-20.0,12.0,15.0,-30.0,-20.0,-36.0,2.0,10.0,25.0,0.0
-11.0,-17.0,15.0,-4.0,-30.0,-50.0,-83.0,-25.0,-80.0,-22.0,0.0
3.0,13.0,-2.0,-3.0,-32.0,-44.0,-53.0,-16.0,-18.0,19.0,0.0
8.0,0.0,-14.0,1.0,-37.0,-36.0,-67.0,-29.0,1.0,21.0,0.0
-12.0,-34.0,-29.0,-19.0,-39.0,-36.0,-62.0,-43.0,-3.0,-27.0,0.0
-39.0,-76.0,-75.0,-52.0,-49.0,-45.0,-64.0,-62.0,-42.0,-52.0,0.0
-44.0,-106.0,-117.0,-80.0,-49.0,-41.0,-45.0,-72.0,-37.0,-9.0,0.0
-30.0,-100.0,-161.0,-127.0,-89.0,-36.0,-33.0,-64.0,9.0,253.0,0.0
-26.0,-85.0,-152.0,-126.0,-88.0,-42.0,-33.0,-56.0,12.0,376.0,0.0
-62.0,-103.0,-148.0,-147.0,-111.0,-70.0,-96.0,-106.0,-76.0,498.0,0.0
-74.0,-131.0,-99.0,-150.0,-125.0,-107.0,-153.0,-149.0,-182.0,451.0,0.0
-42.0,-62.0,-7.0,-82.0,-73.0,-54.0,-79.0,-89.0,-56.0,229.0,0.0
1.0,-7.0,40.0,-15.0,-17.0,1.0,-12.0,-31.0,1.0,142.0,0.0
56.0,16.0,51.0,6.0,26.0,23.0,43.0,-1.0,29.0,211.0,0.0
148.0,42.0,54.0,11.0,41.0,8.0,43.0,9.0,27.0,218.0,0.0
166.0,58.0,54.0,17.0,38.0,5.0,37.0,10.0,10.0,60.0,0.0
58.0,148.0,137.0,121.0,120.0,95.0,140.0,97.0,36.0,-583.0,0.0
-20.0,155.0,165.0,137.0,144.0,123.0,162.0,112.0,26.0,-817.0,0.0
-64.0,117.0,131.0,114.0,117.0,85.0,123.0,85.0,-24.0,-615.0,0.0
-56.0,76.0,93.0,81.0,97.0,41.0,76.0,73.0,-60.0,-146.0,0.0
-22.0,85.0,70.0,92.0,109.0,73.0,119.0,124.0,84.0,78.0,0.0
-11.0,84.0,68.0,104.0,122.0,100.0,150.0,148.0,121.0,-107.0,0.0
-4.0,74.0,77.0,77.0,100.0,81.0,134.0,136.0,74.0,-231.0,0.0
-10.0,35.0,44.0,43.0,43.0,22.0,58.0,68.0,-26.0,-193.0,0.0
-19.0,14.0,13.0,21.0,14.0,2.0,23.0,30.0,-59.0,-163.0,0.0
-14.0,29.0,1.0,23.0,-17.0,9.0,10.0,10.0,-56.0,-91.0,0.0
-11.0,19.0,0.0,24.0,-28.0,-12.0,-8.0,-19.0,-73.0,-66.0,0.0
3.0,-10.0,-15.0,-3.0,-42.0,-44.0,-45.0,-39.0,-119.0,-29.0,0.0
31.0,-30.0,-27.0,-24.0,-31.0,-75.0,-83.0,-60.0,-182.0,-10.0,0.0
35.0,10.0,-23.0,-21.0,0.0,-45.0,-31.0,-53.0,-90.0,43.0,0.0
21.0,26.0,1.0,-9.0,13.0,-38.0,-18.0,-40.0,-66.0,96.0,0.0
30.0,44.0,7.0,8.0,26.0,-22.0,0.0,-34.0,-59.0,150.0,0.0
36.0,34.0,-2.0,2.0,17.0,-15.0,2.0,-37.0,-80.0,179.0,0.0
43.0,23.0,-11.0,0.0,33.0,5.0,9.0,-18.0,-75.0,128.0,0.0
18.0,11.0,27.0,35.0,54.0,46.0,56.0,37.0,6.0,-85.0,0.0
-14.0,-2.0,23.0,22.0,30.0,12.0,41.0,28.0,-16.0,-171.0,0.0
12.0,-28.0,-16.0,-15.0,-1.0,-33.0,-8.0,-23.0,-83.0,-79.0,0.0
42.0,-18.0,-21.0,-23.0,0.0,-51.0,-30.0,-42.0,-117.0,21.0,0.0
40.0,19.0,-26.0,-18.0,-18.0,-49.0,0.0,-17.0,-14.0,62.0,0.0
11.0,18.0,-54.0,-31.0,-33.0,-32.0,2.0,11.0,9.0,24.0,0.0
-30.0,-7.0,-90.0,-60.0,-36.0,-29.0,3.0,4.0,9.0,-80.0,0.0
-97.0,-59.0,-116.0,-97.0,-68.0,-66.0,-49.0,-46.0,-53.0,-179.0,0.0
-147.0,-88.0,-100.0,-100.0,-92.0,-87.0,-86.0,-90.0,-81.0,-169.0,0.0
-161.0,-106.0,-93.0,-94.0,-103.0,-100.0,-104.0,-100.0,-81.0,-72.0,0.0
-179.0,-135.0,-89.0,-81.0,-108.0,-114.0,-112.0,-108.0,-90.0,66.0,0.0
-197.0,-139.0,-69.0,-73.0,-97.0,-116.0,-101.0,-104.0,-94.0,227.0,0.0
-171.0,-122.0,-58.0,-52.0,-78.0,-111.0,-89.0,-95.0,-69.0,345.0,0.0
-77.0,-65.0,-6.0,14.0,-16.0,-67.0,-57.0,-58.0,-30.0,373.0,0.0
113.0,28.0,68.0,106.0,79.0,8.0,19.0,25.0,43.0,378.0,0.0
232.0,100.0,111.0,162.0,143.0,63.0,82.0,96.0,115.0,32.0,0.0
184.0,127.0,117.0,159.0,149.0,84.0,113.0,113.0,124.0,-263.0,0.0
94.0,100.0,74.0,118.0,82.0,56.0,97.0,105.0,102.0,-182.0,0.0
46.0,52.0,10.0,47.0,14.0,21.0,71.0,67.0,71.0,7.0,0.0
59.0,45.0,7.0,32.0,11.0,18.0,62.0,30.0,50.0,72.0,0.0
60.0,52.0,17.0,45.0,21.0,18.0,46.0,19.0,41.0,60.0,0.0
45.0,52.0,17.0,40.0,12.0,1.0,30.0,4.0,31.0,52.0,0.0
39.0,51.0,20.0,36.0,0.0,-14.0,-4.0,-17.0,14.0,47.0,0.0
41.0,38.0,18.0,27.0,-1.0,-27.0,-20.0,-21.0,-4.0,40.0,0.0
34.0,36.0,7.0,25.0,-7.0,-20.0,-13.0,-18.0,12.0,36.0,0.0
32.0,23.0,7.0,19.0,-7.0,-24.0,-14.0,-25.0,6.0,19.0,0.0
26.0,10.0,10.0,3.0,-14.0,-40.0,-21.0,-32.0,4.0,9.0,0.0
5.0,-17.0,0.0,-3.0,-13.0,-30.0,-27.0,-27.0,-16.0,3.0,0.0
-5.0,-34.0,-16.0,-3.0,-10.0,-10.0,-29.0,-25.0,-25.0,-3.0,0.0
3.0,-25.0,-30.0,-3.0,-12.0,-11.0,-30.0,-12.0,3.0,25.0,0.0
12.0,-26.0,-41.0,-4.0,-31.0,-18.0,-33.0,-31.0,0.0,99.0,0.0
0.0,-50.0,-50.0,-25.0,-41.0,-29.0,-27.0,-54.0,-9.0,143.0,0.0
-7.0,-71.0,-68.0,-42.0,-60.0,-40.0,-33.0,-62.0,-14.0,126.0,0.0
-24.0,-83.0,-84.0,-38.0,-75.0,-50.0,-46.0,-55.0,-22.0,73.0,0.0
-23.0,-100.0,-92.0,-40.0,-84.0,-68.0,-69.0,-58.0,-33.0,20.0,0.0
-27.0,-106.0,-93.0,-54.0,-79.0,-79.0,-82.0,-71.0,-39.0,-5.0,0.0
-16.0,-74.0,-97.0,-66.0,-67.0,-64.0,-80.0,-57.0,-40.0,32.0,0.0
-2.0,-53.0,-79.0,-57.0,-54.0,-38.0,-59.0,-30.0,-31.0,107.0,0.0
18.0,-17.0,-26.0,-2.0,-26.0,-17.0,-27.0,7.0,27.0,180.0,0.0
32.0,35.0,44.0,61.0,10.0,2.0,2.0,30.0,46.0,181.0,0.0
47.0,58.0,106.0,106.0,41.0,21.0,31.0,35.0,50.0,159.0,0.0
74.0,71.0,107.0,120.0,58.0,58.0,59.0,50.0,78.0,86.0,0.0
67.0,75.0,79.0,101.0,46.0,49.0,47.0,36.0,49.0,-137.0,0.0
49.0,67.0,53.0,80.0,48.0,24.0,16.0,36.0,12.0,-316.0,0.0
20.0,70.0,37.0,74.0,55.0,17.0,22.0,57.0,41.0,-317.0,0.0
12.0,62.0,22.0,79.0,41.0,3.0,18.0,57.0,33.0,-231.0,0.0
10.0,44.0,4.0,73.0,25.0,-12.0,16.0,45.0,34.0,-145.0,0.0
-11.0,1.0,-18.0,42.0,21.0,-6.0,10.0,42.0,44.0,-93.0,0.0
-40.0,-36.0,-32.0,1.0,3.0,-1.0,8.0,30.0,15.0,-72.0,0.0
-47.0,-62.0,-45.0,-32.0,-16.0,-4.0,25.0,21.0,32.0,-43.0,0.0
-55.0,-96.0,-69.0,-66.0,-6.0,20.0,25.0,28.0,33.0,-23.0,0.0
-52.0,-108.0,-52.0,-48.0,1.0,30.0,24.0,30.0,41.0,-11.0,0.0
-43.0,-102.0,-45.0,-14.0,2.0,24.0,29.0,18.0,41.0,-8.0,0.0
-26.0,-78.0,-39.0,8.0,2.0,14.0,19.0,3.0,29.0,12.0,0.0
-10.0,-48.0,-25.0,-1.0,0.0,-1.0,-1.0,-2.0,19.0,14.0,0.0
-2.0,-41.0,-43.0,10.0,-4.0,-7.0,-20.0,-2.0,23.0,7.0,0.0
-4.0,-51.0,-54.0,16.0,2.0,-3.0,-17.0,1.0,17.0,17.0,0.0
7.0,-31.0,-34.0,30.0,13.0,-1.0,-35.0,-17.0,3.0,18.0,0.0
19.0,-6.0,-16.0,22.0,12.0,-6.0,-44.0,-18.0,0.0,24.0,0.0
26.0,19.0,-5.0,26.0,7.0,-24.0,-65.0,-31.0,3.0,23.0,0.0
30.0,30.0,17.0,12.0,-11.0,-49.0,-88.0,-44.0,0.0,-6.0,0.0
8.0,19.0,13.0,-9.0,-24.0,-60.0,-88.0,-43.0,12.0,34.0,0.0
-11.0,-23.0,-23.0,-40.0,-37.0,-52.0,-63.0,-25.0,19.0,124.0,0.0
-6.0,-54.0,-51.0,-61.0,-56.0,-49.0,-42.0,0.0,24.0,157.0,0.0
-6.0,-58.0,-70.0,-69.0,-67.0,-59.0,-36.0,-6.0,15.0,89.0,0.0
-16.0,-34.0,-60.0,-80.0,-67.0,-67.0,-48.0,-30.0,-20.0,5.0,0.0
-17.0,-14.0,-18.0,-63.0,-54.0,-50.0,-55.0,-26.0,-18.0,-4.0,0.0
-17.0,-31.0,-5.0,-48.0,-42.0,-39.0,-47.0,-12.0,-12.0,51.0,0.0
0.0,-29.0,-42.0,-35.0,-21.0,-3.0,-18.0,37.0,49.0,38.0,0.0
11.0,6.0,-14.0,0.0,4.0,35.0,40.0,78.0,84.0,-35.0,0.0
0.0,24.0,7.0,9.0,15.0,40.0,57.0,78.0,51.0,43.0,0.0
-11.0,38.0,21.0,13.0,11.0,38.0,46.0,53.0,15.0,141.0,0.0
-2.0,56.0,42.0,25.0,22.0,48.0,49.0,59.0,12.0,80.0,0.0
18.0,67.0,68.0,44.0,37.0,52.0,60.0,55.0,12.0,-96.0,0.0
14.0,32.0,23.0,22.0,22.0,37.0,36.0,38.0,8.0,-103.0,0.0
6.0,-18.0,-24.0,-18.0,-12.0,2.0,2.0,16.0,-14.0,-4.0,0.0
-4.0,-60.0,-60.0,-44.0,-42.0,-28.0,-28.0,-19.0,-42.0,22.0,0.0
-35.0,-80.0,-119.0,-82.0,-70.0,-56.0,-58.0,-46.0,-66.0,-23.0,0.0
-52.0,-97.0,-158.0,-116.0,-99.0,-75.0,-94.0,-65.0,-84.0,8.0,0.0
-38.0,-116.0,-165.0,-137.0,-108.0,-91.0,-117.0,-90.0,-105.0,129.0,0.0
0.0,-104.0,-153.0,-133.0,-100.0,-85.0,-94.0,-72.0,-109.0,299.0,0.0
32.0,-58.0,-114.0,-103.0,-77.0,-67.0,-57.0,-44.0,-90.0,451.0,0.0
28.0,-12.0,-35.0,-42.0,-33.0,-41.0,-30.0,-9.0,-78.0,407.0,0.0
0.0,22.0,45.0,36.0,23.0,1.0,3.0,19.0,-52.0,213.0,0.0
-11.0,44.0,80.0,100.0,83.0,49.0,52.0,50.0,-8.0,-50.0,0.0
-7.0,76.0,101.0,122.0,136.0,82.0,70.0,74.0,6.0,-367.0,0.0
9.0,111.0,141.0,138.0,150.0,94.0,83.0,89.0,31.0,-469.0,0.0
27.0,95.0,155.0,132.0,152.0,101.0,94.0,84.0,8.0,-426.0,0.0
15.0,47.0,108.0,100.0,120.0,88.0,87.0,79.0,-11.0,-408.0,0.0
-32.0,48.0,106.0,101.0,68.0,57.0,65.0,66.0,-5.0,-342.0,0.0
-45.0,81.0,139.0,127.0,54.0,50.0,51.0,73.0,-10.0,-307.0,0.0
-14.0,94.0,130.0,104.0,36.0,46.0,51.0,69.0,-1.0,-226.0,0.0
9.0,83.0,79.0,73.0,19.0,36.0,55.0,61.0,7.0,-80.0,0.0
37.0,59.0,40.0,43.0,9.0,25.0,43.0,59.0,17.0,49.0,0.0
47.0,37.0,8.0,18.0,11.0,19.0,27.0,44.0,17.0,121.0,0.0
31.0,20.0,-24.0,0.0,31.0,2.0,18.0,23.0,0.0,127.0,0.0
7.0,-2.0,-27.0,-19.0,23.0,-2.0,17.0,22.0,-7.0,107.0,0.0
-4.0,-1.0,-19.0,-37.0,-15.0,-6.0,22.0,18.0,-16.0,63.0,0.0
-20.0,7.0,-10.0,-46.0,-54.0,-32.0,10.0,-14.0,-31.0,6.0,0.0
-106.0,-21.0,-30.0,-40.0,-43.0,-76.0,-37.0,-34.0,-66.0,-119.0,0.0
-135.0,-21.0,-22.0,-39.0,-25.0,-49.0,-24.0,-18.0,-72.0,-162.0,0.0
-134.0,-47.0,-10.0,-43.0,-12.0,-44.0,-43.0,-43.0,-140.0,-176.0,0.0
-56.0,-37.0,4.0,-51.0,-7.0,-43.0,-77.0,-61.0,-195.0,-73.0,0.0
21.0,17.0,-5.0,-47.0,-5.0,-18.0,-24.0,-36.0,-82.0,89.0,0.0
58.0,6.0,-36.0,-57.0,-18.0,-27.0,-21.0,-39.0,-47.0,284.0,0.0
96.0,12.0,-37.0,-49.0,-10.0,-34.0,-17.0,-17.0,-17.0,354.0,0.0
135.0,31.0,-17.0,-14.0,17.0,-9.0,2.0,6.0,-28.0,140.0,0.0
160.0,88.0,31.0,40.0,48.0,31.0,40.0,35.0,13.0,-145.0,0.0
116.0,130.0,77.0,67.0,63.0,41.0,67.0,48.0,32.0,-221.0,0.0
28.0,129.0,101.0,60.0,64.0,19.0,50.0,38.0,18.0,-177.0,0.0
13.0,101.0,101.0,51.0,48.0,5.0,23.0,30.0,23.0,-89.0,0.0
14.0,76.0,96.0,47.0,26.0,-14.0,-4.0,2.0,4.0,-71.0,0.0
10.0,75.0,90.0,52.0,11.0,-34.0,-36.0,-27.0,-19.0,-42.0,0.0
5.0,62.0,69.0,36.0,0.0,-30.0,-46.0,-38.0,-18.0,-12.0,0.0
1.0,19.0,31.0,12.0,-2.0,-20.0,-15.0,-15.0,-11.0,6.0,0.0
1.0,-8.0,16.0,11.0,-9.0,-23.0,-17.0,-18.0,-3.0,17.0,0.0
-1.0,-26.0,7.0,10.0,-21.0,-16.0,-21.0,-26.0,-4.0,7.0,0.0
-10.0,-46.0,-24.0,-14.0,-45.0,-13.0,-15.0,-30.0,-14.0,9.0,0.0
-5.0,-59.0,-55.0,-58.0,-66.0,-16.0,-15.0,-48.0,-21.0,66.0,0.0
-5.0,-81.0,-87.0,-88.0,-81.0,-33.0,-29.0,-60.0,-32.0,124.0,0.0
17.0,-89.0,-127.0,-92.0,-80.0,-33.0,-20.0,-54.0,-38.0,172.0,0.0
35.0,-78.0,-113.0,-60.0,-82.0,-54.0,-31.0,-75.0,-54.0,225.0,0.0
31.0,-70.0,-80.0,-45.0,-84.0,-72.0,-48.0,-78.0,-57.0,247.0,0.0
47.0,-59.0,-79.0,-35.0,-76.0,-72.0,-43.0,-52.0,-41.0,287.0,0.0
61.0,-41.0,-83.0,-51.0,-54.0,-86.0,-38.0,-48.0,-62.0,264.0,0.0
67.0,0.0,-59.0,-22.0,-23.0,-52.0,8.0,-15.0,-40.0,152.0,0.0
48.0,23.0,-26.0,13.0,19.0,-20.0,12.0,-9.0,-53.0,-10.0,0.0
19.0,57.0,14.0,43.0,36.0,44.0,18.0,9.0,-37.0,-106.0,0.0
-34.0,79.0,32.0,64.0,33.0,98.0,38.0,28.0,-4.0,-124.0,0.0
-67.0,83.0,26.0,43.0,8.0,54.0,23.0,7.0,-20.0,-190.0,0.0
-67.0,84.0,13.0,37.0,14.0,23.0,19.0,-8.0,-16.0,-224.0,0.0
-58.0,66.0,4.0,49.0,21.0,12.0,-1.0,-26.0,-33.0,-217.0,0.0
-34.0,70.0,18.0,72.0,29.0,29.0,2.0,-6.0,-21.0,-213.0,0.0
-26.0,93.0,49.0,94.0,46.0,49.0,27.0,22.0,16.0,-192.0,0.0
-18.0,84.0,70.0,92.0,53.0,59.0,34.0,26.0,20.0,-177.0,0.0
-11.0,60.0,64.0,71.0,39.0,56.0,25.0,12.0,3.0,-137.0,0.0
-13.0,22.0,60.0,47.0,6.0,35.0,-13.0,-9.0,-21.0,-93.0,0.0
0.0,-4.0,58.0,39.0,-14.0,20.0,-26.0,-26.0,-15.0,-49.0,0.0
12.0,-14.0,26.0,32.0,-17.0,22.0,-18.0,-11.0,15.0,-11.0,0.0
7.0,-22.0,-9.0,17.0,18.0,43.0,14.0,14.0,32.0,4.0,0.0
-11.0,-59.0,-47.0,-15.0,45.0,75.0,43.0,30.0,37.0,-1.0,0.0
-44.0,-101.0,-62.0,-41.0,-3.0,68.0,25.0,27.0,7.0,-12.0,0.0
-39.0,-95.0,-77.0,-52.0,-31.0,41.0,29.0,41.0,34.0,13.0,0.0
-25.0,-73.0,-82.0,-45.0,-36.0,35.0,39.0,40.0,43.0,23.0,0.0
-40.0,-60.0,-67.0,-25.0,-21.0,31.0,27.0,17.0,24.0,5.0,0.0
-51.0,-52.0,-48.0,-14.0,-10.0,38.0,33.0,8.0,17.0,3.0,0.0
-53.0,-60.0,-9.0,-18.0,-6.0,42.0,25.0,-10.0,-14.0,-7.0,0.0
-49.0,-50.0,9.0,-16.0,-2.0,22.0,16.0,-16.0,0.0,-8.0,0.0
-37.0,-46.0,13.0,-15.0,0.0,15.0,1.0,-13.0,20.0,5.0,0.0
-17.0,-53.0,3.0,-17.0,-6.0,5.0,-15.0,-3.0,15.0,10.0,0.0
0.0,-39.0,-7.0,-19.0,-6.0,5.0,-7.0,-2.0,31.0,1.0,0.0
-11.0,-51.0,-31.0,-38.0,-21.0,-13.0,-27.0,-22.0,-11.0,-67.0,0.0
-29.0,-70.0,-81.0,-70.0,-49.0,-42.0,-56.0,-43.0,-18.0,-102.0,0.0
-20.0,-47.0,-68.0,-90.0,-74.0,-72.0,-68.0,-60.0,0.0,-22.0,0.0
-3.0,-34.0,-43.0,-76.0,-72.0,-83.0,-78.0,-63.0,0.0,103.0,0.0
23.0,-40.0,-34.0,-72.0,-56.0,-79.0,-101.0,-62.0,-7.0,250.0,0.0
34.0,-34.0,-36.0,-62.0,-40.0,-75.0,-101.0,-60.0,-31.0,371.0,0.0
46.0,-13.0,-35.0,-43.0,-23.0,-46.0,-59.0,-24.0,12.0,435.0,0.0
60.0,18.0,-14.0,-31.0,29.0,34.0,23.0,30.0,53.0,54.0,0.0
-5.0,7.0,50.0,17.0,67.0,51.0,20.0,56.0,-26.0,-303.0,0.0
-26.0,-22.0,57.0,9.0,61.0,33.0,-23.0,33.0,-95.0,-140.0,0.0
-38.0,-7.0,53.0,18.0,54.0,53.0,40.0,72.0,45.0,-19.0,0.0
-62.0,-9.0,60.0,21.0,54.0,45.0,16.0,77.0,-6.0,-151.0,0.0
-53.0,23.0,73.0,40.0,73.0,56.0,37.0,94.0,63.0,-268.0,0.0
-29.0,47.0,56.0,35.0,63.0,53.0,30.0,73.0,72.0,-224.0,0.0
41.0,69.0,53.0,22.0,62.0,55.0,28.0,59.0,59.0,-97.0,0.0
104.0,90.0,73.0,18.0,65.0,57.0,37.0,54.0,70.0,-36.0,0.0
62.0,46.0,49.0,-17.0,31.0,36.0,29.0,26.0,35.0,-87.0,0.0
0.0,-6.0,-1.0,-50.0,-8.0,11.0,11.0,23.0,38.0,-52.0,0.0
12.0,-12.0,3.0,-46.0,-4.0,-3.0,-10.0,6.0,19.0,81.0,0.0
24.0,0.0,27.0,-14.0,14.0,10.0,-3.0,23.0,26.0,93.0,0.0
15.0,15.0,41.0,1.0,19.0,22.0,18.0,35.0,65.0,49.0,0.0
12.0,5.0,25.0,3.0,4.0,11.0,21.0,37.0,58.0,35.0,0.0
5.0,-17.0,1.0,-8.0,-6.0,2.0,20.0,48.0,59.0,39.0,0.0
2.0,-30.0,-15.0,-24.0,-13.0,-12.0,-1.0,29.0,33.0,48.0,0.0
-16.0,-39.0,-36.0,-41.0,-24.0,-32.0,-23.0,1.0,12.0,39.0,0.0
-35.0,-48.0,-67.0,-54.0,-38.0,-40.0,-36.0,-16.0,32.0,52.0,0.0
-40.0,-46.0,-79.0,-45.0,-45.0,-53.0,-49.0,-31.0,12.0,67.0,0.0
-38.0,-42.0,-74.0,-41.0,-65.0,-65.0,-56.0,-54.0,-16.0,179.0,0.0
-11.0,-55.0,-86.0,-62.0,-88.0,-75.0,-80.0,-77.0,-41.0,331.0,0.0
-3.0,-92.0,-135.0,-101.0,-101.0,-86.0,-98.0,-94.0,-44.0,416.0,0.0
-6.0,-129.0,-186.0,-131.0,-123.0,-104.0,-116.0,-116.0,-50.0,518.0,0.0
12.0,-140.0,-185.0,-142.0,-139.0,-102.0,-117.0,-118.0,-53.0,605.0,0.0
-4.0,-80.0,-102.0,-86.0,-95.0,-60.0,-92.0,-79.0,-20.0,518.0,0.0
-24.0,3.0,1.0,-14.0,-46.0,-34.0,-60.0,-39.0,-4.0,148.0,0.0
2.0,63.0,42.0,24.0,-43.0,-51.0,-66.0,-28.0,-7.0,-153.0,0.0
30.0,88.0,82.0,67.0,-10.0,-36.0,-59.0,-20.0,0.0,-157.0,0.0
42.0,128.0,152.0,139.0,69.0,20.0,6.0,38.0,60.0,-169.0,0.0
57.0,200.0,222.0,220.0,170.0,104.0,95.0,121.0,115.0,-364.0,0.0
76.0,230.0,248.0,268.0,216.0,143.0,158.0,176.0,114.0,-590.0,0.0
84.0,227.0,235.0,255.0,204.0,124.0,168.0,172.0,135.0,-621.0,0.0
84.0,201.0,189.0,210.0,184.0,115.0,147.0,144.0,135.0,-539.0,0.0
61.0,157.0,132.0,155.0,141.0,107.0,119.0,109.0,94.0,-344.0,0.0
4.0,93.0,93.0,93.0,104.0,86.0,92.0,81.0,59.0,-224.0,0.0
-24.0,26.0,39.0,30.0,56.0,59.0,61.0,52.0,12.0,-158.0,0.0
-24.0,7.0,-25.0,-10.0,28.0,55.0,78.0,40.0,14.0,-92.0,0.0
-36.0,-6.0,-48.0,-42.0,13.0,53.0,111.0,43.0,15.0,-60.0,0.0
-28.0,-20.0,-39.0,-32.0,7.0,45.0,100.0,49.0,1.0,-35.0,0.0
-7.0,-8.0,-24.0,14.0,8.0,19.0,76.0,30.0,3.0,-1.0,0.0
6.0,15.0,0.0,45.0,13.0,0.0,43.0,-2.0,-12.0,16.0,0.0
8.0,28.0,43.0,59.0,3.0,-15.0,22.0,-35.0,-25.0,42.0,0.0
4.0,13.0,46.0,43.0,-2.0,-13.0,10.0,-47.0,-25.0,56.0,0.0
-14.0,-21.0,9.0,15.0,-6.0,6.0,22.0,-38.0,-23.0,66.0,0.0
-30.0,-48.0,-40.0,-16.0,-15.0,11.0,42.0,-29.0,-19.0,69.0,0.0
-35.0,-58.0,-69.0,-27.0,-15.0,18.0,30.0,-20.0,-13.0,68.0,0.0
-41.0,-48.0,-25.0,-20.0,-17.0,16.0,9.0,-11.0,8.0,64.0,0.0
-39.0,-33.0,14.0,-14.0,-16.0,1.0,-3.0,-12.0,17.0,61.0,0.0
-51.0,-37.0,12.0,-20.0,-24.0,0.0,-3.0,-32.0,13.0,40.0,0.0
-45.0,-40.0,-5.0,-26.0,-25.0,19.0,18.0,-22.0,16.0,42.0,0.0
-35.0,-33.0,1.0,-42.0,-26.0,8.0,16.0,-34.0,-11.0,43.0,0.0
-30.0,-24.0,-1.0,-47.0,-28.0,-7.0,2.0,-47.0,-11.0,52.0,0.0
-22.0,-23.0,-23.0,-43.0,-27.0,4.0,12.0,-42.0,9.0,72.0,0.0
-19.0,-25.0,-17.0,-32.0,-21.0,13.0,7.0,-53.0,21.0,68.0,0.0
-7.0,-14.0,0.0,-15.0,-28.0,14.0,2.0,-67.0,19.0,63.0,0.0
-1.0,-14.0,0.0,-22.0,-29.0,23.0,9.0,-51.0,20.0,64.0,0.0
-2.0,-16.0,-16.0,-46.0,-30.0,31.0,2.0,-27.0,33.0,62.0,0.0
0.0,-4.0,-32.0,-72.0,-46.0,35.0,0.0,-31.0,34.0,60.0,0.0
25.0,-6.0,-47.0,-70.0,-44.0,18.0,-11.0,-37.0,29.0,51.0,0.0
42.0,13.0,-56.0,-63.0,-24.0,4.0,-6.0,-35.0,23.0,46.0,0.0
53.0,32.0,-69.0,-69.0,-25.0,5.0,-17.0,-50.0,-3.0,34.0,0.0
56.0,22.0,-78.0,-81.0,-36.0,-3.0,-30.0,-66.0,-6.0,21.0,0.0
40.0,8.0,-86.0,-103.0,-54.0,-23.0,-46.0,-85.0,-16.0,39.0,0.0
58.0,13.0,-88.0,-95.0,-60.0,-49.0,-63.0,-78.0,-12.0,106.0,0.0
83.0,9.0,-85.0,-83.0,-74.0,-69.0,-91.0,-101.0,-21.0,152.0,0.0
77.0,-14.0,-78.0,-73.0,-70.0,-75.0,-108.0,-113.0,-39.0,190.0,0.0
53.0,-30.0,-77.0,-44.0,-68.0,-75.0,-96.0,-115.0,-30.0,215.0,0.0
36.0,-38.0,-86.0,-29.0,-58.0,-66.0,-72.0,-99.0,2.0,239.0,0.0
9.0,-68.0,-94.0,-55.0,-39.0,-37.0,-33.0,-49.0,40.0,236.0,0.0
-28.0,-87.0,-78.0,-55.0,-42.0,-16.0,-7.0,-25.0,20.0,118.0,0.0
-59.0,-35.0,-18.0,-23.0,-30.0,-10.0,5.0,-35.0,-18.0,-67.0,0.0
-91.0,36.0,58.0,26.0,-6.0,13.0,11.0,-28.0,-42.0,-204.0,0.0
-72.0,68.0,131.0,80.0,47.0,69.0,46.0,5.0,2.0,-272.0,0.0
-17.0,77.0,185.0,128.0,96.0,127.0,92.0,57.0,41.0,-322.0,0.0
-81.0,55.0,170.0,143.0,118.0,131.0,109.0,72.0,9.0,-378.0,0.0
-144.0,1.0,112.0,102.0,68.0,72.0,27.0,2.0,-73.0,-287.0,0.0
-68.0,3.0,84.0,85.0,19.0,37.0,-15.0,-8.0,-44.0,65.0,0.0
46.0,52.0,89.0,95.0,24.0,43.0,4.0,49.0,70.0,340.0,0.0
70.0,39.0,69.0,58.0,8.0,17.0,-17.0,41.0,63.0,283.0,0.0
60.0,9.0,17.0,32.0,22.0,4.0,-11.0,27.0,41.0,91.0,0.0
42.0,-5.0,-17.0,3.0,6.0,3.0,2.0,28.0,30.0,27.0,0.0
4.0,-9.0,-29.0,-41.0,-20.0,-2.0,4.0,25.0,12.0,-20.0,0.0
-17.0,8.0,-15.0,-37.0,-25.0,11.0,11.0,39.0,10.0,-137.0,0.0
-35.0,32.0,6.0,0.0,-16.0,14.0,13.0,34.0,-4.0,-203.0,0.0
-47.0,40.0,30.0,30.0,6.0,3.0,-3.0,23.0,-25.0,-198.0,0.0
-50.0,56.0,52.0,52.0,41.0,0.0,-1.0,21.0,-23.0,-185.0,0.0
-31.0,40.0,57.0,59.0,55.0,9.0,11.0,12.0,-26.0,-147.0,0.0
-3.0,7.0,23.0,39.0,22.0,17.0,27.0,31.0,-20.0,-57.0,0.0
23.0,-5.0,-4.0,8.0,-32.0,19.0,29.0,50.0,-13.0,-1.0,0.0
26.0,-16.0,-23.0,-20.0,-57.0,11.0,23.0,46.0,-21.0,13.0,0.0
23.0,-8.0,-27.0,-38.0,-50.0,11.0,19.0,47.0,-29.0,17.0,0.0
15.0,-11.0,-9.0,-36.0,-37.0,0.0,21.0,41.0,-44.0,15.0,0.0
11.0,-13.0,-6.0,-37.0,-30.0,-7.0,24.0,28.0,-49.0,12.0,0.0
24.0,2.0,-4.0,-38.0,-24.0,-8.0,5.0,20.0,-51.0,21.0,0.0
29.0,38.0,13.0,-26.0,-25.0,-25.0,-16.0,7.0,-67.0,26.0,0.0
20.0,46.0,25.0,-30.0,-35.0,-21.0,-37.0,0.0,-70.0,18.0,0.0
4.0,17.0,25.0,-44.0,-32.0,-20.0,-35.0,-5.0,-75.0,0.0,0.0
-12.0,-11.0,12.0,-42.0,-20.0,-32.0,-17.0,1.0,-77.0,-4.0,0.0
4.0,-19.0,-5.0,-31.0,-15.0,-26.0,-20.0,16.0,-81.0,3.0,0.0
22.0,-36.0,-31.0,-38.0,-12.0,-5.0,-12.0,11.0,-72.0,13.0,0.0
24.0,-36.0,-32.0,-35.0,-2.0,0.0,-1.0,11.0,-56.0,28.0,0.0
19.0,-52.0,-43.0,-31.0,15.0,-3.0,3.0,27.0,-50.0,35.0,0.0
7.0,-61.0,-57.0,-26.0,14.0,3.0,15.0,37.0,-49.0,31.0,0.0
-6.0,-54.0,-44.0,-17.0,12.0,9.0,25.0,40.0,-29.0,31.0,0.0
-9.0,-30.0,-38.0,-5.0,2.0,-2.0,18.0,53.0,-24.0,34.0,0.0
-13.0,0.0,-31.0,-24.0,-13.0,1.0,-1.0,27.0,-46.0,9.0,0.0
-14.0,33.0,-6.0,-20.0,-21.0,-6.0,-17.0,6.0,-67.0,-5.0,0.0
0.0,41.0,19.0,2.0,-7.0,-9.0,-17.0,-1.0,-63.0,-2.0,0.0
7.0,39.0,25.0,19.0,-3.0,0.0,-20.0,6.0,-63.0,-4.0,0.0
14.0,40.0,22.0,26.0,-10.0,7.0,-21.0,14.0,-66.0,2.0,0.0
26.0,55.0,24.0,24.0,-9.0,-1.0,-39.0,8.0,-71.0,10.0,0.0
29.0,63.0,37.0,22.0,-6.0,-14.0,-49.0,-8.0,-68.0,12.0,0.0
14.0,46.0,28.0,16.0,6.0,-8.0,-40.0,-9.0,-70.0,5.0,0.0
-12.0,12.0,6.0,8.0,2.0,0.0,-23.0,-4.0,-65.0,-7.0,0.0
-27.0,-6.0,-2.0,7.0,4.0,16.0,-13.0,19.0,-59.0,-2.0,0.0
-16.0,0.0,13.0,9.0,0.0,12.0,-15.0,25.0,-54.0,2.0,0.0
4.0,16.0,37.0,13.0,-2.0,0.0,-23.0,4.0,-54.0,20.0,0.0
6.0,21.0,33.0,5.0,-1.0,-4.0,-22.0,7.0,-58.0,24.0,0.0
3.0,29.0,37.0,7.0,0.0,8.0,-7.0,10.0,-47.0,9.0,0.0
-5.0,25.0,55.0,11.0,3.0,22.0,17.0,27.0,-29.0,-6.0,0.0
1.0,20.0,42.0,-4.0,0.0,13.0,18.0,23.0,-36.0,-7.0,0.0
23.0,25.0,28.0,-6.0,-11.0,7.0,9.0,15.0,-29.0,17.0,0.0
25.0,16.0,18.0,-9.0,-7.0,2.0,6.0,13.0,-9.0,16.0,0.0
-7.0,-22.0,-15.0,-24.0,10.0,5.0,18.0,37.0,6.0,7.0,0.0
-30.0,-24.0,-35.0,-31.0,10.0,16.0,16.0,50.0,19.0,6.0,0.0
-27.0,-8.0,-28.0,-32.0,5.0,5.0,11.0,35.0,26.0,10.0,0.0
-16.0,2.0,-13.0,-34.0,-17.0,5.0,0.0,16.0,22.0,44.0,0.0
-19.0,-11.0,-29.0,-40.0,-38.0,0.0,-11.0,11.0,0.0,61.0,0.0
-28.0,-47.0,-58.0,-57.0,-38.0,-3.0,14.0,-4.0,-8.0,53.0,0.0
-27.0,-58.0,-64.0,-53.0,-37.0,-1.0,32.0,0.0,-13.0,35.0,0.0
-12.0,-32.0,-34.0,-45.0,-35.0,-1.0,23.0,1.0,-17.0,15.0,0.0
-2.0,6.0,0.0,-34.0,-25.0,-4.0,10.0,7.0,-20.0,-10.0,0.0
-11.0,21.0,7.0,-17.0,-19.0,-8.0,18.0,19.0,-5.0,-42.0,0.0
-29.0,22.0,21.0,-20.0,-14.0,19.0,30.0,31.0,10.0,-76.0,0.0
-29.0,21.0,19.0,-14.0,-9.0,46.0,27.0,29.0,3.0,-105.0,0.0
-25.0,14.0,12.0,-16.0,-8.0,43.0,53.0,33.0,17.0,-123.0,0.0
-16.0,14.0,-22.0,-34.0,-6.0,36.0,72.0,47.0,35.0,-98.0,0.0
18.0,24.0,-26.0,-36.0,-10.0,32.0,66.0,50.0,31.0,-52.0,0.0
35.0,21.0,-29.0,-28.0,-17.0,17.0,54.0,40.0,26.0,-10.0,0.0
38.0,15.0,-12.0,-21.0,-25.0,17.0,47.0,41.0,25.0,-4.0,0.0
41.0,13.0,0.0,-4.0,-9.0,19.0,45.0,37.0,31.0,-4.0,0.0
41.0,24.0,9.0,4.0,7.0,13.0,29.0,33.0,15.0,-11.0,0.0
32.0,27.0,25.0,24.0,10.0,3.0,9.0,23.0,3.0,0.0,0.0
26.0,26.0,28.0,34.0,22.0,17.0,3.0,25.0,3.0,7.0,0.0
16.0,14.0,28.0,34.0,26.0,29.0,3.0,17.0,-5.0,2.0,0.0
17.0,-2.0,30.0,19.0,23.0,24.0,7.0,14.0,-19.0,-5.0,0.0
9.0,-4.0,28.0,5.0,12.0,0.0,6.0,3.0,-17.0,-11.0,0.0
8.0,6.0,36.0,18.0,9.0,-11.0,-15.0,3.0,-4.0,-24.0,0.0
11.0,10.0,35.0,18.0,1.0,-19.0,-24.0,-2.0,1.0,-26.0,0.0
6.0,-5.0,25.0,4.0,10.0,-11.0,-10.0,30.0,17.0,-16.0,0.0
3.0,-15.0,12.0,-19.0,9.0,-2.0,1.0,33.0,17.0,-9.0,0.0
0.0,-21.0,12.0,-16.0,0.0,-25.0,5.0,6.0,21.0,-5.0,0.0
-8.0,-35.0,17.0,-10.0,3.0,-22.0,-1.0,4.0,29.0,-1.0,0.0
-16.0,-45.0,15.0,-19.0,6.0,5.0,3.0,24.0,30.0,-8.0,0.0
5.0,-43.0,14.0,-28.0,8.0,9.0,8.0,31.0,25.0,5.0,0.0
15.0,-43.0,9.0,-36.0,12.0,15.0,10.0,24.0,25.0,23.0,0.0
14.0,-32.0,4.0,-11.0,15.0,26.0,27.0,36.0,35.0,4.0,0.0
24.0,1.0,16.0,8.0,16.0,33.0,36.0,28.0,43.0,-17.0,0.0
65.0,14.0,29.0,23.0,17.0,13.0,17.0,5.0,36.0,-24.0,0.0
107.0,14.0,49.0,40.0,20.0,2.0,3.0,1.0,29.0,-12.0,0.0
95.0,26.0,45.0,44.0,28.0,22.0,0.0,13.0,18.0,-13.0,0.0
68.0,30.0,33.0,44.0,30.0,49.0,5.0,26.0,7.0,-12.0,0.0
39.0,27.0,21.0,42.0,20.0,45.0,18.0,23.0,5.0,-4.0,0.0
13.0,20.0,39.0,59.0,20.0,34.0,6.0,25.0,11.0,-23.0,0.0
1.0,17.0,50.0,64.0,11.0,19.0,-6.0,8.0,9.0,-45.0,0.0
-13.0,40.0,55.0,35.0,-3.0,-15.0,-38.0,-17.0,-10.0,-22.0,0.0
-42.0,50.0,76.0,32.0,-14.0,-34.0,-60.0,-42.0,-17.0,23.0,0.0
-45.0,32.0,82.0,31.0,-14.0,-24.0,-56.0,-34.0,-16.0,51.0,0.0
-24.0,5.0,46.0,17.0,-7.0,-7.0,-34.0,-17.0,-7.0,67.0,0.0
-6.0,-14.0,8.0,7.0,-18.0,12.0,2.0,10.0,11.0,118.0,0.0
9.0,-1.0,2.0,11.0,-16.0,36.0,12.0,30.0,31.0,129.0,0.0
0.0,11.0,16.0,12.0,-2.0,36.0,24.0,20.0,25.0,52.0,0.0
-4.0,1.0,10.0,9.0,3.0,38.0,33.0,10.0,27.0,30.0,0.0
-22.0,-8.0,-25.0,-1.0,-3.0,37.0,17.0,8.0,4.0,12.0,0.0
-37.0,-18.0,-35.0,-11.0,0.0,35.0,5.0,0.0,-18.0,13.0,0.0
-42.0,-30.0,-28.0,-11.0,6.0,34.0,28.0,8.0,21.0,52.0,0.0
-38.0,-6.0,0.0,-9.0,10.0,24.0,40.0,18.0,36.0,19.0,0.0
-23.0,0.0,11.0,3.0,17.0,15.0,37.0,28.0,5.0,-72.0,0.0
-1.0,-3.0,0.0,-6.0,24.0,33.0,38.0,27.0,17.0,-57.0,0.0
-4.0,9.0,-14.0,-18.0,41.0,61.0,51.0,40.0,29.0,-45.0,0.0
-13.0,9.0,-29.0,-14.0,42.0,63.0,55.0,60.0,-6.0,-94.0,0.0
15.0,0.0,-32.0,-12.0,19.0,49.0,37.0,58.0,-5.0,-90.0,0.0
40.0,0.0,-23.0,-8.0,-1.0,18.0,2.0,33.0,12.0,-33.0,0.0
71.0,16.0,10.0,-14.0,-6.0,-2.0,-25.0,-5.0,5.0,62.0,0.0
67.0,28.0,39.0,-22.0,0.0,-8.0,-29.0,-17.0,1.0,86.0,0.0
72.0,25.0,45.0,-32.0,6.0,-29.0,-49.0,-14.0,-29.0,61.0,0.0
77.0,61.0,71.0,-24.0,6.0,-43.0,-46.0,-17.0,-33.0,69.0,0.0
59.0,69.0,82.0,-17.0,10.0,-40.0,-36.0,-19.0,-23.0,117.0,0.0
34.0,50.0,54.0,6.0,28.0,-7.0,-5.0,7.0,-6.0,133.0,0.0
36.0,63.0,45.0,37.0,50.0,31.0,28.0,34.0,10.0,4.0,0.0
32.0,61.0,33.0,23.0,50.0,41.0,35.0,36.0,10.0,-111.0,0.0
-10.0,37.0,20.0,-4.0,27.0,18.0,12.0,6.0,-16.0,-77.0,0.0
-19.0,47.0,47.0,8.0,25.0,8.0,-2.0,6.0,-19.0,-22.0,0.0
5.0,43.0,56.0,19.0,39.0,14.0,-2.0,-2.0,-13.0,39.0,0.0
9.0,13.0,40.0,24.0,45.0,34.0,4.0,0.0,-2.0,31.0,0.0
-14.0,-34.0,6.0,12.0,41.0,41.0,15.0,20.0,32.0,-4.0,0.0
-29.0,-70.0,-37.0,-17.0,53.0,33.0,38.0,37.0,53.0,-67.0,0.0
-40.0,-69.0,-57.0,-28.0,47.0,33.0,54.0,26.0,56.0,-92.0,0.0
-34.0,-52.0,-61.0,-32.0,24.0,27.0,40.0,2.0,54.0,-53.0,0.0
-13.0,-36.0,-48.0,-27.0,20.0,25.0,27.0,1.0,48.0,-16.0,0.0
-12.0,-25.0,-26.0,-15.0,17.0,-9.0,9.0,-14.0,19.0,-17.0,0.0
-10.0,-18.0,4.0,-4.0,9.0,-41.0,-15.0,-45.0,-3.0,-10.0,0.0
-3.0,-34.0,25.0,-2.0,-3.0,-54.0,-32.0,-40.0,2.0,48.0,0.0
-5.0,-47.0,12.0,-13.0,-24.0,-60.0,-40.0,-33.0,5.0,94.0,0.0
-3.0,-47.0,3.0,-12.0,-33.0,-55.0,-48.0,-41.0,8.0,134.0,0.0
0.0,-57.0,-11.0,-6.0,-20.0,-54.0,-36.0,-45.0,-9.0,139.0,0.0
14.0,-33.0,-3.0,11.0,1.0,-28.0,-7.0,-24.0,-1.0,83.0,0.0
37.0,20.0,15.0,36.0,20.0,-10.0,14.0,-8.0,25.0,94.0,0.0
66.0,65.0,34.0,50.0,21.0,-9.0,21.0,-8.0,47.0,161.0,0.0
86.0,96.0,61.0,66.0,31.0,7.0,28.0,-6.0,52.0,104.0,0.0
83.0,94.0,73.0,83.0,45.0,21.0,28.0,1.0,42.0,49.0,0.0
76.0,75.0,69.0,73.0,33.0,5.0,0.0,-6.0,30.0,38.0,0.0
73.0,70.0,61.0,68.0,28.0,-1.0,-23.0,-12.0,19.0,-28.0,0.0
43.0,44.0,36.0,63.0,29.0,0.0,-22.0,-21.0,0.0,-76.0,0.0
11.0,17.0,32.0,62.0,26.0,-7.0,-9.0,-30.0,-3.0,-92.0,0.0
-22.0,12.0,24.0,55.0,27.0,-3.0,0.0,-32.0,5.0,-131.0,0.0
-45.0,-16.0,-7.0,35.0,19.0,8.0,5.0,-14.0,1.0,-166.0,0.0
-56.0,-66.0,-21.0,-10.0,0.0,-13.0,0.0,-8.0,-25.0,-92.0,0.0
-46.0,-53.0,-5.0,-6.0,17.0,-5.0,22.0,9.0,-28.0,23.0,0.0
-46.0,-14.0,18.0,24.0,34.0,24.0,70.0,33.0,23.0,-24.0,0.0
-52.0,-3.0,30.0,34.0,35.0,40.0,56.0,29.0,-11.0,-95.0,0.0
-44.0,4.0,23.0,38.0,28.0,54.0,58.0,23.0,0.0,-91.0,0.0
-7.0,13.0,24.0,39.0,23.0,38.0,38.0,18.0,6.0,-105.0,0.0
7.0,9.0,24.0,24.0,5.0,2.0,1.0,0.0,-32.0,-109.0,0.0
3.0,25.0,16.0,14.0,8.0,2.0,20.0,-15.0,-15.0,-70.0,0.0
0.0,17.0,13.0,7.0,1.0,-3.0,11.0,-24.0,-37.0,-60.0,0.0
-3.0,10.0,13.0,7.0,-21.0,-11.0,-14.0,-31.0,-47.0,-51.0,0.0
-7.0,19.0,31.0,11.0,-20.0,-20.0,-21.0,-34.0,-17.0,-27.0,0.0
-9.0,13.0,29.0,12.0,-12.0,-19.0,-18.0,-37.0,12.0,-10.0,0.0
-22.0,-10.0,-6.0,11.0,-24.0,-15.0,-23.0,-39.0,11.0,7.0,0.0
-7.0,-40.0,-65.0,-25.0,-29.0,4.0,5.0,-4.0,14.0,120.0,0.0
7.0,-47.0,-74.0,-19.0,-4.0,29.0,22.0,25.0,43.0,144.0,0.0
-5.0,-19.0,-47.0,-11.0,20.0,41.0,51.0,42.0,25.0,40.0,0.0
-36.0,-36.0,-18.0,-34.0,5.0,4.0,11.0,10.0,-84.0,-29.0,0.0
-30.0,-60.0,0.0,-51.0,-20.0,-25.0,-12.0,-29.0,-128.0,-17.0,0.0
-19.0,-48.0,41.0,-36.0,-14.0,3.0,42.0,3.0,-6.0,24.0,0.0
-25.0,-48.0,76.0,-12.0,3.0,19.0,65.0,7.0,27.0,23.0,0.0
-25.0,-35.0,61.0,1.0,21.0,40.0,78.0,20.0,30.0,30.0,0.0
-9.0,-31.0,15.0,-12.0,44.0,47.0,73.0,35.0,33.0,36.0,0.0
-9.0,-24.0,-18.0,-21.0,33.0,28.0,50.0,24.0,-9.0,21.0,0.0
-11.0,18.0,-25.0,-29.0,16.0,6.0,32.0,15.0,1.0,14.0,0.0
5.0,36.0,-22.0,-18.0,1.0,2.0,25.0,12.0,38.0,19.0,0.0
5.0,38.0,-26.0,-23.0,0.0,8.0,38.0,7.0,37.0,12.0,0.0
-27.0,23.0,20.0,-9.0,7.0,-13.0,-1.0,-23.0,-13.0,-15.0,0.0
-33.0,15.0,33.0,-3.0,2.0,-23.0,-9.0,-20.0,-3.0,-20.0,0.0
-49.0,3.0,34.0,-10.0,-9.0,-38.0,-32.0,-29.0,-51.0,-42.0,0.0
-66.0,-19.0,29.0,-29.0,-11.0,-54.0,-72.0,-58.0,-131.0,-68.0,0.0
-33.0,-18.0,23.0,-45.0,-19.0,-30.0,-33.0,-47.0,-66.0,-27.0,0.0
18.0,-35.0,0.0,-46.0,-39.0,-30.0,-29.0,-50.0,-64.0,-10.0,0.0
48.0,-46.0,-29.0,-44.0,-30.0,-35.0,-31.0,-47.0,-28.0,41.0,0.0
53.0,-54.0,-34.0,-49.0,-36.0,-35.0,-40.0,-63.0,-21.0,100.0,0.0
59.0,-35.0,-22.0,-41.0,-29.0,-27.0,-37.0,-62.0,-12.0,154.0,0.0
63.0,-8.0,2.0,-17.0,-17.0,-18.0,-25.0,-40.0,11.0,197.0,0.0
54.0,0.0,11.0,-14.0,-6.0,-13.0,-33.0,-28.0,-15.0,177.0,0.0
28.0,21.0,18.0,1.0,-11.0,8.0,-5.0,-17.0,0.0,119.0,0.0
0.0,27.0,-2.0,-2.0,-9.0,7.0,24.0,-21.0,7.0,64.0,0.0
-18.0,46.0,3.0,-7.0,-2.0,7.0,13.0,-16.0,-4.0,23.0,0.0
-15.0,62.0,22.0,22.0,2.0,9.0,0.0,2.0,-7.0,-16.0,0.0
4.0,72.0,26.0,25.0,-11.0,-2.0,-21.0,-6.0,-50.0,-7.0,0.0
38.0,81.0,35.0,14.0,-9.0,21.0,6.0,11.0,-7.0,-11.0,0.0
41.0,82.0,33.0,34.0,8.0,44.0,27.0,14.0,16.0,-64.0,0.0
14.0,68.0,17.0,36.0,6.0,34.0,23.0,17.0,0.0,-122.0,0.0
-19.0,35.0,12.0,34.0,1.0,39.0,9.0,4.0,-15.0,-144.0,0.0
-53.0,-1.0,32.0,36.0,-4.0,24.0,-19.0,-22.0,-60.0,-178.0,0.0
-53.0,-5.0,23.0,24.0,-23.0,16.0,-7.0,-10.0,-38.0,-139.0,0.0
-23.0,18.0,21.0,24.0,-28.0,9.0,0.0,-9.0,-20.0,-71.0,0.0
-12.0,38.0,25.0,21.0,-14.0,7.0,-7.0,-4.0,4.0,-20.0,0.0
-20.0,30.0,21.0,5.0,-16.0,12.0,-11.0,-8.0,0.0,44.0,0.0
-22.0,-3.0,9.0,-6.0,-16.0,24.0,16.0,1.0,-19.0,72.0,0.0
-28.0,1.0,-1.0,-6.0,-9.0,37.0,63.0,18.0,8.0,88.0,0.0
-10.0,17.0,3.0,-18.0,-6.0,19.0,46.0,9.0,-9.0,70.0,0.0
3.0,37.0,-1.0,-18.0,-19.0,1.0,4.0,-12.0,-25.0,24.0,0.0
-6.0,26.0,5.0,15.0,-16.0,-4.0,-4.0,-9.0,-15.0,-21.0,0.0
-27.0,0.0,13.0,16.0,3.0,0.0,7.0,4.0,-29.0,-87.0,0.0
-40.0,-6.0,10.0,37.0,5.0,13.0,14.0,22.0,-22.0,-147.0,0.0
-34.0,-15.0,23.0,41.0,7.0,16.0,21.0,20.0,1.0,-127.0,0.0
-32.0,-45.0,5.0,22.0,1.0,7.0,8.0,18.0,-3.0,-65.0,0.0
-18.0,-51.0,-20.0,19.0,0.0,12.0,-14.0,1.0,0.0,-20.0,0.0
-9.0,-42.0,-11.0,20.0,0.0,11.0,-20.0,-6.0,-1.0,-9.0,0.0
-13.0,-51.0,-10.0,13.0,15.0,13.0,-9.0,0.0,-9.0,-14.0,0.0
-17.0,-63.0,-38.0,3.0,12.0,23.0,7.0,13.0,-8.0,-11.0,0.0
-26.0,-43.0,-42.0,1.0,0.0,29.0,11.0,17.0,6.0,-5.0,0.0
-25.0,-38.0,-31.0,-10.0,0.0,48.0,14.0,35.0,32.0,1.0,0.0
-12.0,-39.0,-47.0,-27.0,7.0,48.0,26.0,34.0,51.0,3.0,0.0
-2.0,-36.0,-75.0,-30.0,2.0,42.0,28.0,40.0,48.0,-10.0,0.0
12.0,-7.0,-77.0,-27.0,-13.0,21.0,26.0,19.0,17.0,-20.0,0.0
23.0,22.0,-42.0,-11.0,-24.0,-3.0,4.0,-3.0,-4.0,-16.0,0.0
13.0,6.0,-14.0,-2.0,-24.0,0.0,-4.0,-6.0,-12.0,-17.0,0.0
-3.0,-30.0,4.0,1.0,-9.0,9.0,-7.0,1.0,-51.0,-33.0,0.0
2.0,-28.0,10.0,6.0,0.0,13.0,-1.0,-3.0,-36.0,-29.0,0.0
13.0,-2.0,16.0,13.0,5.0,-2.0,-2.0,-8.0,-25.0,-24.0,0.0
14.0,-4.0,17.0,7.0,16.0,-6.0,-21.0,-13.0,-14.0,6.0,0.0
20.0,5.0,10.0,5.0,16.0,-14.0,-30.0,0.0,-11.0,46.0,0.0
26.0,5.0,9.0,3.0,7.0,-42.0,-64.0,-23.0,-49.0,33.0,0.0
29.0,33.0,15.0,4.0,-7.0,-44.0,-62.0,-25.0,-37.0,26.0,0.0
4.0,31.0,6.0,-3.0,-16.0,-62.0,-56.0,-23.0,-14.0,-6.0,0.0
-1.0,6.0,-5.0,-20.0,-23.0,-69.0,-45.0,-15.0,18.0,-64.0,0.0
-11.0,-6.0,-24.0,-18.0,-24.0,-53.0,-31.0,-4.0,43.0,-89.0,0.0
-14.0,-12.0,-60.0,-28.0,-35.0,-58.0,-51.0,0.0,12.0,-28.0,0.0
-6.0,-25.0,-92.0,-57.0,-44.0,-44.0,-55.0,5.0,27.0,139.0,0.0
-12.0,-49.0,-122.0,-88.0,-38.0,-17.0,-30.0,7.0,32.0,287.0,0.0
-9.0,-56.0,-132.0,-83.0,-17.0,24.0,10.0,25.0,39.0,307.0,0.0
29.0,-21.0,-87.0,-58.0,10.0,69.0,46.0,64.0,88.0,233.0,0.0
71.0,21.0,-39.0,-25.0,19.0,83.0,50.0,75.0,121.0,208.0,0.0
49.0,53.0,87.0,37.0,14.0,35.0,8.0,32.0,60.0,-38.0,0.0
8.0,26.0,101.0,22.0,8.0,15.0,-2.0,-1.0,19.0,-80.0,0.0
-13.0,0.0,85.0,21.0,17.0,22.0,-1.0,-6.0,1.0,-132.0,0.0
-40.0,-43.0,56.0,3.0,16.0,-20.0,-72.0,-39.0,-140.0,-280.0,0.0
-51.0,-49.0,23.0,-4.0,19.0,-30.0,-84.0,-33.0,-148.0,-354.0,0.0
-52.0,-11.0,-5.0,-21.0,4.0,-9.0,-31.0,-10.0,5.0,-216.0,0.0
-45.0,-40.0,-40.0,-38.0,-22.0,-31.0,-28.0,-24.0,5.0,-98.0,0.0
-30.0,-56.0,-73.0,-35.0,-25.0,-27.0,-32.0,-24.0,4.0,5.0,0.0
-17.0,-57.0,-68.0,-27.0,-34.0,-34.0,-43.0,-37.0,-12.0,73.0,0.0
-7.0,-64.0,-56.0,2.0,-24.0,-9.0,-9.0,-17.0,17.0,101.0,0.0
-7.0,-51.0,-46.0,32.0,-7.0,10.0,5.0,7.0,41.0,101.0,0.0
19.0,-5.0,-9.0,52.0,14.0,20.0,16.0,34.0,54.0,101.0,0.0
35.0,34.0,39.0,82.0,29.0,35.0,35.0,45.0,45.0,54.0,0.0
24.0,28.0,38.0,72.0,31.0,27.0,23.0,25.0,7.0,-121.0,0.0
