channel0,channel1,channel2,channel3,channel4,channel5,channel6,channel7,channel8,channel9,true_locs
36.0,3.0,-6.0,-17.0,-3.0,-15.0,-25.0,-9.0,3.0,67.0,0.0
11.0,-1.0,-11.0,-5.0,0.0,-6.0,-17.0,-38.0,-48.0,-13.0,0.0
-31.0,6.0,3.0,17.0,12.0,-6.0,-23.0,-54.0,-89.0,-89.0,0.0
-60.0,17.0,27.0,17.0,11.0,-12.0,-24.0,-59.0,-110.0,-132.0,0.0
-78.0,-5.0,9.0,11.0,15.0,-9.0,-13.0,-38.0,-86.0,-114.0,0.0
-84.0,-25.0,15.0,19.0,20.0,4.0,17.0,10.0,-18.0,-65.0,0.0
-77.0,-27.0,15.0,9.0,8.0,19.0,24.0,32.0,12.0,-36.0,0.0
-67.0,-26.0,14.0,5.0,7.0,13.0,13.0,13.0,-5.0,-46.0,0.0
-49.0,-15.0,19.0,2.0,12.0,3.0,1.0,9.0,-2.0,-35.0,0.0
-31.0,-10.0,16.0,1.0,10.0,6.0,5.0,20.0,24.0,-15.0,0.0
-20.0,-12.0,27.0,-9.0,6.0,10.0,6.0,9.0,19.0,2.0,0.0
-14.0,-12.0,17.0,-6.0,-1.0,8.0,-1.0,-10.0,-11.0,-5.0,0.0
-6.0,-17.0,10.0,-7.0,-2.0,-11.0,1.0,-7.0,0.0,13.0,0.0
0.0,-19.0,-3.0,-9.0,5.0,-24.0,5.0,-3.0,20.0,65.0,0.0
-9.0,-19.0,-4.0,-11.0,12.0,-24.0,11.0,-7.0,35.0,72.0,0.0
-5.0,-16.0,5.0,-18.0,1.0,-15.0,6.0,-4.0,52.0,72.0,0.0
2.0,-11.0,-12.0,-14.0,0.0,-13.0,8.0,-2.0,34.0,23.0,0.0
-13.0,-2.0,-22.0,2.0,5.0,-18.0,-5.0,-10.0,-10.0,-26.0,0.0
-17.0,0.0,-22.0,10.0,10.0,-21.0,-8.0,-5.0,-18.0,-38.0,0.0
-23.0,-3.0,-22.0,4.0,10.0,-13.0,3.0,4.0,11.0,-28.0,0.0
-27.0,-14.0,-21.0,-7.0,12.0,0.0,-1.0,6.0,24.0,-22.0,0.0
0.0,-17.0,6.0,-22.0,21.0,7.0,8.0,0.0,14.0,-21.0,0.0
18.0,-18.0,8.0,-17.0,26.0,1.0,20.0,3.0,8.0,-7.0,0.0
26.0,-4.0,-5.0,-10.0,36.0,-1.0,26.0,-6.0,2.0,10.0,0.0
13.0,2.0,-15.0,-7.0,26.0,-12.0,20.0,-24.0,-7.0,5.0,0.0
12.0,7.0,0.0,5.0,4.0,-4.0,9.0,-22.0,14.0,8.0,0.0
21.0,-2.0,13.0,9.0,1.0,-8.0,5.0,0.0,47.0,22.0,0.0
27.0,-2.0,17.0,14.0,9.0,-9.0,0.0,15.0,50.0,38.0,0.0
32.0,1.0,21.0,26.0,15.0,3.0,-3.0,12.0,106.0,109.0,0.0
42.0,3.0,8.0,29.0,15.0,4.0,2.0,23.0,175.0,200.0,0.0
49.0,8.0,23.0,28.0,17.0,-7.0,2.0,39.0,166.0,273.0,0.0
45.0,5.0,11.0,19.0,11.0,-13.0,-15.0,24.0,128.0,269.0,0.0
26.0,-7.0,13.0,12.0,-1.0,-19.0,-18.0,-15.0,52.0,78.0,0.0
15.0,-9.0,2.0,10.0,10.0,-15.0,-8.0,-21.0,3.0,-99.0,0.0
20.0,-4.0,3.0,25.0,10.0,-9.0,0.0,2.0,22.0,-81.0,0.0
42.0,0.0,14.0,23.0,17.0,-4.0,2.0,7.0,75.0,12.0,0.0
56.0,-2.0,0.0,20.0,28.0,-3.0,5.0,6.0,79.0,68.0,0.0
54.0,-15.0,9.0,18.0,33.0,-4.0,3.0,-8.0,22.0,70.0,0.0
28.0,-16.0,11.0,1.0,30.0,4.0,5.0,-27.0,-41.0,-4.0,0.0
3.0,-15.0,13.0,2.0,28.0,12.0,4.0,-40.0,-94.0,-147.0,0.0
-1.0,-20.0,27.0,1.0,27.0,12.0,5.0,-24.0,-87.0,-175.0,0.0
-19.0,-7.0,36.0,8.0,29.0,12.0,5.0,-6.0,-52.0,-116.0,0.0
-33.0,9.0,38.0,12.0,39.0,14.0,1.0,-23.0,-49.0,-59.0,0.0
-24.0,14.0,31.0,0.0,21.0,1.0,-5.0,-27.0,-50.0,-26.0,0.0
-14.0,21.0,14.0,-16.0,9.0,-4.0,-13.0,-24.0,-55.0,-11.0,0.0
0.0,13.0,3.0,-17.0,6.0,-17.0,-7.0,-9.0,-65.0,-34.0,0.0
3.0,0.0,-2.0,-5.0,15.0,-13.0,-4.0,1.0,-79.0,-49.0,0.0
5.0,1.0,10.0,2.0,16.0,2.0,-16.0,-10.0,-85.0,-29.0,0.0
-3.0,4.0,6.0,0.0,14.0,-2.0,-5.0,-23.0,-90.0,-29.0,0.0
-17.0,-4.0,7.0,-3.0,13.0,-11.0,6.0,-9.0,-67.0,-18.0,0.0
-27.0,-13.0,-4.0,0.0,7.0,-6.0,19.0,32.0,24.0,6.0,0.0
-29.0,-14.0,6.0,17.0,6.0,-12.0,24.0,49.0,96.0,30.0,0.0
-20.0,-3.0,17.0,23.0,7.0,-5.0,14.0,20.0,50.0,35.0,0.0
-24.0,-3.0,22.0,20.0,11.0,-9.0,5.0,3.0,9.0,36.0,0.0
-25.0,-7.0,13.0,26.0,10.0,-5.0,-1.0,11.0,-6.0,51.0,0.0
-7.0,-3.0,-3.0,29.0,8.0,-3.0,5.0,3.0,-18.0,53.0,0.0
1.0,-10.0,2.0,28.0,16.0,-6.0,9.0,-13.0,-26.0,39.0,0.0
12.0,-14.0,-1.0,29.0,19.0,-3.0,-3.0,-12.0,-29.0,29.0,0.0
9.0,-10.0,4.0,16.0,18.0,-4.0,0.0,-5.0,-24.0,9.0,0.0
1.0,-10.0,4.0,13.0,9.0,-1.0,4.0,-3.0,-17.0,-7.0,0.0
-7.0,-10.0,7.0,19.0,-5.0,-5.0,12.0,6.0,14.0,7.0,0.0
-3.0,-7.0,-10.0,15.0,-4.0,-6.0,16.0,9.0,47.0,45.0,0.0
4.0,3.0,1.0,10.0,0.0,-3.0,10.0,6.0,34.0,70.0,0.0
-1.0,2.0,1.0,14.0,8.0,-6.0,6.0,-1.0,13.0,69.0,0.0
2.0,-7.0,10.0,19.0,8.0,-6.0,8.0,2.0,1.0,78.0,0.0
21.0,-12.0,15.0,19.0,7.0,-5.0,10.0,16.0,0.0,95.0,0.0
32.0,-5.0,2.0,15.0,2.0,-11.0,16.0,13.0,-10.0,109.0,0.0
31.0,1.0,5.0,6.0,-2.0,-10.0,16.0,8.0,-1.0,103.0,0.0
32.0,9.0,2.0,8.0,-3.0,-9.0,17.0,6.0,7.0,93.0,0.0
19.0,12.0,3.0,4.0,15.0,-1.0,7.0,22.0,2.0,82.0,0.0
-3.0,-1.0,12.0,6.0,27.0,7.0,6.0,14.0,-5.0,84.0,0.0
-13.0,-15.0,3.0,6.0,23.0,20.0,11.0,1.0,4.0,56.0,0.0
-9.0,0.0,-2.0,-3.0,16.0,10.0,0.0,-15.0,-13.0,25.0,0.0
3.0,22.0,3.0,-4.0,13.0,-5.0,-16.0,-32.0,-29.0,41.0,0.0
20.0,18.0,6.0,-3.0,15.0,-12.0,-11.0,-28.0,-15.0,73.0,0.0
37.0,20.0,3.0,-6.0,5.0,-3.0,-8.0,-38.0,6.0,123.0,0.0
53.0,30.0,0.0,-6.0,-6.0,-12.0,-15.0,-45.0,23.0,165.0,0.0
62.0,27.0,-13.0,-8.0,-16.0,-15.0,-9.0,-8.0,72.0,180.0,0.0
47.0,11.0,-5.0,-12.0,-11.0,2.0,10.0,33.0,96.0,142.0,0.0
33.0,14.0,-12.0,-3.0,-4.0,10.0,0.0,21.0,46.0,65.0,0.0
18.0,7.0,1.0,9.0,-12.0,7.0,-17.0,-17.0,-5.0,21.0,0.0
8.0,-11.0,-14.0,9.0,-10.0,7.0,-10.0,-32.0,-20.0,38.0,0.0
-22.0,-18.0,-19.0,3.0,0.0,24.0,7.0,-13.0,4.0,48.0,0.0
-34.0,-32.0,-2.0,1.0,7.0,39.0,9.0,-6.0,29.0,68.0,0.0
-38.0,-28.0,-6.0,6.0,12.0,28.0,9.0,-9.0,37.0,89.0,0.0
-52.0,-24.0,-10.0,-3.0,5.0,9.0,-3.0,-29.0,-20.0,1.0,0.0
-66.0,-31.0,-25.0,-2.0,3.0,11.0,1.0,-24.0,-51.0,-73.0,0.0
-78.0,-22.0,-17.0,3.0,6.0,23.0,30.0,9.0,-17.0,-57.0,0.0
-64.0,-11.0,0.0,3.0,-5.0,34.0,42.0,26.0,36.0,-24.0,0.0
-52.0,-13.0,-6.0,8.0,6.0,39.0,38.0,29.0,58.0,-13.0,0.0
-44.0,-9.0,4.0,12.0,12.0,35.0,38.0,26.0,59.0,6.0,0.0
-37.0,-14.0,7.0,-14.0,-3.0,24.0,21.0,9.0,43.0,31.0,0.0
-42.0,-15.0,6.0,-28.0,-10.0,19.0,16.0,-16.0,4.0,17.0,0.0
-47.0,-13.0,-12.0,-30.0,-10.0,7.0,15.0,-14.0,-29.0,-19.0,0.0
-35.0,-19.0,-10.0,-23.0,-15.0,3.0,17.0,2.0,-15.0,-8.0,0.0
-23.0,-17.0,7.0,-15.0,-2.0,26.0,23.0,0.0,-8.0,-2.0,0.0
-20.0,-17.0,5.0,-6.0,7.0,32.0,31.0,-11.0,-28.0,-8.0,0.0
-32.0,-13.0,-1.0,-11.0,17.0,18.0,35.0,-21.0,-39.0,-2.0,0.0
-20.0,-12.0,-5.0,-17.0,16.0,7.0,27.0,-27.0,-41.0,25.0,0.0
-12.0,-13.0,5.0,2.0,17.0,0.0,24.0,-28.0,-30.0,35.0,0.0
-9.0,-12.0,8.0,25.0,14.0,-9.0,15.0,-22.0,-41.0,26.0,1.0
-3.0,-3.0,6.0,30.0,15.0,-12.0,13.0,-14.0,-40.0,19.0,1.0
7.0,4.0,4.0,28.0,8.0,-4.0,14.0,-24.0,-43.0,12.0,1.0
2.0,7.0,1.0,24.0,14.0,-9.0,9.0,-29.0,-38.0,2.0,1.0
-10.0,-1.0,0.0,18.0,24.0,-6.0,12.0,-31.0,-47.0,-5.0,1.0
4.0,-10.0,-11.0,17.0,19.0,2.0,23.0,-14.0,-9.0,53.0,1.0
33.0,0.0,-29.0,-1.0,4.0,-8.0,24.0,-2.0,21.0,124.0,1.0
64.0,4.0,-32.0,-13.0,8.0,-22.0,29.0,-3.0,15.0,159.0,1.0
85.0,23.0,-2.0,-23.0,4.0,-27.0,16.0,-21.0,-3.0,145.0,1.0
73.0,29.0,12.0,-29.0,-5.0,-29.0,0.0,-19.0,-24.0,106.0,1.0
28.0,20.0,14.0,-27.0,-5.0,-24.0,-9.0,-9.0,-4.0,90.0,1.0
-25.0,7.0,-7.0,-18.0,-5.0,-23.0,2.0,1.0,23.0,54.0,1.0
-56.0,0.0,-1.0,-8.0,13.0,1.0,17.0,21.0,1.0,-5.0,1.0
-66.0,-10.0,-5.0,-13.0,25.0,8.0,24.0,20.0,-25.0,-47.0,1.0
-65.0,-16.0,-5.0,-4.0,11.0,4.0,14.0,7.0,-45.0,-75.0,1.0
-42.0,-8.0,1.0,-2.0,26.0,4.0,11.0,3.0,-44.0,-100.0,1.0
-19.0,1.0,-2.0,4.0,25.0,-3.0,8.0,-2.0,-45.0,-75.0,1.0
-7.0,9.0,7.0,7.0,14.0,6.0,2.0,-7.0,-31.0,-18.0,1.0
2.0,4.0,-4.0,-13.0,1.0,9.0,-7.0,-9.0,-13.0,37.0,0.0
12.0,9.0,8.0,-13.0,3.0,3.0,-11.0,-13.0,-13.0,73.0,0.0
13.0,18.0,-7.0,-7.0,0.0,4.0,-22.0,-12.0,-15.0,68.0,0.0
7.0,8.0,2.0,-13.0,-13.0,-1.0,-34.0,-12.0,1.0,-3.0,0.0
18.0,16.0,1.0,-10.0,-6.0,-2.0,-33.0,-4.0,16.0,-24.0,0.0
17.0,22.0,4.0,-13.0,0.0,10.0,-15.0,3.0,24.0,-20.0,0.0
18.0,16.0,1.0,-14.0,5.0,17.0,-13.0,0.0,9.0,-38.0,0.0
9.0,-1.0,7.0,-13.0,2.0,9.0,-23.0,-6.0,-8.0,-41.0,0.0
-6.0,-7.0,12.0,-16.0,4.0,13.0,-13.0,2.0,1.0,2.0,0.0
8.0,5.0,19.0,-7.0,7.0,10.0,0.0,14.0,11.0,27.0,0.0
6.0,15.0,25.0,1.0,14.0,-4.0,-5.0,-7.0,-19.0,2.0,0.0
-9.0,-3.0,27.0,-1.0,18.0,-15.0,-31.0,-29.0,-52.0,-45.0,0.0
-23.0,-4.0,26.0,-5.0,21.0,-8.0,-26.0,-11.0,-43.0,-63.0,0.0
-29.0,-13.0,17.0,19.0,30.0,3.0,-10.0,7.0,-14.0,-62.0,0.0
-30.0,-9.0,-2.0,30.0,21.0,0.0,-9.0,3.0,-3.0,-53.0,0.0
-15.0,-1.0,6.0,24.0,10.0,-9.0,-18.0,-14.0,-10.0,-3.0,0.0
-7.0,-2.0,-5.0,26.0,10.0,-16.0,-26.0,-23.0,-45.0,7.0,0.0
-10.0,-7.0,-3.0,35.0,15.0,-14.0,-22.0,-11.0,-61.0,-6.0,0.0
6.0,-14.0,-16.0,29.0,15.0,-11.0,-18.0,17.0,-15.0,39.0,0.0
37.0,9.0,0.0,29.0,1.0,-10.0,-19.0,46.0,76.0,91.0,0.0
57.0,21.0,1.0,22.0,-7.0,-2.0,-23.0,62.0,171.0,116.0,0.0
53.0,24.0,8.0,17.0,-1.0,-10.0,-25.0,58.0,183.0,127.0,0.0
46.0,9.0,-2.0,12.0,3.0,-17.0,-28.0,14.0,82.0,91.0,0.0
37.0,10.0,-9.0,18.0,6.0,-14.0,-23.0,-10.0,-13.0,-13.0,0.0
37.0,7.0,-25.0,22.0,7.0,-8.0,-20.0,-18.0,-40.0,-53.0,0.0
41.0,-4.0,-8.0,26.0,6.0,-11.0,-18.0,-9.0,-32.0,-39.0,0.0
27.0,-6.0,0.0,26.0,7.0,-14.0,-24.0,-9.0,-43.0,-46.0,0.0
18.0,-3.0,2.0,21.0,11.0,-7.0,-21.0,-9.0,-45.0,-39.0,0.0
21.0,11.0,8.0,14.0,26.0,-10.0,-20.0,-12.0,-39.0,-13.0,0.0
22.0,11.0,6.0,13.0,28.0,-9.0,-21.0,-8.0,-46.0,16.0,0.0
29.0,5.0,-6.0,17.0,17.0,-7.0,-23.0,6.0,-33.0,31.0,0.0
29.0,10.0,-2.0,17.0,18.0,-7.0,-23.0,1.0,-21.0,42.0,0.0
25.0,6.0,-12.0,19.0,27.0,-8.0,-12.0,-10.0,-45.0,21.0,0.0
17.0,-1.0,-11.0,19.0,38.0,-1.0,-17.0,-7.0,-64.0,1.0,0.0
8.0,2.0,-1.0,21.0,28.0,0.0,-27.0,-11.0,-83.0,-10.0,0.0
15.0,12.0,-16.0,21.0,22.0,2.0,-34.0,-40.0,-87.0,-24.0,0.0
20.0,12.0,-4.0,8.0,19.0,-6.0,-57.0,-44.0,-73.0,-9.0,0.0
10.0,1.0,-16.0,-5.0,15.0,-25.0,-45.0,12.0,11.0,34.0,0.0
19.0,-7.0,-26.0,-1.0,19.0,-16.0,-19.0,27.0,49.0,51.0,0.0
30.0,0.0,0.0,0.0,25.0,-6.0,-18.0,4.0,15.0,43.0,0.0
37.0,9.0,7.0,-13.0,31.0,-4.0,-21.0,-6.0,-14.0,52.0,0.0
40.0,5.0,10.0,-11.0,26.0,-9.0,-9.0,-4.0,-13.0,45.0,0.0
39.0,7.0,2.0,-12.0,9.0,-8.0,-3.0,-4.0,-2.0,32.0,0.0
20.0,-2.0,7.0,-22.0,13.0,-13.0,-2.0,-1.0,13.0,17.0,0.0
0.0,-2.0,3.0,-22.0,7.0,-5.0,7.0,27.0,53.0,48.0,0.0
-9.0,-6.0,17.0,-19.0,11.0,4.0,15.0,42.0,47.0,40.0,0.0
-12.0,-8.0,20.0,-18.0,21.0,-2.0,17.0,18.0,4.0,-19.0,0.0
-9.0,-5.0,13.0,-11.0,21.0,-7.0,7.0,2.0,3.0,-33.0,0.0
-17.0,-18.0,23.0,-10.0,30.0,-4.0,5.0,20.0,37.0,-16.0,0.0
-26.0,-20.0,23.0,-10.0,35.0,5.0,12.0,28.0,39.0,-21.0,0.0
-17.0,-21.0,21.0,-13.0,24.0,11.0,14.0,24.0,46.0,-17.0,0.0
-11.0,-20.0,19.0,-9.0,21.0,12.0,8.0,24.0,40.0,-17.0,0.0
-21.0,-20.0,19.0,2.0,28.0,1.0,23.0,3.0,33.0,-36.0,0.0
-22.0,-25.0,20.0,14.0,45.0,1.0,20.0,-3.0,14.0,-35.0,0.0
-38.0,-45.0,15.0,16.0,57.0,-1.0,30.0,1.0,7.0,-36.0,0.0
-41.0,-33.0,13.0,7.0,40.0,4.0,37.0,10.0,6.0,-30.0,0.0
-22.0,-7.0,8.0,-8.0,15.0,-8.0,12.0,5.0,1.0,-21.0,0.0
2.0,3.0,1.0,-13.0,-2.0,-11.0,13.0,9.0,0.0,-17.0,0.0
15.0,0.0,-5.0,-7.0,2.0,-6.0,25.0,11.0,-3.0,0.0,0.0
18.0,-2.0,-6.0,0.0,6.0,-13.0,26.0,3.0,-23.0,-1.0,0.0
21.0,0.0,-15.0,12.0,10.0,-15.0,30.0,-5.0,-27.0,-9.0,0.0
20.0,4.0,-4.0,17.0,3.0,-3.0,14.0,-13.0,-24.0,-26.0,0.0
15.0,19.0,-9.0,10.0,1.0,4.0,10.0,-3.0,0.0,-19.0,0.0
-4.0,10.0,-14.0,4.0,14.0,16.0,9.0,19.0,19.0,-8.0,0.0
-10.0,4.0,-6.0,15.0,21.0,14.0,10.0,8.0,4.0,-18.0,0.0
-18.0,12.0,-2.0,24.0,23.0,7.0,13.0,-20.0,-21.0,-49.0,0.0
-24.0,15.0,-5.0,23.0,24.0,-5.0,-10.0,-40.0,-43.0,-75.0,0.0
-26.0,12.0,-24.0,-2.0,15.0,-11.0,-25.0,-62.0,-32.0,-64.0,0.0
-21.0,0.0,-6.0,-7.0,9.0,-15.0,-32.0,-65.0,-7.0,-22.0,0.0
-1.0,1.0,-16.0,2.0,6.0,-24.0,-23.0,-48.0,-5.0,15.0,0.0
6.0,-1.0,-5.0,10.0,-4.0,-18.0,-32.0,-32.0,-4.0,26.0,0.0
-3.0,-2.0,-14.0,5.0,-11.0,-3.0,-24.0,-15.0,11.0,26.0,0.0
-12.0,3.0,-30.0,-3.0,0.0,6.0,-18.0,0.0,35.0,6.0,0.0
-19.0,9.0,-8.0,10.0,22.0,12.0,-10.0,20.0,52.0,2.0,0.0
-21.0,7.0,-8.0,15.0,24.0,9.0,2.0,29.0,40.0,5.0,0.0
-10.0,6.0,-1.0,10.0,25.0,10.0,6.0,25.0,16.0,17.0,0.0
-1.0,11.0,-10.0,7.0,27.0,14.0,1.0,5.0,23.0,35.0,0.0
14.0,25.0,-3.0,5.0,30.0,12.0,-7.0,4.0,25.0,58.0,0.0
42.0,26.0,4.0,7.0,23.0,8.0,-16.0,2.0,36.0,95.0,0.0
52.0,35.0,-7.0,3.0,12.0,-3.0,-14.0,-9.0,37.0,121.0,0.0
55.0,42.0,-6.0,2.0,19.0,-6.0,-10.0,0.0,39.0,123.0,0.0
61.0,41.0,-15.0,1.0,16.0,-14.0,-15.0,3.0,40.0,110.0,0.0
31.0,31.0,-9.0,5.0,19.0,-7.0,5.0,10.0,50.0,77.0,0.0
1.0,14.0,-7.0,11.0,21.0,8.0,24.0,20.0,53.0,34.0,0.0
-26.0,5.0,-21.0,22.0,30.0,19.0,26.0,37.0,31.0,24.0,0.0
-48.0,7.0,-27.0,36.0,40.0,26.0,24.0,34.0,10.0,-1.0,0.0
-34.0,5.0,-12.0,23.0,36.0,19.0,18.0,25.0,9.0,10.0,0.0
-14.0,0.0,-9.0,20.0,32.0,11.0,23.0,20.0,28.0,29.0,0.0
-2.0,3.0,-22.0,25.0,24.0,10.0,9.0,23.0,41.0,32.0,0.0
-7.0,12.0,-35.0,23.0,24.0,1.0,-5.0,6.0,44.0,43.0,0.0
-35.0,0.0,-39.0,25.0,35.0,12.0,-8.0,-12.0,-4.0,25.0,0.0
-50.0,-12.0,-34.0,23.0,29.0,23.0,-6.0,-18.0,-81.0,-25.0,0.0
-48.0,-8.0,-31.0,20.0,24.0,13.0,-10.0,-9.0,-88.0,-42.0,0.0
-44.0,-7.0,-30.0,21.0,26.0,9.0,0.0,-3.0,-62.0,-44.0,0.0
-36.0,8.0,-24.0,30.0,30.0,19.0,10.0,-17.0,-83.0,-69.0,0.0
-33.0,14.0,-12.0,33.0,37.0,14.0,1.0,-24.0,-100.0,-83.0,0.0
-24.0,3.0,15.0,24.0,32.0,2.0,2.0,-30.0,-100.0,-57.0,0.0
-21.0,1.0,-1.0,11.0,19.0,-1.0,0.0,0.0,-73.0,-29.0,0.0
-17.0,8.0,-18.0,-1.0,16.0,1.0,-5.0,26.0,-23.0,7.0,0.0
-2.0,18.0,-15.0,-7.0,19.0,-7.0,-7.0,36.0,13.0,30.0,0.0
6.0,14.0,-23.0,0.0,1.0,-9.0,-6.0,39.0,38.0,25.0,0.0
0.0,6.0,-26.0,4.0,3.0,-7.0,-6.0,49.0,42.0,1.0,0.0
-4.0,11.0,-24.0,-1.0,16.0,6.0,-5.0,45.0,40.0,-11.0,0.0
3.0,12.0,-14.0,3.0,19.0,10.0,-3.0,30.0,50.0,16.0,0.0
8.0,0.0,16.0,-1.0,23.0,7.0,-3.0,31.0,66.0,51.0,0.0
19.0,1.0,15.0,-6.0,26.0,-8.0,-3.0,24.0,74.0,65.0,0.0
15.0,-9.0,-6.0,-11.0,18.0,-15.0,-4.0,16.0,50.0,61.0,0.0
18.0,-10.0,-15.0,-4.0,8.0,-26.0,12.0,1.0,30.0,12.0,0.0
8.0,-12.0,-19.0,5.0,14.0,-26.0,13.0,-15.0,-2.0,-57.0,0.0
0.0,-8.0,-21.0,6.0,32.0,-22.0,3.0,-25.0,-1.0,-60.0,0.0
-5.0,-7.0,-19.0,4.0,24.0,-13.0,10.0,-5.0,15.0,-46.0,0.0
-18.0,-11.0,-15.0,5.0,19.0,-10.0,18.0,3.0,3.0,-36.0,0.0
-20.0,-11.0,-13.0,6.0,23.0,0.0,20.0,7.0,8.0,-25.0,0.0
-6.0,-8.0,-15.0,-1.0,19.0,6.0,16.0,24.0,42.0,-5.0,0.0
3.0,-8.0,-15.0,2.0,20.0,10.0,18.0,34.0,39.0,0.0,0.0
2.0,2.0,-16.0,12.0,26.0,3.0,17.0,18.0,5.0,4.0,0.0
3.0,-1.0,-16.0,3.0,32.0,5.0,17.0,2.0,3.0,17.0,0.0
4.0,-5.0,-9.0,-3.0,32.0,1.0,16.0,-1.0,-7.0,33.0,0.0
9.0,-6.0,-10.0,3.0,23.0,-10.0,14.0,-20.0,-32.0,25.0,0.0
11.0,-11.0,-14.0,1.0,23.0,-12.0,4.0,-30.0,-55.0,5.0,0.0
8.0,-18.0,-16.0,-12.0,30.0,-5.0,-12.0,-30.0,-86.0,-13.0,0.0
-5.0,-26.0,-9.0,-11.0,33.0,-11.0,-22.0,-34.0,-100.0,-35.0,0.0
-10.0,-21.0,-6.0,-4.0,32.0,-20.0,-18.0,-9.0,-34.0,-41.0,0.0
0.0,-26.0,0.0,8.0,39.0,-25.0,-8.0,30.0,83.0,1.0,0.0
14.0,-14.0,1.0,9.0,51.0,-24.0,0.0,25.0,108.0,82.0,0.0
27.0,3.0,-8.0,10.0,55.0,-24.0,1.0,13.0,107.0,181.0,0.0
36.0,-2.0,-16.0,16.0,52.0,-13.0,22.0,54.0,207.0,268.0,0.0
52.0,-13.0,-19.0,14.0,66.0,-3.0,49.0,97.0,304.0,368.0,0.0
60.0,-10.0,-10.0,14.0,68.0,-7.0,44.0,61.0,237.0,337.0,0.0
32.0,-21.0,-8.0,15.0,53.0,-20.0,11.0,9.0,69.0,75.0,0.0
5.0,-9.0,0.0,11.0,48.0,-14.0,11.0,-18.0,-40.0,-161.0,0.0
-12.0,-8.0,8.0,23.0,54.0,3.0,30.0,-8.0,-57.0,-231.0,0.0
-23.0,-12.0,1.0,25.0,72.0,14.0,40.0,21.0,-47.0,-258.0,0.0
-16.0,2.0,1.0,21.0,85.0,30.0,37.0,42.0,-45.0,-270.0,0.0
-4.0,7.0,-6.0,29.0,86.0,40.0,30.0,19.0,-62.0,-238.0,0.0
-3.0,2.0,-3.0,18.0,70.0,19.0,9.0,3.0,-59.0,-177.0,0.0
24.0,0.0,-6.0,14.0,65.0,-3.0,15.0,19.0,-12.0,-89.0,0.0
27.0,3.0,-8.0,13.0,69.0,-4.0,35.0,27.0,14.0,-53.0,0.0
14.0,10.0,3.0,14.0,64.0,1.0,39.0,6.0,7.0,-78.0,0.0
-11.0,-11.0,0.0,9.0,62.0,21.0,39.0,11.0,24.0,-73.0,0.0
-23.0,-34.0,-2.0,17.0,55.0,32.0,49.0,18.0,54.0,-23.0,0.0
-5.0,-18.0,-2.0,20.0,54.0,31.0,38.0,17.0,44.0,-1.0,0.0
11.0,1.0,1.0,2.0,42.0,23.0,20.0,-6.0,13.0,-9.0,0.0
20.0,-6.0,2.0,-2.0,31.0,20.0,3.0,-10.0,15.0,2.0,0.0
16.0,-11.0,23.0,-4.0,18.0,19.0,7.0,-4.0,16.0,-20.0,0.0
14.0,-14.0,26.0,0.0,16.0,20.0,13.0,-12.0,-18.0,-58.0,0.0
18.0,-11.0,13.0,5.0,13.0,16.0,0.0,-27.0,-30.0,-69.0,0.0
23.0,-3.0,11.0,4.0,10.0,14.0,1.0,-30.0,-34.0,-65.0,0.0
32.0,10.0,31.0,4.0,12.0,11.0,12.0,-31.0,-21.0,-55.0,0.0
20.0,14.0,36.0,0.0,17.0,2.0,11.0,-34.0,-22.0,-50.0,0.0
-12.0,-4.0,28.0,-7.0,31.0,0.0,10.0,-25.0,0.0,-68.0,0.0
-32.0,-16.0,25.0,-3.0,26.0,-1.0,28.0,-9.0,24.0,-49.0,0.0
-15.0,-6.0,8.0,7.0,18.0,5.0,36.0,15.0,80.0,30.0,0.0
-1.0,-5.0,-5.0,-15.0,29.0,12.0,35.0,42.0,124.0,86.0,0.0
-8.0,-9.0,9.0,-21.0,38.0,14.0,25.0,38.0,107.0,98.0,0.0
-15.0,-14.0,20.0,-21.0,43.0,14.0,19.0,13.0,76.0,99.0,0.0
-16.0,-19.0,3.0,-33.0,37.0,17.0,11.0,-15.0,35.0,50.0,0.0
-29.0,-32.0,-9.0,-21.0,37.0,23.0,30.0,-6.0,-9.0,-101.0,0.0
-41.0,-19.0,-12.0,0.0,35.0,31.0,35.0,2.0,-14.0,-165.0,0.0
-26.0,-3.0,-4.0,8.0,27.0,31.0,43.0,28.0,15.0,-109.0,0.0
-8.0,-3.0,21.0,0.0,28.0,38.0,32.0,26.0,15.0,-76.0,0.0
6.0,3.0,17.0,3.0,19.0,39.0,24.0,17.0,41.0,-30.0,0.0
5.0,-12.0,14.0,9.0,6.0,25.0,3.0,9.0,59.0,-2.0,0.0
3.0,-5.0,19.0,-4.0,-6.0,13.0,0.0,3.0,88.0,14.0,0.0
36.0,-2.0,6.0,-21.0,-21.0,3.0,1.0,7.0,112.0,75.0,0.0
62.0,10.0,-2.0,-11.0,-17.0,0.0,0.0,14.0,119.0,96.0,0.0
44.0,25.0,12.0,-11.0,-13.0,2.0,-2.0,15.0,88.0,60.0,0.0
21.0,22.0,11.0,-11.0,-14.0,1.0,3.0,2.0,71.0,61.0,0.0
7.0,14.0,-7.0,-11.0,-11.0,17.0,6.0,-13.0,25.0,35.0,0.0
-20.0,9.0,-13.0,-12.0,-13.0,35.0,5.0,-35.0,-82.0,-105.0,0.0
-61.0,-11.0,-15.0,-2.0,-13.0,41.0,18.0,-38.0,-131.0,-226.0,0.0
-50.0,-8.0,-12.0,9.0,-10.0,37.0,22.0,-26.0,-135.0,-240.0,0.0
-40.0,-1.0,13.0,13.0,-6.0,28.0,11.0,-29.0,-116.0,-215.0,0.0
-36.0,0.0,17.0,0.0,-5.0,16.0,6.0,-14.0,-80.0,-158.0,0.0
-21.0,0.0,5.0,-20.0,-19.0,7.0,2.0,-6.0,-40.0,-111.0,0.0
-12.0,17.0,13.0,-41.0,-21.0,0.0,-16.0,-17.0,-36.0,-77.0,0.0
-11.0,17.0,11.0,-40.0,-17.0,-4.0,-25.0,-27.0,-42.0,-37.0,0.0
0.0,11.0,-6.0,-23.0,-26.0,-4.0,-12.0,-15.0,-22.0,20.0,0.0
12.0,4.0,-3.0,0.0,-24.0,-5.0,-4.0,-5.0,-1.0,72.0,0.0
19.0,2.0,17.0,17.0,-29.0,-5.0,-10.0,-9.0,2.0,75.0,0.0
20.0,12.0,27.0,19.0,-33.0,-6.0,-5.0,-22.0,-15.0,29.0,0.0
20.0,15.0,33.0,4.0,-40.0,-9.0,-8.0,-32.0,-46.0,-54.0,0.0
30.0,20.0,23.0,-10.0,-39.0,-6.0,-9.0,-30.0,-36.0,-39.0,0.0
35.0,30.0,33.0,-18.0,-32.0,-8.0,-10.0,-24.0,-19.0,1.0,0.0
34.0,29.0,22.0,-30.0,-30.0,-10.0,-15.0,-27.0,-14.0,11.0,0.0
49.0,29.0,17.0,-26.0,-33.0,-15.0,-11.0,-13.0,-3.0,30.0,0.0
64.0,36.0,-5.0,-2.0,-25.0,-11.0,6.0,0.0,0.0,39.0,0.0
32.0,49.0,-4.0,4.0,-20.0,-11.0,3.0,-2.0,-19.0,10.0,0.0
-16.0,29.0,9.0,0.0,-15.0,-7.0,1.0,0.0,-25.0,-14.0,0.0
-43.0,12.0,-5.0,0.0,-20.0,-8.0,19.0,6.0,-24.0,-30.0,0.0
-51.0,1.0,-20.0,1.0,-22.0,2.0,32.0,8.0,-40.0,-76.0,0.0
-55.0,-20.0,-1.0,4.0,-16.0,7.0,25.0,15.0,-32.0,-90.0,0.0
-42.0,-2.0,10.0,20.0,-6.0,6.0,14.0,24.0,-31.0,-68.0,0.0
-24.0,7.0,-9.0,14.0,-9.0,0.0,13.0,2.0,-22.0,-59.0,0.0
-11.0,10.0,-14.0,3.0,-22.0,-12.0,-9.0,-21.0,-24.0,-46.0,0.0
-7.0,6.0,4.0,-10.0,-22.0,-15.0,-4.0,-15.0,-10.0,-19.0,0.0
-2.0,6.0,-1.0,-15.0,-20.0,-11.0,10.0,-6.0,-1.0,-12.0,0.0
7.0,7.0,-18.0,2.0,-28.0,-10.0,8.0,7.0,12.0,1.0,0.0
26.0,15.0,-21.0,5.0,-38.0,0.0,-1.0,15.0,20.0,23.0,0.0
26.0,21.0,-17.0,10.0,-41.0,6.0,-6.0,3.0,9.0,22.0,0.0
10.0,14.0,10.0,6.0,-25.0,-1.0,-14.0,0.0,-9.0,14.0,0.0
8.0,8.0,3.0,-5.0,-17.0,0.0,-2.0,-8.0,-9.0,20.0,0.0
23.0,16.0,-2.0,-9.0,-28.0,0.0,-1.0,-13.0,-11.0,33.0,0.0
26.0,12.0,9.0,-5.0,-16.0,5.0,6.0,8.0,-2.0,43.0,0.0
18.0,6.0,0.0,-3.0,-11.0,-1.0,19.0,11.0,3.0,51.0,0.0
14.0,-2.0,-10.0,1.0,-18.0,2.0,6.0,6.0,-8.0,45.0,0.0
15.0,-1.0,-6.0,2.0,-20.0,14.0,-1.0,6.0,-11.0,30.0,0.0
14.0,0.0,14.0,-10.0,-8.0,15.0,6.0,10.0,0.0,13.0,0.0
7.0,8.0,9.0,-16.0,-16.0,7.0,14.0,19.0,1.0,1.0,0.0
3.0,9.0,-2.0,-26.0,-16.0,10.0,16.0,19.0,-5.0,-6.0,0.0
-2.0,5.0,15.0,-17.0,-7.0,20.0,13.0,18.0,-19.0,-12.0,0.0
-10.0,14.0,3.0,-5.0,-8.0,23.0,13.0,15.0,-24.0,-26.0,0.0
-13.0,13.0,-4.0,4.0,-1.0,26.0,7.0,10.0,-23.0,-37.0,0.0
-9.0,8.0,12.0,8.0,-6.0,17.0,-2.0,2.0,-24.0,-45.0,0.0
2.0,10.0,-10.0,2.0,-23.0,10.0,-5.0,-2.0,-10.0,-11.0,0.0
15.0,5.0,-18.0,-3.0,-29.0,2.0,1.0,-2.0,17.0,50.0,0.0
26.0,-14.0,-14.0,-5.0,-36.0,8.0,-10.0,1.0,-18.0,65.0,0.0
27.0,-10.0,-17.0,-2.0,-31.0,7.0,-23.0,-4.0,-42.0,63.0,0.0
27.0,-8.0,-12.0,1.0,-28.0,5.0,-15.0,14.0,33.0,69.0,0.0
25.0,-1.0,6.0,10.0,-28.0,11.0,-9.0,19.0,64.0,31.0,0.0
17.0,-4.0,-3.0,14.0,-29.0,12.0,-12.0,8.0,39.0,-7.0,0.0
1.0,0.0,-19.0,11.0,-26.0,0.0,-16.0,26.0,73.0,18.0,0.0
-4.0,12.0,-17.0,20.0,-20.0,0.0,-16.0,26.0,71.0,42.0,0.0
9.0,30.0,-5.0,14.0,-23.0,-2.0,-21.0,12.0,49.0,66.0,0.0
17.0,33.0,15.0,9.0,-29.0,-9.0,-30.0,4.0,39.0,83.0,0.0
3.0,25.0,14.0,18.0,-37.0,2.0,-37.0,-1.0,25.0,63.0,0.0
-7.0,22.0,0.0,15.0,-39.0,1.0,-30.0,-13.0,13.0,45.0,0.0
-1.0,23.0,10.0,13.0,-44.0,-10.0,-24.0,-4.0,14.0,51.0,0.0
2.0,25.0,6.0,7.0,-43.0,-8.0,-17.0,-5.0,9.0,34.0,0.0
-24.0,9.0,-5.0,13.0,-46.0,4.0,-14.0,0.0,-9.0,-27.0,0.0
-61.0,-3.0,-6.0,22.0,-38.0,15.0,7.0,6.0,-22.0,-66.0,0.0
-71.0,-8.0,18.0,23.0,-26.0,13.0,24.0,15.0,-11.0,-65.0,0.0
-58.0,-8.0,10.0,21.0,-32.0,0.0,25.0,7.0,4.0,-24.0,0.0
-48.0,-15.0,13.0,11.0,-32.0,-13.0,18.0,10.0,11.0,7.0,0.0
-40.0,-16.0,7.0,16.0,-37.0,-21.0,16.0,11.0,8.0,32.0,0.0
-22.0,-9.0,-7.0,17.0,-42.0,-16.0,9.0,7.0,-22.0,45.0,0.0
-14.0,5.0,-23.0,11.0,-27.0,2.0,13.0,6.0,-46.0,31.0,0.0
-35.0,2.0,-22.0,12.0,-27.0,8.0,10.0,-19.0,-86.0,-27.0,0.0
-70.0,-1.0,-25.0,6.0,-33.0,-7.0,0.0,-42.0,-97.0,-64.0,0.0
-78.0,-7.0,-29.0,4.0,-38.0,-18.0,-10.0,-46.0,-45.0,-35.0,0.0
-51.0,-12.0,-30.0,6.0,-40.0,-28.0,-10.0,-29.0,-19.0,12.0,0.0
-46.0,0.0,-21.0,3.0,-49.0,-23.0,-9.0,-30.0,-41.0,11.0,0.0
-52.0,5.0,-17.0,-4.0,-42.0,-10.0,-4.0,-35.0,-59.0,4.0,0.0
-35.0,-6.0,-17.0,-18.0,-39.0,-6.0,9.0,6.0,-23.0,16.0,0.0
-27.0,1.0,-16.0,-16.0,-37.0,-6.0,9.0,32.0,10.0,45.0,0.0
-10.0,16.0,-15.0,-19.0,-34.0,-20.0,1.0,34.0,10.0,63.0,0.0
4.0,23.0,-8.0,-20.0,-37.0,-23.0,14.0,54.0,25.0,65.0,0.0
12.0,19.0,3.0,-24.0,-44.0,-23.0,15.0,42.0,25.0,62.0,0.0
24.0,22.0,25.0,-20.0,-54.0,-17.0,10.0,23.0,5.0,59.0,0.0
23.0,12.0,14.0,-17.0,-42.0,-8.0,6.0,10.0,-12.0,45.0,0.0
10.0,7.0,-1.0,-19.0,-48.0,-14.0,1.0,21.0,-6.0,47.0,0.0
11.0,19.0,-5.0,-29.0,-54.0,-25.0,-1.0,27.0,8.0,48.0,0.0
15.0,13.0,11.0,-27.0,-48.0,-25.0,1.0,19.0,-1.0,56.0,0.0
10.0,12.0,20.0,-23.0,-43.0,-32.0,-1.0,19.0,-2.0,56.0,0.0
11.0,23.0,0.0,-12.0,-41.0,-31.0,-7.0,3.0,-8.0,50.0,0.0
7.0,18.0,-10.0,-9.0,-47.0,-24.0,-13.0,0.0,-20.0,47.0,0.0
16.0,7.0,-11.0,-1.0,-45.0,-17.0,-10.0,-4.0,-35.0,74.0,0.0
25.0,16.0,-8.0,7.0,-37.0,-22.0,-4.0,-14.0,-28.0,132.0,0.0
33.0,15.0,-3.0,0.0,-28.0,-29.0,-14.0,-31.0,-19.0,177.0,0.0
37.0,21.0,14.0,11.0,-25.0,-27.0,-33.0,-42.0,-1.0,225.0,0.0
48.0,27.0,1.0,11.0,-30.0,-28.0,-40.0,-31.0,24.0,270.0,0.0
55.0,27.0,-9.0,5.0,-33.0,-24.0,-38.0,-34.0,36.0,275.0,0.0
47.0,19.0,-18.0,1.0,-33.0,-24.0,-28.0,-18.0,64.0,257.0,0.0
17.0,5.0,-18.0,-7.0,-46.0,-26.0,6.0,34.0,109.0,184.0,0.0
-2.0,8.0,-9.0,2.0,-33.0,-20.0,10.0,40.0,89.0,80.0,0.0
-10.0,12.0,-5.0,18.0,-26.0,-10.0,7.0,31.0,38.0,30.0,0.0
-23.0,7.0,-2.0,22.0,-21.0,0.0,10.0,18.0,21.0,27.0,0.0
-13.0,0.0,-3.0,27.0,-26.0,7.0,14.0,-5.0,-9.0,7.0,0.0
-3.0,16.0,-8.0,32.0,-29.0,4.0,14.0,-11.0,-59.0,-25.0,0.0
-9.0,14.0,-11.0,40.0,-36.0,0.0,-6.0,-23.0,-96.0,-112.0,0.0
-30.0,-8.0,-13.0,18.0,-38.0,3.0,-12.0,-22.0,-109.0,-156.0,0.0
-54.0,-28.0,-13.0,12.0,-28.0,24.0,10.0,0.0,-82.0,-138.0,0.0
-77.0,-44.0,-14.0,23.0,-14.0,25.0,20.0,5.0,-64.0,-157.0,0.0
-105.0,-50.0,-15.0,10.0,-8.0,17.0,15.0,6.0,-42.0,-153.0,0.0
-92.0,-42.0,-8.0,12.0,-15.0,20.0,15.0,11.0,-27.0,-109.0,0.0
-56.0,-20.0,-1.0,14.0,-20.0,23.0,10.0,8.0,-6.0,-62.0,0.0
-18.0,-8.0,-1.0,9.0,-11.0,17.0,-6.0,-3.0,-3.0,-37.0,0.0
-6.0,-9.0,-4.0,10.0,-10.0,10.0,-20.0,-17.0,-15.0,-24.0,0.0
-5.0,-26.0,-8.0,5.0,-12.0,9.0,-21.0,-6.0,17.0,20.0,0.0
0.0,-29.0,1.0,7.0,-8.0,7.0,-9.0,-5.0,35.0,22.0,0.0
8.0,-18.0,19.0,-2.0,-16.0,4.0,0.0,-23.0,-3.0,-1.0,0.0
6.0,-20.0,25.0,-7.0,-12.0,5.0,-1.0,-37.0,-27.0,-8.0,0.0
2.0,-16.0,4.0,-10.0,-4.0,0.0,-1.0,-27.0,-6.0,1.0,0.0
0.0,-11.0,1.0,-9.0,3.0,1.0,-7.0,-4.0,-4.0,20.0,0.0
-4.0,-22.0,-6.0,3.0,0.0,-2.0,-9.0,-2.0,-23.0,15.0,0.0
16.0,-14.0,-12.0,0.0,-13.0,-4.0,-20.0,-5.0,-5.0,97.0,0.0
44.0,4.0,-4.0,-4.0,-17.0,-7.0,-18.0,-11.0,38.0,196.0,0.0
47.0,18.0,0.0,-29.0,-20.0,-17.0,-20.0,-17.0,44.0,214.0,0.0
42.0,10.0,-3.0,-44.0,-34.0,-21.0,-28.0,-10.0,21.0,226.0,0.0
35.0,-6.0,-11.0,-51.0,-37.0,-20.0,-37.0,-13.0,2.0,145.0,0.0
19.0,-9.0,-4.0,-46.0,-33.0,-15.0,-41.0,-33.0,-41.0,-67.0,0.0
11.0,7.0,18.0,-40.0,-29.0,-11.0,-34.0,-37.0,-69.0,-155.0,0.0
12.0,13.0,22.0,-37.0,-32.0,-6.0,-11.0,-14.0,-66.0,-145.0,0.0
-10.0,6.0,15.0,-27.0,-23.0,3.0,7.0,-9.0,-88.0,-177.0,0.0
-35.0,-2.0,25.0,-29.0,-13.0,10.0,12.0,-8.0,-74.0,-187.0,0.0
-23.0,2.0,25.0,-10.0,-16.0,8.0,5.0,3.0,-20.0,-110.0,0.0
8.0,12.0,8.0,0.0,-26.0,-13.0,-5.0,-1.0,8.0,-43.0,0.0
26.0,15.0,13.0,-11.0,-30.0,-34.0,-26.0,-18.0,7.0,-5.0,0.0
28.0,12.0,26.0,-8.0,-42.0,-30.0,-27.0,-29.0,-6.0,17.0,0.0
40.0,6.0,10.0,-9.0,-42.0,-21.0,-14.0,-36.0,1.0,42.0,0.0
37.0,8.0,-8.0,-7.0,-39.0,-13.0,-10.0,-23.0,27.0,52.0,0.0
19.0,-4.0,-15.0,-11.0,-29.0,-7.0,0.0,0.0,48.0,51.0,0.0
-13.0,-11.0,-9.0,-5.0,-13.0,2.0,12.0,9.0,46.0,0.0,0.0
-35.0,-2.0,9.0,-3.0,-21.0,-1.0,16.0,-1.0,18.0,-48.0,0.0
-33.0,-8.0,19.0,3.0,-17.0,-1.0,21.0,-5.0,-10.0,-61.0,0.0
-21.0,-6.0,6.0,8.0,-9.0,0.0,23.0,-5.0,0.0,-59.0,0.0
-9.0,3.0,-2.0,3.0,-17.0,0.0,22.0,5.0,5.0,-56.0,0.0
-2.0,3.0,9.0,8.0,-15.0,9.0,26.0,18.0,19.0,-60.0,0.0
-2.0,3.0,23.0,10.0,-23.0,3.0,30.0,-3.0,16.0,-91.0,0.0
-5.0,7.0,7.0,-2.0,-26.0,-7.0,23.0,-17.0,6.0,-91.0,0.0
-6.0,2.0,3.0,-15.0,-22.0,6.0,20.0,-22.0,20.0,-13.0,0.0
23.0,0.0,21.0,-10.0,-24.0,10.0,17.0,3.0,48.0,89.0,0.0
33.0,0.0,9.0,0.0,-22.0,-2.0,10.0,9.0,44.0,134.0,0.0
33.0,0.0,13.0,5.0,-21.0,-12.0,18.0,0.0,21.0,120.0,0.0
22.0,0.0,11.0,-6.0,-25.0,-3.0,31.0,-13.0,-9.0,-10.0,0.0
0.0,3.0,3.0,-2.0,-34.0,15.0,29.0,-17.0,-41.0,-153.0,0.0
0.0,2.0,24.0,1.0,-30.0,10.0,23.0,-10.0,-32.0,-136.0,0.0
7.0,9.0,24.0,6.0,-21.0,-1.0,9.0,-17.0,-28.0,-90.0,0.0
0.0,9.0,14.0,0.0,-29.0,3.0,17.0,-9.0,-6.0,-69.0,0.0
9.0,11.0,11.0,-8.0,-33.0,4.0,15.0,-10.0,19.0,-58.0,0.0
17.0,14.0,4.0,-13.0,-35.0,0.0,14.0,-27.0,0.0,-52.0,0.0
17.0,11.0,11.0,-10.0,-39.0,4.0,29.0,-9.0,1.0,-14.0,0.0
-10.0,-2.0,0.0,0.0,-19.0,16.0,35.0,0.0,-12.0,-12.0,0.0
-26.0,-2.0,4.0,5.0,-3.0,29.0,31.0,-4.0,-41.0,-38.0,0.0
-20.0,7.0,22.0,9.0,4.0,26.0,35.0,-4.0,-41.0,-57.0,0.0
-3.0,13.0,5.0,1.0,-5.0,22.0,19.0,-4.0,-37.0,-30.0,0.0
1.0,0.0,4.0,-8.0,-17.0,25.0,11.0,9.0,-6.0,8.0,0.0
1.0,-6.0,11.0,-17.0,-28.0,19.0,11.0,43.0,59.0,24.0,0.0
2.0,0.0,-6.0,-10.0,-23.0,9.0,7.0,41.0,60.0,29.0,0.0
18.0,4.0,1.0,-8.0,-16.0,7.0,10.0,10.0,44.0,52.0,0.0
40.0,8.0,3.0,-12.0,-18.0,2.0,6.0,-10.0,51.0,90.0,0.0
30.0,7.0,-13.0,-21.0,-34.0,-5.0,-6.0,-1.0,81.0,111.0,0.0
25.0,6.0,-23.0,-25.0,-45.0,-4.0,-8.0,11.0,124.0,168.0,0.0
28.0,-4.0,-24.0,-20.0,-51.0,-8.0,-7.0,11.0,113.0,195.0,0.0
32.0,-4.0,-18.0,-27.0,-55.0,-12.0,-6.0,-10.0,35.0,136.0,0.0
25.0,3.0,11.0,-21.0,-41.0,-12.0,-10.0,-30.0,-60.0,-11.0,0.0
4.0,9.0,21.0,-22.0,-34.0,-4.0,-6.0,-22.0,-88.0,-76.0,0.0
-1.0,24.0,33.0,-26.0,-24.0,0.0,2.0,-13.0,-81.0,-57.0,0.0
-10.0,10.0,13.0,-24.0,-21.0,-3.0,5.0,-11.0,-62.0,-42.0,0.0
-33.0,0.0,12.0,-9.0,-16.0,2.0,14.0,0.0,-40.0,-31.0,0.0
-31.0,-7.0,4.0,-7.0,-12.0,4.0,14.0,4.0,-27.0,-31.0,0.0
-12.0,-7.0,23.0,-7.0,-10.0,-1.0,10.0,0.0,-19.0,-34.0,0.0
-6.0,-1.0,36.0,-2.0,-19.0,6.0,-2.0,-5.0,-20.0,-20.0,0.0
3.0,1.0,25.0,0.0,-11.0,5.0,-7.0,0.0,-21.0,-5.0,0.0
0.0,-2.0,9.0,-7.0,-2.0,-4.0,-7.0,-4.0,-11.0,-2.0,0.0
-3.0,0.0,4.0,-18.0,-3.0,-2.0,-2.0,-1.0,5.0,0.0,0.0
-2.0,0.0,3.0,-15.0,-6.0,-1.0,-5.0,7.0,-11.0,-11.0,0.0
-3.0,-2.0,12.0,-14.0,-14.0,-8.0,3.0,15.0,-19.0,-17.0,0.0
-12.0,-1.0,5.0,-13.0,-18.0,-13.0,11.0,10.0,-7.0,23.0,0.0
-8.0,-7.0,9.0,-21.0,-15.0,-23.0,0.0,3.0,-8.0,38.0,0.0
10.0,0.0,-12.0,-37.0,-19.0,-21.0,-16.0,0.0,-9.0,38.0,0.0
19.0,9.0,0.0,-35.0,-19.0,-16.0,-17.0,17.0,0.0,29.0,0.0
21.0,15.0,4.0,-27.0,-14.0,-7.0,-16.0,14.0,0.0,28.0,0.0
17.0,16.0,-11.0,-22.0,-14.0,-2.0,-10.0,9.0,22.0,33.0,0.0
17.0,7.0,0.0,-26.0,-13.0,-3.0,-2.0,16.0,20.0,56.0,0.0
20.0,8.0,-8.0,-17.0,-20.0,-9.0,-11.0,8.0,-24.0,54.0,0.0
45.0,3.0,-15.0,3.0,-28.0,-14.0,-29.0,4.0,-47.0,36.0,0.0
48.0,0.0,6.0,7.0,-25.0,-5.0,-31.0,8.0,-44.0,45.0,0.0
26.0,-7.0,0.0,8.0,-13.0,-8.0,-47.0,0.0,-46.0,27.0,0.0
7.0,-14.0,-5.0,3.0,-3.0,-5.0,-48.0,-9.0,-45.0,-2.0,0.0
-3.0,-29.0,1.0,-13.0,2.0,0.0,-19.0,-18.0,-42.0,-12.0,0.0
-14.0,-29.0,-19.0,-21.0,3.0,-4.0,-17.0,-16.0,-55.0,-29.0,0.0
3.0,-22.0,-21.0,-21.0,-5.0,-8.0,-29.0,-21.0,-39.0,0.0,0.0
29.0,-24.0,-7.0,-27.0,-10.0,-10.0,-33.0,-8.0,-24.0,12.0,0.0
21.0,-27.0,9.0,-21.0,-11.0,-8.0,-33.0,1.0,-22.0,-24.0,0.0
16.0,-25.0,11.0,-23.0,-9.0,-14.0,-35.0,-12.0,-8.0,-35.0,0.0
8.0,-15.0,13.0,-24.0,-2.0,-19.0,-26.0,-10.0,-6.0,-48.0,0.0
-11.0,-17.0,-11.0,-21.0,6.0,-7.0,-15.0,4.0,-6.0,-74.0,0.0
-45.0,-27.0,-28.0,0.0,18.0,3.0,-4.0,7.0,-8.0,-124.0,0.0
-55.0,-37.0,-15.0,23.0,25.0,20.0,0.0,15.0,-16.0,-164.0,0.0
-37.0,-30.0,3.0,20.0,22.0,31.0,-5.0,26.0,-20.0,-152.0,0.0
-13.0,-22.0,-6.0,11.0,16.0,25.0,-10.0,32.0,-6.0,-97.0,0.0
-6.0,-22.0,-7.0,15.0,13.0,20.0,-2.0,25.0,6.0,-41.0,0.0
0.0,-17.0,10.0,12.0,15.0,12.0,-5.0,12.0,25.0,-7.0,0.0
8.0,-9.0,-2.0,2.0,9.0,12.0,-19.0,-2.0,26.0,5.0,0.0
6.0,-10.0,-2.0,8.0,2.0,6.0,-21.0,-10.0,26.0,0.0,0.0
0.0,-16.0,11.0,18.0,4.0,12.0,8.0,2.0,37.0,-21.0,0.0
-15.0,-10.0,4.0,24.0,17.0,13.0,32.0,29.0,62.0,-27.0,0.0
-26.0,-16.0,5.0,27.0,10.0,9.0,16.0,31.0,83.0,-34.0,0.0
-30.0,-26.0,-4.0,16.0,-2.0,1.0,-3.0,10.0,59.0,-36.0,0.0
-19.0,-16.0,0.0,11.0,-2.0,0.0,-11.0,3.0,1.0,-44.0,0.0
-3.0,-3.0,16.0,8.0,9.0,-4.0,-10.0,6.0,-12.0,-33.0,0.0
8.0,0.0,0.0,12.0,18.0,-7.0,-14.0,7.0,-6.0,-23.0,0.0
20.0,-11.0,12.0,11.0,15.0,-5.0,-7.0,1.0,-17.0,-25.0,0.0
26.0,0.0,9.0,8.0,18.0,5.0,-4.0,7.0,-18.0,-32.0,0.0
37.0,7.0,10.0,5.0,11.0,4.0,-15.0,10.0,-12.0,13.0,0.0
41.0,5.0,4.0,-2.0,5.0,-5.0,-12.0,5.0,7.0,57.0,0.0
34.0,5.0,-19.0,-5.0,4.0,-2.0,-12.0,5.0,25.0,60.0,0.0
26.0,-2.0,-3.0,-12.0,0.0,0.0,-26.0,-4.0,12.0,63.0,0.0
7.0,-9.0,-10.0,-4.0,-6.0,-4.0,-36.0,-3.0,20.0,54.0,0.0
-9.0,-14.0,-26.0,-5.0,-3.0,2.0,-28.0,11.0,2.0,-12.0,0.0
-13.0,-16.0,-19.0,2.0,4.0,10.0,-17.0,13.0,-41.0,-109.0,0.0
-25.0,-18.0,3.0,15.0,4.0,15.0,-13.0,7.0,-52.0,-150.0,0.0
-34.0,-16.0,13.0,21.0,15.0,21.0,9.0,22.0,-31.0,-153.0,0.0
-43.0,-19.0,-6.0,30.0,17.0,19.0,15.0,11.0,-53.0,-164.0,0.0
-58.0,-19.0,6.0,19.0,16.0,14.0,-1.0,-5.0,-92.0,-186.0,0.0
-66.0,-17.0,5.0,7.0,8.0,6.0,5.0,-1.0,-89.0,-181.0,0.0
-62.0,-20.0,-21.0,12.0,0.0,8.0,0.0,1.0,-67.0,-152.0,0.0
-36.0,-16.0,-30.0,7.0,-10.0,5.0,1.0,10.0,-29.0,-118.0,0.0
-20.0,-7.0,-27.0,10.0,-8.0,3.0,8.0,12.0,-10.0,-102.0,0.0
-13.0,-8.0,-26.0,8.0,0.0,-7.0,7.0,20.0,-2.0,-73.0,0.0
-3.0,-6.0,-5.0,5.0,-7.0,-2.0,10.0,23.0,19.0,-51.0,0.0
3.0,7.0,6.0,9.0,-19.0,12.0,14.0,36.0,39.0,-66.0,0.0
5.0,3.0,-6.0,7.0,-15.0,17.0,29.0,46.0,55.0,-62.0,0.0
9.0,10.0,-11.0,-5.0,-17.0,4.0,27.0,36.0,64.0,-39.0,0.0
7.0,21.0,12.0,-6.0,-23.0,4.0,4.0,19.0,45.0,-36.0,0.0
0.0,26.0,8.0,-13.0,-14.0,8.0,2.0,-10.0,11.0,-67.0,0.0
-2.0,23.0,10.0,-19.0,-10.0,3.0,6.0,-21.0,-25.0,-116.0,0.0
-4.0,21.0,13.0,-19.0,-12.0,2.0,13.0,-13.0,-40.0,-141.0,0.0
-5.0,25.0,-8.0,-6.0,-11.0,9.0,11.0,-17.0,-53.0,-156.0,0.0
3.0,25.0,-12.0,-8.0,-14.0,10.0,9.0,-18.0,-46.0,-166.0,0.0
2.0,28.0,-5.0,-18.0,-14.0,2.0,3.0,-2.0,-49.0,-176.0,0.0
4.0,26.0,8.0,-28.0,-17.0,-3.0,-7.0,13.0,-38.0,-172.0,0.0
5.0,11.0,-6.0,-46.0,-24.0,-3.0,-13.0,21.0,-21.0,-165.0,0.0
4.0,12.0,-11.0,-46.0,-12.0,4.0,-19.0,15.0,-6.0,-167.0,0.0
11.0,13.0,7.0,-25.0,-9.0,0.0,-4.0,14.0,16.0,-165.0,0.0
27.0,4.0,8.0,-5.0,-10.0,-13.0,-12.0,5.0,16.0,-140.0,0.0
35.0,0.0,-5.0,-7.0,-11.0,-8.0,-5.0,15.0,16.0,-129.0,0.0
21.0,2.0,-13.0,-12.0,-4.0,0.0,-4.0,25.0,8.0,-127.0,0.0
23.0,7.0,2.0,-4.0,-6.0,9.0,-13.0,15.0,0.0,-101.0,0.0
22.0,11.0,7.0,-14.0,-8.0,3.0,-13.0,4.0,-7.0,-89.0,0.0
31.0,6.0,-4.0,-2.0,-22.0,-8.0,-11.0,14.0,-13.0,-103.0,0.0
40.0,6.0,-17.0,-5.0,-25.0,-15.0,-13.0,3.0,-10.0,-111.0,0.0
36.0,16.0,-26.0,-13.0,-22.0,-13.0,-33.0,-3.0,-7.0,-110.0,0.0
27.0,20.0,-26.0,-4.0,-19.0,-7.0,-43.0,1.0,-10.0,-117.0,0.0
15.0,11.0,-23.0,-9.0,-23.0,-19.0,-43.0,-8.0,-16.0,-119.0,0.0
17.0,-1.0,-22.0,-21.0,-31.0,-31.0,-45.0,-5.0,3.0,-95.0,0.0
16.0,-5.0,-21.0,-25.0,-25.0,-20.0,-36.0,24.0,43.0,-77.0,0.0
20.0,-7.0,-14.0,-13.0,-14.0,-2.0,-15.0,36.0,56.0,-77.0,0.0
25.0,-9.0,10.0,-4.0,-15.0,2.0,-12.0,22.0,31.0,-80.0,0.0
23.0,0.0,11.0,-1.0,-13.0,-5.0,-17.0,1.0,8.0,-63.0,0.0
31.0,4.0,-10.0,-2.0,-15.0,-15.0,-26.0,-17.0,-6.0,-45.0,0.0
31.0,0.0,6.0,7.0,-21.0,-24.0,-30.0,-28.0,-20.0,-46.0,0.0
43.0,0.0,28.0,6.0,-16.0,-16.0,-26.0,-25.0,-9.0,-61.0,0.0
27.0,-6.0,10.0,4.0,-4.0,1.0,-14.0,-10.0,21.0,-71.0,0.0
15.0,-12.0,-1.0,12.0,-1.0,14.0,0.0,14.0,41.0,-60.0,0.0
3.0,-4.0,13.0,18.0,-7.0,-1.0,-6.0,33.0,39.0,-51.0,0.0
0.0,-8.0,17.0,2.0,-25.0,-23.0,-10.0,42.0,90.0,-24.0,0.0
18.0,-2.0,14.0,-5.0,-29.0,-28.0,-17.0,37.0,89.0,-12.0,0.0
20.0,5.0,20.0,-6.0,-34.0,-18.0,-16.0,24.0,39.0,-27.0,0.0
5.0,0.0,0.0,-3.0,-27.0,1.0,-9.0,38.0,19.0,-52.0,0.0
-12.0,-8.0,-9.0,6.0,-14.0,14.0,-9.0,40.0,-8.0,-83.0,0.0
-30.0,-10.0,5.0,11.0,-9.0,13.0,-10.0,13.0,-34.0,-113.0,0.0
-43.0,-8.0,5.0,12.0,-6.0,20.0,2.0,2.0,-44.0,-106.0,0.0
-34.0,-6.0,-8.0,6.0,-7.0,10.0,-2.0,-9.0,-58.0,-85.0,0.0
-24.0,1.0,-9.0,2.0,-5.0,-8.0,-13.0,-22.0,-47.0,-59.0,0.0
-17.0,4.0,0.0,8.0,-15.0,-8.0,-17.0,-18.0,-38.0,-36.0,0.0
-18.0,7.0,18.0,15.0,-15.0,-11.0,-6.0,-16.0,-36.0,-18.0,0.0
-11.0,15.0,6.0,12.0,-10.0,-16.0,-1.0,-6.0,-24.0,-9.0,0.0
-11.0,10.0,17.0,7.0,-16.0,-12.0,-1.0,14.0,44.0,3.0,0.0
2.0,2.0,4.0,-6.0,-21.0,-14.0,-2.0,35.0,121.0,17.0,0.0
12.0,10.0,-13.0,-6.0,-16.0,-10.0,3.0,28.0,105.0,22.0,0.0
31.0,20.0,-15.0,0.0,-19.0,-10.0,6.0,15.0,68.0,13.0,0.0
33.0,28.0,2.0,-3.0,-27.0,-17.0,-9.0,-15.0,32.0,11.0,0.0
26.0,23.0,24.0,0.0,-24.0,-22.0,-18.0,-23.0,25.0,41.0,0.0
25.0,16.0,25.0,-1.0,-26.0,-13.0,-14.0,-5.0,57.0,84.0,0.0
34.0,8.0,2.0,-7.0,-24.0,-8.0,-8.0,0.0,71.0,147.0,0.0
48.0,13.0,-18.0,-10.0,-23.0,-10.0,-10.0,14.0,73.0,205.0,0.0
48.0,20.0,-23.0,-18.0,-32.0,-22.0,-17.0,1.0,56.0,211.0,0.0
58.0,19.0,-21.0,-21.0,-31.0,-30.0,-21.0,-20.0,33.0,192.0,0.0
68.0,32.0,-7.0,-11.0,-24.0,-22.0,-29.0,-28.0,29.0,206.0,0.0
68.0,25.0,17.0,-6.0,-26.0,-7.0,-28.0,-34.0,13.0,231.0,0.0
31.0,-3.0,6.0,-9.0,-21.0,-4.0,-23.0,-21.0,11.0,170.0,0.0
-8.0,-26.0,-3.0,-16.0,-20.0,4.0,-12.0,1.0,22.0,-12.0,0.0
-13.0,-14.0,20.0,-5.0,-18.0,4.0,-2.0,-11.0,3.0,-95.0,0.0
13.0,6.0,4.0,4.0,-19.0,-4.0,-13.0,-21.0,-13.0,-42.0,0.0
37.0,20.0,-4.0,-1.0,-19.0,-3.0,-24.0,-17.0,-25.0,-27.0,0.0
49.0,23.0,19.0,4.0,-20.0,5.0,-16.0,-4.0,-49.0,-42.0,0.0
36.0,21.0,14.0,1.0,-17.0,12.0,2.0,-7.0,-41.0,-38.0,0.0
-6.0,-6.0,17.0,2.0,-19.0,14.0,10.0,-8.0,-28.0,-60.0,0.0
-52.0,-27.0,7.0,9.0,-10.0,24.0,15.0,3.0,-34.0,-95.0,0.0
-79.0,-37.0,17.0,11.0,-5.0,34.0,33.0,13.0,-38.0,-122.0,0.0
-91.0,-45.0,18.0,7.0,6.0,29.0,43.0,18.0,-42.0,-129.0,0.0
-82.0,-40.0,14.0,-4.0,11.0,21.0,42.0,19.0,-46.0,-81.0,0.0
-38.0,-25.0,8.0,1.0,8.0,12.0,32.0,21.0,-49.0,-13.0,0.0
-4.0,-5.0,4.0,-1.0,5.0,-2.0,23.0,9.0,-42.0,28.0,0.0
8.0,0.0,21.0,-1.0,9.0,-12.0,15.0,7.0,-30.0,46.0,0.0
-4.0,-7.0,21.0,-4.0,10.0,-8.0,11.0,17.0,-21.0,36.0,0.0
-37.0,-23.0,23.0,-2.0,24.0,1.0,15.0,26.0,-15.0,-6.0,0.0
-58.0,-33.0,19.0,0.0,33.0,5.0,23.0,20.0,-19.0,-49.0,0.0
-54.0,-34.0,-2.0,1.0,26.0,1.0,32.0,30.0,-9.0,-47.0,0.0
-10.0,-28.0,18.0,-6.0,14.0,-12.0,31.0,30.0,56.0,73.0,0.0
6.0,-27.0,7.0,-11.0,9.0,-22.0,18.0,19.0,37.0,61.0,0.0
6.0,-24.0,7.0,-28.0,5.0,-33.0,2.0,12.0,37.0,63.0,0.0
-3.0,-18.0,-3.0,-34.0,12.0,-32.0,1.0,6.0,24.0,56.0,0.0
-2.0,-18.0,10.0,-30.0,20.0,-31.0,-15.0,0.0,8.0,45.0,0.0
-1.0,-6.0,-4.0,-15.0,11.0,-32.0,-29.0,-11.0,-3.0,29.0,0.0
-6.0,4.0,-2.0,-7.0,9.0,-24.0,-1.0,4.0,-2.0,36.0,0.0
1.0,-7.0,7.0,-1.0,19.0,-12.0,3.0,13.0,13.0,38.0,0.0
5.0,0.0,9.0,0.0,17.0,-20.0,-3.0,-3.0,13.0,42.0,0.0
-1.0,14.0,9.0,-1.0,27.0,-24.0,2.0,-22.0,8.0,41.0,0.0
6.0,7.0,7.0,-7.0,21.0,-25.0,0.0,-23.0,9.0,44.0,0.0
6.0,2.0,2.0,-15.0,17.0,-26.0,-7.0,-18.0,17.0,56.0,0.0
9.0,6.0,1.0,-12.0,11.0,-23.0,-4.0,0.0,30.0,70.0,0.0
19.0,19.0,4.0,-17.0,7.0,-20.0,6.0,2.0,53.0,101.0,0.0
41.0,27.0,7.0,-25.0,1.0,-18.0,9.0,4.0,114.0,162.0,0.0
52.0,16.0,9.0,-20.0,3.0,-21.0,10.0,10.0,137.0,171.0,0.0
49.0,1.0,7.0,-19.0,-4.0,-25.0,5.0,22.0,125.0,188.0,0.0
52.0,1.0,-13.0,-22.0,-7.0,-35.0,3.0,24.0,115.0,247.0,0.0
68.0,12.0,-24.0,-28.0,-16.0,-46.0,-9.0,16.0,76.0,237.0,0.0
71.0,13.0,-3.0,-22.0,-12.0,-30.0,-4.0,2.0,42.0,163.0,0.0
61.0,13.0,-2.0,-9.0,2.0,-11.0,4.0,-2.0,49.0,157.0,0.0
43.0,20.0,2.0,9.0,13.0,-16.0,14.0,-10.0,-25.0,73.0,0.0
-10.0,12.0,10.0,16.0,10.0,-14.0,8.0,-25.0,-93.0,-138.0,0.0
-41.0,9.0,5.0,12.0,10.0,-5.0,-3.0,-42.0,-129.0,-242.0,0.0
-44.0,12.0,12.0,21.0,13.0,-2.0,2.0,-49.0,-118.0,-232.0,0.0
-33.0,19.0,13.0,15.0,20.0,0.0,19.0,-35.0,-89.0,-185.0,0.0
0.0,23.0,-2.0,14.0,25.0,0.0,15.0,2.0,-51.0,-117.0,0.0
22.0,14.0,2.0,17.0,15.0,-4.0,16.0,7.0,0.0,-40.0,0.0
16.0,-1.0,12.0,14.0,7.0,-3.0,21.0,10.0,35.0,38.0,0.0
10.0,0.0,12.0,3.0,-3.0,1.0,19.0,23.0,52.0,101.0,0.0
17.0,3.0,-2.0,0.0,-6.0,-3.0,15.0,12.0,36.0,135.0,0.0
20.0,6.0,4.0,-2.0,-3.0,-20.0,-5.0,-3.0,15.0,86.0,0.0
30.0,0.0,-3.0,4.0,-6.0,-22.0,-18.0,-9.0,-18.0,-17.0,0.0
20.0,10.0,14.0,19.0,4.0,-24.0,-12.0,-5.0,-9.0,-42.0,0.0
1.0,6.0,12.0,16.0,11.0,-11.0,0.0,6.0,5.0,-53.0,0.0
-23.0,0.0,7.0,1.0,16.0,9.0,8.0,8.0,-8.0,-102.0,0.0
-43.0,-15.0,3.0,-10.0,19.0,19.0,13.0,19.0,-18.0,-140.0,0.0
-48.0,-30.0,-7.0,6.0,17.0,26.0,16.0,15.0,-24.0,-144.0,0.0
-60.0,-35.0,-29.0,18.0,16.0,27.0,29.0,23.0,-29.0,-167.0,0.0
-66.0,-35.0,-14.0,29.0,19.0,19.0,37.0,20.0,-32.0,-171.0,0.0
-67.0,-32.0,0.0,26.0,26.0,22.0,29.0,12.0,-23.0,-155.0,0.0
-42.0,-25.0,5.0,13.0,26.0,11.0,11.0,3.0,-32.0,-134.0,0.0
-14.0,-29.0,6.0,18.0,19.0,2.0,5.0,0.0,-21.0,-94.0,0.0
0.0,-24.0,7.0,18.0,10.0,-3.0,20.0,6.0,-14.0,-56.0,0.0
6.0,-3.0,-6.0,16.0,11.0,-1.0,15.0,3.0,-19.0,-33.0,0.0
13.0,-1.0,-14.0,13.0,0.0,-2.0,0.0,-14.0,-7.0,12.0,0.0
26.0,-10.0,-7.0,0.0,-3.0,-2.0,8.0,-15.0,7.0,49.0,0.0
18.0,-16.0,-13.0,3.0,-9.0,-12.0,4.0,-13.0,23.0,55.0,0.0
-2.0,-28.0,-7.0,3.0,-5.0,-5.0,10.0,5.0,31.0,8.0,0.0
-16.0,-28.0,-2.0,6.0,-3.0,2.0,10.0,-4.0,-7.0,-100.0,0.0
-19.0,-18.0,-9.0,14.0,0.0,0.0,9.0,-10.0,-25.0,-113.0,0.0
-10.0,-12.0,3.0,13.0,3.0,-4.0,13.0,-3.0,-26.0,-111.0,0.0
-20.0,-12.0,-9.0,12.0,2.0,-11.0,10.0,-1.0,-33.0,-106.0,0.0
-21.0,-11.0,-2.0,10.0,-14.0,-1.0,10.0,12.0,-17.0,-68.0,0.0
0.0,-3.0,-2.0,1.0,-18.0,3.0,5.0,10.0,4.0,-32.0,0.0
16.0,10.0,-11.0,-3.0,-17.0,-7.0,1.0,-4.0,19.0,9.0,0.0
16.0,8.0,10.0,-1.0,-12.0,-9.0,0.0,-14.0,17.0,27.0,0.0
5.0,2.0,-12.0,-2.0,-8.0,-1.0,11.0,8.0,27.0,33.0,0.0
-16.0,0.0,-32.0,-9.0,-19.0,2.0,18.0,30.0,47.0,8.0,0.0
-27.0,2.0,-6.0,-17.0,-34.0,-7.0,10.0,11.0,13.0,-66.0,0.0
-47.0,-2.0,-4.0,-16.0,-23.0,-10.0,15.0,-1.0,-65.0,-144.0,0.0
-60.0,-15.0,-14.0,-6.0,-21.0,1.0,31.0,7.0,-80.0,-162.0,0.0
-54.0,-16.0,4.0,5.0,-11.0,10.0,41.0,26.0,-70.0,-151.0,0.0
-36.0,-9.0,7.0,0.0,-5.0,9.0,29.0,44.0,-26.0,-111.0,0.0
-16.0,-5.0,9.0,3.0,-2.0,11.0,27.0,50.0,60.0,-65.0,0.0
9.0,1.0,-2.0,15.0,-8.0,0.0,14.0,35.0,108.0,-19.0,0.0
17.0,8.0,2.0,0.0,-12.0,-2.0,0.0,7.0,60.0,-1.0,0.0
8.0,9.0,15.0,-32.0,-19.0,4.0,-6.0,-7.0,17.0,13.0,0.0
8.0,3.0,11.0,-30.0,-19.0,13.0,1.0,2.0,24.0,29.0,0.0
13.0,-3.0,-2.0,-27.0,-19.0,7.0,7.0,12.0,21.0,42.0,0.0
28.0,-2.0,-13.0,-16.0,-14.0,11.0,8.0,12.0,18.0,62.0,0.0
35.0,13.0,7.0,-2.0,-17.0,8.0,10.0,-5.0,8.0,64.0,0.0
36.0,14.0,-4.0,8.0,-16.0,17.0,-2.0,-1.0,14.0,42.0,0.0
16.0,9.0,-11.0,14.0,-12.0,18.0,-9.0,18.0,14.0,28.0,0.0
3.0,0.0,0.0,18.0,-4.0,13.0,-7.0,17.0,3.0,18.0,0.0
-1.0,-16.0,-12.0,17.0,5.0,16.0,-5.0,9.0,-9.0,2.0,0.0
-20.0,-30.0,-20.0,11.0,8.0,20.0,1.0,11.0,-12.0,5.0,0.0
-28.0,-34.0,4.0,15.0,14.0,28.0,9.0,24.0,2.0,30.0,0.0
-18.0,-28.0,8.0,29.0,26.0,34.0,9.0,28.0,1.0,47.0,0.0
-10.0,-26.0,14.0,30.0,24.0,31.0,12.0,27.0,0.0,70.0,0.0
5.0,-22.0,1.0,18.0,18.0,31.0,7.0,20.0,11.0,81.0,0.0
23.0,-4.0,13.0,8.0,9.0,30.0,5.0,4.0,5.0,74.0,0.0
21.0,1.0,6.0,20.0,7.0,32.0,1.0,-4.0,4.0,74.0,0.0
11.0,-8.0,9.0,21.0,6.0,45.0,-1.0,7.0,6.0,71.0,0.0
6.0,-7.0,1.0,8.0,11.0,50.0,-8.0,-1.0,-3.0,52.0,0.0
-9.0,-1.0,5.0,0.0,9.0,43.0,-23.0,-8.0,-10.0,39.0,0.0
-11.0,17.0,-1.0,-12.0,-6.0,23.0,-30.0,-29.0,-27.0,41.0,0.0
-8.0,28.0,7.0,5.0,-9.0,13.0,-27.0,-45.0,-29.0,64.0,0.0
0.0,25.0,-7.0,11.0,-6.0,7.0,-26.0,-32.0,-7.0,88.0,0.0
15.0,17.0,-17.0,-2.0,-6.0,2.0,-7.0,-20.0,5.0,79.0,0.0
22.0,18.0,6.0,-3.0,-10.0,-4.0,-9.0,-8.0,-2.0,79.0,0.0
33.0,18.0,2.0,-2.0,-8.0,-1.0,-13.0,-8.0,-27.0,83.0,0.0
23.0,13.0,6.0,-1.0,-10.0,8.0,-7.0,-3.0,-29.0,75.0,0.0
2.0,0.0,-6.0,5.0,-5.0,19.0,-2.0,14.0,-9.0,72.0,0.0
5.0,14.0,-10.0,1.0,-5.0,14.0,-11.0,-1.0,-15.0,72.0,0.0
19.0,41.0,3.0,-20.0,-20.0,0.0,-29.0,-29.0,-30.0,72.0,0.0
15.0,52.0,-11.0,-32.0,-34.0,-5.0,-31.0,-44.0,-26.0,75.0,0.0
12.0,31.0,-20.0,-35.0,-24.0,-1.0,-15.0,-39.0,-6.0,81.0,0.0
10.0,35.0,-3.0,-20.0,-7.0,-6.0,-8.0,-34.0,-1.0,58.0,0.0
5.0,23.0,-8.0,-16.0,5.0,-5.0,-9.0,-31.0,0.0,63.0,0.0
-5.0,0.0,0.0,-9.0,13.0,-2.0,2.0,-21.0,10.0,54.0,0.0
-15.0,5.0,8.0,0.0,18.0,0.0,11.0,-25.0,5.0,40.0,0.0
-14.0,7.0,-4.0,0.0,13.0,-4.0,-5.0,-29.0,-16.0,31.0,0.0
-10.0,6.0,6.0,-6.0,8.0,-5.0,-24.0,-25.0,-14.0,30.0,0.0
-5.0,4.0,6.0,1.0,7.0,-1.0,-12.0,-16.0,-11.0,23.0,0.0
-18.0,12.0,18.0,23.0,8.0,-2.0,-8.0,-6.0,-22.0,23.0,0.0
-25.0,0.0,-5.0,16.0,5.0,-1.0,-13.0,-2.0,-20.0,23.0,0.0
-17.0,-7.0,-5.0,10.0,8.0,1.0,-12.0,0.0,-6.0,23.0,0.0
2.0,4.0,7.0,6.0,4.0,-5.0,-24.0,14.0,14.0,19.0,0.0
10.0,9.0,10.0,1.0,-4.0,-12.0,-22.0,2.0,5.0,18.0,0.0
-1.0,17.0,15.0,0.0,-13.0,-7.0,-10.0,-24.0,-13.0,9.0,0.0
-5.0,18.0,20.0,3.0,-15.0,-10.0,-11.0,-39.0,-22.0,-5.0,0.0
-19.0,18.0,27.0,11.0,-10.0,-12.0,-8.0,-27.0,14.0,-2.0,0.0
-34.0,0.0,8.0,8.0,1.0,-4.0,10.0,1.0,87.0,34.0,0.0
-39.0,0.0,3.0,12.0,1.0,12.0,19.0,17.0,105.0,59.0,0.0
-35.0,8.0,2.0,25.0,2.0,11.0,16.0,-8.0,50.0,20.0,0.0
-5.0,11.0,-7.0,24.0,-6.0,5.0,-2.0,-25.0,21.0,29.0,0.0
10.0,28.0,4.0,12.0,-14.0,-9.0,-15.0,-21.0,31.0,84.0,0.0
-11.0,29.0,-18.0,9.0,-14.0,-19.0,-18.0,-23.0,26.0,81.0,0.0
-21.0,15.0,-6.0,1.0,-13.0,-12.0,-9.0,-40.0,2.0,45.0,0.0
-23.0,16.0,0.0,11.0,7.0,-3.0,-9.0,-45.0,-21.0,16.0,0.0
-34.0,13.0,-1.0,22.0,8.0,-2.0,-7.0,-26.0,-32.0,15.0,0.0
-24.0,16.0,16.0,15.0,14.0,3.0,4.0,-15.0,-30.0,14.0,0.0
-25.0,22.0,21.0,-10.0,22.0,7.0,-6.0,-31.0,-41.0,9.0,0.0
-22.0,17.0,11.0,-11.0,9.0,5.0,-32.0,-41.0,-42.0,24.0,0.0
-15.0,13.0,9.0,-23.0,5.0,7.0,-27.0,-31.0,-32.0,37.0,0.0
0.0,17.0,11.0,-30.0,-16.0,0.0,-15.0,-4.0,-14.0,48.0,0.0
8.0,19.0,15.0,-32.0,-27.0,-7.0,-4.0,37.0,43.0,55.0,0.0
-2.0,5.0,9.0,-32.0,-25.0,0.0,-1.0,71.0,106.0,49.0,0.0
-10.0,-1.0,-10.0,-28.0,-27.0,3.0,-11.0,62.0,89.0,31.0,0.0
-6.0,-1.0,-6.0,-16.0,-19.0,6.0,-25.0,34.0,68.0,48.0,0.0
9.0,10.0,0.0,-8.0,-14.0,-4.0,-31.0,14.0,57.0,90.0,0.0
22.0,14.0,11.0,-17.0,-13.0,-7.0,-26.0,0.0,46.0,112.0,0.0
26.0,0.0,-2.0,-25.0,-20.0,-7.0,-29.0,-10.0,39.0,121.0,0.0
21.0,3.0,-4.0,-21.0,-14.0,-3.0,-37.0,-10.0,27.0,98.0,0.0
25.0,18.0,-16.0,-19.0,-9.0,-7.0,-47.0,-17.0,28.0,66.0,0.0
4.0,12.0,-19.0,-13.0,-8.0,-1.0,-39.0,-9.0,27.0,40.0,0.0
-30.0,6.0,2.0,-11.0,-3.0,3.0,-11.0,12.0,46.0,13.0,0.0
-41.0,-2.0,-5.0,-14.0,2.0,15.0,1.0,6.0,43.0,20.0,0.0
-25.0,3.0,7.0,-11.0,6.0,9.0,-5.0,1.0,49.0,54.0,0.0
6.0,4.0,4.0,-6.0,0.0,0.0,-10.0,3.0,68.0,119.0,0.0
29.0,4.0,4.0,0.0,-13.0,-3.0,-12.0,3.0,61.0,98.0,0.0
19.0,1.0,-8.0,-8.0,-16.0,3.0,-10.0,0.0,66.0,66.0,0.0
-11.0,-8.0,3.0,0.0,0.0,19.0,-2.0,-13.0,53.0,46.0,0.0
-27.0,-5.0,2.0,20.0,14.0,16.0,-3.0,-44.0,-45.0,-52.0,0.0
-37.0,-10.0,13.0,32.0,15.0,22.0,-2.0,-58.0,-99.0,-129.0,0.0
-51.0,-12.0,7.0,36.0,12.0,22.0,4.0,-55.0,-95.0,-146.0,0.0
-55.0,-12.0,5.0,47.0,22.0,26.0,6.0,-45.0,-102.0,-132.0,0.0
-51.0,-10.0,1.0,45.0,26.0,23.0,13.0,-55.0,-127.0,-121.0,0.0
-39.0,-10.0,-1.0,27.0,14.0,12.0,5.0,-58.0,-112.0,-107.0,0.0
-11.0,2.0,-1.0,12.0,-6.0,-2.0,-8.0,-43.0,-66.0,-54.0,0.0
0.0,20.0,8.0,17.0,-16.0,-9.0,-16.0,-25.0,-32.0,-13.0,0.0
3.0,22.0,10.0,2.0,-25.0,-28.0,-26.0,-10.0,3.0,5.0,0.0
0.0,11.0,-16.0,-1.0,-21.0,-35.0,-25.0,15.0,105.0,29.0,0.0
-17.0,3.0,-22.0,16.0,-20.0,-11.0,-5.0,22.0,153.0,28.0,0.0
-22.0,0.0,-10.0,19.0,-16.0,-1.0,0.0,6.0,72.0,-22.0,0.0
-25.0,-5.0,-26.0,11.0,-8.0,1.0,-5.0,-6.0,-11.0,-84.0,0.0
-23.0,-16.0,-28.0,11.0,2.0,1.0,-4.0,-12.0,-41.0,-97.0,0.0
-13.0,-11.0,-9.0,8.0,0.0,-1.0,-7.0,-21.0,-35.0,-84.0,0.0
-3.0,-13.0,1.0,6.0,0.0,-8.0,-1.0,-14.0,-35.0,-80.0,0.0
-19.0,-11.0,-15.0,1.0,1.0,-3.0,0.0,-15.0,-35.0,-88.0,0.0
-26.0,-7.0,-3.0,1.0,9.0,-1.0,9.0,-13.0,-30.0,-67.0,0.0
-18.0,-1.0,-9.0,3.0,6.0,-6.0,5.0,-13.0,-30.0,-30.0,0.0
-8.0,-2.0,-28.0,-2.0,-2.0,-9.0,-16.0,-23.0,-25.0,-9.0,0.0
3.0,-4.0,-34.0,3.0,0.0,-9.0,-20.0,-23.0,-31.0,11.0,0.0
12.0,-3.0,-30.0,9.0,18.0,-19.0,-16.0,-22.0,-50.0,16.0,0.0
2.0,-11.0,-3.0,7.0,23.0,-20.0,-5.0,-19.0,-44.0,-1.0,0.0
2.0,-17.0,-5.0,5.0,17.0,-11.0,0.0,-15.0,-25.0,0.0,0.0
18.0,-5.0,-7.0,6.0,12.0,1.0,1.0,-7.0,-8.0,22.0,0.0
28.0,2.0,15.0,7.0,-2.0,6.0,2.0,0.0,1.0,35.0,0.0
43.0,-2.0,0.0,0.0,10.0,5.0,0.0,-5.0,-6.0,35.0,0.0
46.0,-3.0,-8.0,-6.0,6.0,3.0,-6.0,-11.0,-11.0,15.0,0.0
16.0,-8.0,6.0,-3.0,3.0,2.0,5.0,-2.0,-19.0,0.0,0.0
-3.0,-13.0,-5.0,0.0,6.0,11.0,23.0,4.0,-9.0,-9.0,0.0
-5.0,-15.0,-3.0,6.0,8.0,14.0,27.0,0.0,-3.0,-17.0,0.0
9.0,-3.0,7.0,2.0,24.0,1.0,13.0,-8.0,-11.0,-8.0,0.0
21.0,6.0,-14.0,-1.0,18.0,9.0,4.0,0.0,-4.0,1.0,0.0
31.0,23.0,-10.0,-3.0,9.0,0.0,0.0,-3.0,-3.0,1.0,0.0
47.0,18.0,5.0,-4.0,3.0,-17.0,-15.0,-23.0,-16.0,8.0,0.0
45.0,20.0,-12.0,-1.0,5.0,-19.0,-2.0,-16.0,-2.0,50.0,0.0
46.0,24.0,-20.0,1.0,11.0,-13.0,10.0,-5.0,13.0,74.0,0.0
42.0,12.0,-8.0,2.0,5.0,-10.0,0.0,-6.0,4.0,81.0,0.0
30.0,8.0,5.0,5.0,8.0,-17.0,-4.0,4.0,-6.0,59.0,0.0
36.0,1.0,-10.0,-2.0,10.0,-13.0,1.0,16.0,-2.0,49.0,0.0
38.0,12.0,-21.0,-10.0,10.0,-7.0,19.0,32.0,25.0,48.0,0.0
18.0,12.0,-25.0,-7.0,20.0,-2.0,18.0,34.0,20.0,30.0,0.0
-1.0,-3.0,-31.0,3.0,26.0,-2.0,15.0,36.0,2.0,7.0,0.0
-18.0,-8.0,-26.0,7.0,29.0,-7.0,22.0,28.0,-3.0,-23.0,0.0
-8.0,-4.0,-22.0,0.0,20.0,-10.0,15.0,9.0,-14.0,-27.0,0.0
-10.0,-7.0,-20.0,-5.0,22.0,-8.0,1.0,10.0,-9.0,-31.0,0.0
-16.0,-26.0,-12.0,0.0,21.0,0.0,-2.0,18.0,-13.0,-43.0,0.0
-13.0,-26.0,-4.0,4.0,10.0,1.0,7.0,5.0,-16.0,-57.0,0.0
-2.0,-10.0,-5.0,-5.0,10.0,-3.0,5.0,7.0,-22.0,-49.0,0.0
9.0,0.0,-1.0,-1.0,20.0,-15.0,-8.0,3.0,-30.0,-35.0,0.0
24.0,-6.0,-7.0,7.0,14.0,-20.0,-11.0,0.0,-27.0,-30.0,0.0
28.0,-3.0,-16.0,13.0,0.0,-19.0,-8.0,-11.0,-10.0,21.0,0.0
25.0,1.0,-18.0,0.0,-6.0,-16.0,-7.0,-13.0,-4.0,80.0,0.0
21.0,0.0,-21.0,-3.0,-6.0,-9.0,2.0,-9.0,2.0,88.0,0.0
19.0,3.0,-20.0,3.0,5.0,-4.0,8.0,-2.0,12.0,95.0,0.0
2.0,0.0,-14.0,6.0,12.0,-2.0,16.0,-1.0,-3.0,19.0,0.0
-37.0,-2.0,-13.0,13.0,16.0,-1.0,4.0,-25.0,-66.0,-142.0,0.0
-48.0,7.0,-12.0,13.0,15.0,-4.0,4.0,-32.0,-71.0,-164.0,0.0
-41.0,19.0,-10.0,-1.0,0.0,-10.0,12.0,-17.0,-14.0,-90.0,0.0
-32.0,25.0,-16.0,1.0,-1.0,-8.0,18.0,7.0,24.0,-38.0,0.0
-1.0,27.0,-17.0,1.0,-13.0,-11.0,6.0,13.0,46.0,24.0,0.0
21.0,39.0,-14.0,-2.0,-26.0,-14.0,-1.0,0.0,53.0,70.0,0.0
58.0,40.0,-4.0,-8.0,-23.0,-14.0,-8.0,-18.0,41.0,143.0,0.0
91.0,30.0,-11.0,-11.0,-22.0,-25.0,-16.0,-34.0,0.0,182.0,0.0
117.0,36.0,-14.0,-7.0,-14.0,-19.0,-14.0,-34.0,-4.0,211.0,0.0
103.0,43.0,-6.0,0.0,-2.0,-9.0,-7.0,-22.0,-5.0,221.0,0.0
71.0,31.0,-6.0,9.0,0.0,-7.0,-3.0,-22.0,0.0,147.0,0.0
38.0,26.0,-10.0,-6.0,-1.0,-4.0,10.0,-11.0,48.0,66.0,0.0
-5.0,3.0,-9.0,6.0,2.0,0.0,15.0,-2.0,31.0,-38.0,0.0
-50.0,-16.0,-6.0,24.0,25.0,23.0,17.0,-1.0,-23.0,-190.0,0.0
-88.0,-24.0,-5.0,25.0,36.0,39.0,46.0,8.0,-26.0,-234.0,0.0
-116.0,-29.0,-4.0,36.0,34.0,44.0,59.0,13.0,-9.0,-258.0,0.0
-107.0,-14.0,0.0,48.0,25.0,45.0,54.0,39.0,51.0,-254.0,0.0
-67.0,-4.0,0.0,36.0,20.0,44.0,44.0,61.0,74.0,-197.0,0.0
-50.0,2.0,-1.0,29.0,17.0,37.0,33.0,31.0,45.0,-138.0,0.0
-51.0,-7.0,12.0,20.0,17.0,27.0,26.0,-14.0,5.0,-104.0,0.0
-41.0,-20.0,14.0,18.0,13.0,18.0,27.0,-25.0,2.0,-86.0,0.0
-36.0,-19.0,8.0,16.0,3.0,10.0,23.0,-4.0,7.0,-52.0,0.0
-21.0,-11.0,3.0,1.0,-2.0,5.0,16.0,10.0,15.0,-36.0,0.0
-11.0,-9.0,15.0,-4.0,-8.0,-3.0,12.0,3.0,3.0,-28.0,0.0
-16.0,-9.0,35.0,3.0,-3.0,-3.0,14.0,-2.0,0.0,-18.0,0.0
-16.0,0.0,32.0,6.0,6.0,13.0,17.0,5.0,2.0,-6.0,0.0
-13.0,1.0,6.0,1.0,3.0,17.0,8.0,0.0,0.0,-12.0,0.0
-4.0,8.0,-5.0,0.0,-2.0,5.0,7.0,-12.0,-6.0,-29.0,0.0
11.0,13.0,18.0,-2.0,-3.0,2.0,14.0,-4.0,-7.0,-9.0,0.0
19.0,-1.0,18.0,-9.0,7.0,0.0,7.0,-21.0,8.0,28.0,0.0
27.0,-1.0,0.0,-13.0,-7.0,-15.0,-12.0,-40.0,20.0,58.0,0.0
44.0,5.0,3.0,-14.0,-25.0,-24.0,-31.0,-31.0,13.0,74.0,0.0
47.0,14.0,29.0,-12.0,-23.0,-19.0,-23.0,-3.0,41.0,110.0,0.0
38.0,-5.0,17.0,-14.0,-11.0,-7.0,0.0,27.0,93.0,128.0,0.0
18.0,-12.0,-11.0,-10.0,-7.0,3.0,21.0,52.0,107.0,111.0,0.0
12.0,-7.0,-20.0,-7.0,0.0,6.0,12.0,35.0,45.0,49.0,0.0
21.0,-1.0,-15.0,-7.0,-5.0,0.0,-1.0,1.0,1.0,12.0,0.0
56.0,19.0,-12.0,-11.0,-36.0,-20.0,-34.0,-34.0,-13.0,58.0,0.0
90.0,43.0,-3.0,-15.0,-34.0,-26.0,-54.0,-34.0,-20.0,90.0,0.0
88.0,45.0,16.0,-7.0,-19.0,-16.0,-41.0,-34.0,-40.0,45.0,0.0
68.0,25.0,0.0,0.0,-7.0,-20.0,-20.0,-34.0,-43.0,6.0,0.0
45.0,-7.0,-10.0,-6.0,-1.0,-12.0,-7.0,-14.0,-35.0,-31.0,0.0
4.0,-25.0,-15.0,-6.0,2.0,6.0,22.0,26.0,-40.0,-83.0,0.0
-26.0,-41.0,-20.0,0.0,8.0,25.0,32.0,33.0,-70.0,-143.0,0.0
-44.0,-54.0,-9.0,-12.0,17.0,30.0,33.0,40.0,-52.0,-146.0,0.0
-49.0,-63.0,0.0,-4.0,28.0,24.0,40.0,55.0,16.0,-78.0,0.0
-35.0,-53.0,-7.0,16.0,31.0,11.0,32.0,61.0,73.0,-1.0,0.0
-10.0,-30.0,-7.0,14.0,34.0,4.0,14.0,39.0,59.0,20.0,0.0
-25.0,-23.0,-11.0,9.0,20.0,12.0,17.0,22.0,22.0,-21.0,0.0
-45.0,-31.0,-11.0,3.0,16.0,19.0,28.0,32.0,-14.0,-78.0,0.0
-52.0,-28.0,-6.0,11.0,17.0,15.0,25.0,44.0,-11.0,-109.0,0.0
-51.0,-10.0,-11.0,14.0,18.0,-2.0,11.0,32.0,-24.0,-135.0,0.0
-44.0,-12.0,-9.0,2.0,30.0,8.0,18.0,37.0,-17.0,-145.0,0.0
-30.0,-4.0,-6.0,3.0,32.0,14.0,13.0,46.0,-19.0,-144.0,0.0
-19.0,4.0,-8.0,1.0,20.0,7.0,-8.0,38.0,-18.0,-127.0,0.0
-20.0,4.0,-7.0,3.0,17.0,-6.0,-13.0,20.0,-35.0,-112.0,0.0
-18.0,0.0,-8.0,12.0,11.0,-16.0,-10.0,4.0,-37.0,-99.0,0.0
-4.0,-4.0,-7.0,8.0,13.0,-17.0,-6.0,-3.0,-11.0,-53.0,0.0
14.0,5.0,-1.0,3.0,8.0,-23.0,-12.0,-8.0,0.0,77.0,0.0
38.0,21.0,1.0,2.0,4.0,-27.0,-26.0,-25.0,24.0,171.0,0.0
46.0,29.0,5.0,-7.0,0.0,-25.0,-18.0,-19.0,56.0,205.0,0.0
44.0,23.0,0.0,-9.0,-12.0,-30.0,-3.0,-13.0,64.0,238.0,0.0
12.0,0.0,-11.0,-15.0,-24.0,-37.0,-11.0,-19.0,44.0,110.0,0.0
-17.0,-9.0,-9.0,-14.0,-27.0,-40.0,-10.0,-32.0,-56.0,-136.0,0.0
-11.0,0.0,2.0,-11.0,-15.0,-20.0,3.0,-21.0,-93.0,-209.0,0.0
-9.0,-1.0,5.0,-7.0,-11.0,-13.0,17.0,-3.0,-78.0,-199.0,0.0
-24.0,0.0,27.0,-5.0,-3.0,-14.0,13.0,15.0,-43.0,-206.0,0.0
-31.0,-1.0,23.0,9.0,-14.0,-5.0,11.0,32.0,2.0,-188.0,0.0
-23.0,7.0,6.0,9.0,-32.0,3.0,13.0,15.0,14.0,-125.0,0.0
-15.0,5.0,-9.0,-12.0,-27.0,4.0,12.0,13.0,28.0,-62.0,0.0
4.0,-1.0,-14.0,-27.0,-20.0,-8.0,2.0,17.0,32.0,-32.0,0.0
7.0,0.0,-12.0,-25.0,-30.0,-17.0,-6.0,4.0,15.0,-57.0,0.0
-8.0,-4.0,-7.0,-27.0,-30.0,-11.0,8.0,-3.0,10.0,-86.0,0.0
-21.0,-9.0,-1.0,-26.0,-19.0,-2.0,22.0,-5.0,0.0,-98.0,0.0
-26.0,-10.0,-2.0,-17.0,-21.0,-4.0,11.0,-8.0,-16.0,-97.0,0.0
-17.0,0.0,-2.0,-16.0,-37.0,-10.0,-4.0,-10.0,-20.0,-73.0,0.0
-13.0,-4.0,13.0,-9.0,-33.0,-9.0,3.0,-1.0,-4.0,-51.0,0.0
-16.0,2.0,31.0,-6.0,-14.0,-11.0,10.0,1.0,-2.0,-49.0,0.0
-17.0,11.0,17.0,-7.0,-13.0,-19.0,7.0,10.0,-5.0,-36.0,0.0
-13.0,15.0,-1.0,-3.0,-13.0,-10.0,3.0,17.0,-1.0,-33.0,0.0
-2.0,6.0,-7.0,-4.0,-17.0,-11.0,23.0,14.0,-4.0,-34.0,0.0
-2.0,1.0,-10.0,0.0,-25.0,-13.0,26.0,9.0,0.0,-23.0,0.0
3.0,-4.0,-9.0,-2.0,-33.0,-13.0,14.0,-9.0,-10.0,-31.0,0.0
17.0,4.0,-5.0,-15.0,-27.0,-9.0,17.0,-4.0,-5.0,-20.0,0.0
33.0,0.0,0.0,-13.0,-24.0,8.0,20.0,-7.0,-5.0,-14.0,0.0
35.0,-1.0,-1.0,-11.0,-34.0,4.0,18.0,-17.0,-14.0,-23.0,0.0
27.0,6.0,-5.0,-14.0,-29.0,-11.0,6.0,-23.0,-34.0,-35.0,0.0
33.0,19.0,11.0,10.0,-21.0,-10.0,7.0,-28.0,-40.0,-53.0,0.0
30.0,40.0,25.0,27.0,-23.0,-15.0,14.0,-36.0,-61.0,-73.0,0.0
41.0,31.0,22.0,29.0,-30.0,-25.0,11.0,-41.0,-51.0,-57.0,0.0
48.0,16.0,28.0,23.0,-22.0,-24.0,27.0,-26.0,-15.0,-1.0,0.0
44.0,11.0,32.0,17.0,-17.0,-13.0,39.0,-8.0,15.0,27.0,0.0
46.0,9.0,31.0,15.0,-20.0,-11.0,28.0,-11.0,26.0,44.0,0.0
41.0,1.0,27.0,11.0,-24.0,-12.0,23.0,-8.0,31.0,49.0,0.0
16.0,-9.0,6.0,10.0,-22.0,-1.0,13.0,-13.0,14.0,23.0,0.0
11.0,-14.0,-7.0,9.0,-20.0,5.0,11.0,-31.0,-5.0,18.0,0.0
18.0,-7.0,10.0,17.0,-28.0,15.0,25.0,-25.0,6.0,43.0,0.0
12.0,-7.0,13.0,17.0,-22.0,23.0,31.0,-3.0,21.0,51.0,0.0
13.0,6.0,-3.0,9.0,-19.0,24.0,46.0,-3.0,12.0,29.0,0.0
21.0,25.0,-2.0,2.0,-27.0,15.0,31.0,-14.0,6.0,0.0,0.0
16.0,26.0,13.0,-9.0,-28.0,15.0,20.0,-7.0,4.0,-9.0,0.0
-2.0,20.0,18.0,-7.0,-24.0,25.0,23.0,-4.0,12.0,-11.0,0.0
-27.0,14.0,12.0,14.0,-23.0,15.0,18.0,-8.0,0.0,-32.0,0.0
-42.0,5.0,20.0,18.0,-32.0,2.0,9.0,-23.0,1.0,-30.0,0.0
-39.0,7.0,4.0,14.0,-34.0,0.0,7.0,-8.0,3.0,-22.0,0.0
-30.0,-4.0,-11.0,14.0,-33.0,10.0,15.0,0.0,0.0,-21.0,0.0
-26.0,-6.0,-16.0,20.0,-23.0,11.0,23.0,5.0,-4.0,-9.0,0.0
-29.0,-12.0,-20.0,26.0,-14.0,15.0,20.0,9.0,-12.0,-7.0,0.0
-19.0,-17.0,-10.0,27.0,-7.0,9.0,12.0,8.0,-29.0,-21.0,0.0
-4.0,-3.0,5.0,36.0,-8.0,9.0,6.0,6.0,-39.0,-35.0,0.0
8.0,9.0,20.0,37.0,-7.0,10.0,0.0,-6.0,-37.0,-25.0,0.0
22.0,8.0,-1.0,32.0,-2.0,3.0,0.0,-24.0,-44.0,-22.0,0.0
32.0,5.0,0.0,33.0,-4.0,-4.0,-7.0,-29.0,-50.0,-18.0,0.0
45.0,7.0,27.0,23.0,8.0,1.0,2.0,-34.0,-36.0,23.0,0.0
50.0,6.0,31.0,13.0,6.0,-5.0,4.0,-34.0,-35.0,54.0,0.0
49.0,4.0,33.0,6.0,9.0,-14.0,0.0,-30.0,-48.0,50.0,0.0
41.0,5.0,1.0,10.0,2.0,-21.0,-5.0,-39.0,-62.0,-18.0,0.0
41.0,5.0,6.0,5.0,-10.0,-18.0,-6.0,-38.0,-44.0,-29.0,0.0
41.0,4.0,14.0,-6.0,-11.0,-4.0,-1.0,-4.0,30.0,-11.0,0.0
30.0,2.0,1.0,-3.0,-14.0,-2.0,9.0,14.0,44.0,-33.0,0.0
38.0,17.0,15.0,-3.0,-9.0,-3.0,3.0,3.0,6.0,-41.0,0.0
31.0,18.0,7.0,-12.0,-9.0,-7.0,-16.0,-15.0,4.0,-36.0,0.0
17.0,20.0,9.0,-13.0,-19.0,-26.0,-15.0,8.0,24.0,-28.0,0.0
16.0,17.0,11.0,-12.0,-19.0,-24.0,-3.0,20.0,37.0,-11.0,0.0
24.0,4.0,-6.0,-20.0,-19.0,-20.0,-20.0,29.0,58.0,43.0,0.0
33.0,0.0,-10.0,-10.0,-16.0,-15.0,-24.0,29.0,65.0,103.0,0.0
27.0,0.0,6.0,-6.0,-5.0,-11.0,-6.0,24.0,66.0,112.0,0.0
28.0,-11.0,-6.0,-6.0,-9.0,-14.0,-6.0,7.0,35.0,74.0,0.0
22.0,-10.0,-8.0,3.0,-3.0,-5.0,3.0,15.0,30.0,29.0,0.0
5.0,-4.0,0.0,11.0,-1.0,4.0,8.0,17.0,24.0,-20.0,0.0
-18.0,-10.0,8.0,16.0,8.0,5.0,2.0,25.0,1.0,-50.0,0.0
-32.0,-20.0,-9.0,17.0,14.0,5.0,5.0,24.0,-23.0,-72.0,0.0
-25.0,-14.0,-15.0,12.0,5.0,3.0,3.0,20.0,-38.0,-81.0,0.0
-13.0,0.0,0.0,12.0,8.0,8.0,-7.0,16.0,-43.0,-49.0,0.0
19.0,-1.0,2.0,13.0,12.0,0.0,-23.0,9.0,-30.0,10.0,0.0
52.0,14.0,-9.0,6.0,1.0,-2.0,-24.0,12.0,9.0,108.0,0.0
51.0,21.0,-16.0,4.0,0.0,-9.0,-10.0,8.0,40.0,177.0,0.0
34.0,0.0,-19.0,0.0,-3.0,-16.0,-10.0,7.0,42.0,185.0,0.0
15.0,-23.0,2.0,-3.0,1.0,-17.0,-12.0,15.0,41.0,148.0,0.0
-7.0,-28.0,7.0,-11.0,1.0,-1.0,-3.0,25.0,37.0,45.0,0.0
-22.0,-19.0,-6.0,-10.0,0.0,10.0,7.0,46.0,32.0,-35.0,0.0
-15.0,-10.0,-11.0,5.0,4.0,13.0,8.0,49.0,19.0,-5.0,0.0
-10.0,-6.0,4.0,10.0,8.0,9.0,8.0,26.0,-29.0,-4.0,0.0
-10.0,-3.0,18.0,10.0,5.0,0.0,-4.0,-6.0,-90.0,-53.0,0.0
-17.0,0.0,25.0,7.0,2.0,0.0,-24.0,-8.0,-87.0,-131.0,0.0
-12.0,-1.0,34.0,7.0,3.0,7.0,-13.0,22.0,6.0,-108.0,0.0
2.0,-4.0,31.0,12.0,0.0,7.0,8.0,47.0,30.0,-49.0,0.0
-10.0,1.0,36.0,5.0,-4.0,2.0,4.0,33.0,-6.0,-63.0,0.0
-13.0,-5.0,29.0,2.0,-4.0,3.0,1.0,35.0,-7.0,-53.0,0.0
2.0,-10.0,18.0,-7.0,-14.0,0.0,7.0,46.0,22.0,13.0,0.0
10.0,-8.0,14.0,-8.0,-10.0,1.0,9.0,27.0,32.0,51.0,0.0
14.0,-10.0,12.0,0.0,-7.0,11.0,-12.0,-6.0,13.0,48.0,0.0
7.0,-7.0,5.0,1.0,7.0,12.0,-5.0,-13.0,19.0,40.0,0.0
-2.0,-18.0,5.0,-2.0,11.0,-5.0,-6.0,-19.0,13.0,15.0,0.0
-7.0,-24.0,-3.0,-7.0,7.0,-13.0,-7.0,-16.0,-2.0,13.0,0.0
0.0,-29.0,-22.0,-7.0,-2.0,-5.0,13.0,1.0,26.0,36.0,0.0
6.0,-28.0,-22.0,-1.0,-6.0,0.0,24.0,16.0,48.0,27.0,0.0
5.0,-6.0,0.0,-4.0,1.0,-4.0,31.0,13.0,50.0,16.0,0.0
0.0,-1.0,-4.0,-3.0,8.0,-8.0,32.0,0.0,50.0,11.0,0.0
-16.0,-15.0,-14.0,-1.0,14.0,-11.0,9.0,-33.0,-9.0,-46.0,0.0
-30.0,-13.0,0.0,4.0,16.0,-4.0,22.0,-51.0,-64.0,-84.0,0.0
-46.0,4.0,12.0,1.0,20.0,-2.0,32.0,-45.0,-56.0,-76.0,0.0
-48.0,0.0,16.0,-4.0,13.0,-6.0,33.0,-39.0,-53.0,-71.0,0.0
-39.0,0.0,14.0,-4.0,4.0,-15.0,37.0,-29.0,-52.0,-62.0,0.0
-29.0,0.0,17.0,1.0,2.0,-13.0,40.0,-24.0,-78.0,-35.0,0.0
-34.0,-8.0,7.0,-1.0,5.0,-15.0,31.0,-20.0,-90.0,-26.0,0.0
-31.0,-11.0,14.0,1.0,1.0,-23.0,21.0,-9.0,-86.0,-41.0,0.0
-24.0,-6.0,0.0,3.0,3.0,-27.0,22.0,8.0,-12.0,-26.0,0.0
-30.0,0.0,2.0,-7.0,-4.0,-12.0,26.0,38.0,83.0,3.0,0.0
-17.0,2.0,2.0,-27.0,-13.0,-2.0,28.0,43.0,102.0,23.0,0.0
-1.0,5.0,8.0,-37.0,-7.0,-12.0,27.0,29.0,76.0,40.0,0.0
8.0,8.0,9.0,-35.0,-3.0,-14.0,15.0,11.0,61.0,47.0,0.0
9.0,14.0,7.0,-33.0,-10.0,-11.0,9.0,-8.0,29.0,46.0,0.0
8.0,5.0,9.0,-24.0,-16.0,-14.0,14.0,-4.0,9.0,41.0,0.0
-2.0,-10.0,12.0,-28.0,-3.0,-10.0,26.0,-5.0,0.0,35.0,0.0
-4.0,-19.0,15.0,-29.0,4.0,-1.0,17.0,-5.0,2.0,27.0,0.0
-3.0,-29.0,12.0,-25.0,5.0,0.0,14.0,0.0,-6.0,15.0,0.0
-1.0,-25.0,-1.0,-24.0,0.0,-8.0,10.0,-22.0,-14.0,9.0,0.0
5.0,-12.0,2.0,-10.0,-6.0,-5.0,-1.0,-33.0,-21.0,8.0,0.0
11.0,1.0,-10.0,-5.0,-5.0,5.0,7.0,-27.0,-30.0,31.0,0.0
9.0,-1.0,-10.0,-5.0,2.0,13.0,13.0,-17.0,-8.0,76.0,0.0
17.0,-21.0,-7.0,1.0,-9.0,2.0,0.0,15.0,66.0,157.0,0.0
16.0,-26.0,-24.0,14.0,-5.0,-3.0,6.0,51.0,107.0,207.0,0.0
3.0,-17.0,-29.0,1.0,4.0,3.0,9.0,47.0,85.0,165.0,0.0
9.0,-9.0,-13.0,5.0,6.0,2.0,12.0,21.0,29.0,97.0,0.0
2.0,-14.0,0.0,5.0,-3.0,2.0,13.0,5.0,5.0,68.0,0.0
-1.0,-12.0,-14.0,19.0,-3.0,9.0,5.0,-3.0,12.0,66.0,0.0
-10.0,-5.0,0.0,33.0,0.0,-1.0,-1.0,-20.0,-2.0,37.0,0.0
-10.0,-12.0,19.0,21.0,-4.0,-6.0,-16.0,-33.0,-15.0,17.0,0.0
-5.0,-5.0,22.0,17.0,-10.0,-4.0,-19.0,-28.0,-28.0,15.0,0.0
2.0,1.0,6.0,11.0,-9.0,-17.0,-30.0,-32.0,-31.0,14.0,0.0
0.0,1.0,9.0,10.0,-6.0,-9.0,-31.0,-23.0,-24.0,24.0,0.0
-5.0,2.0,-11.0,3.0,5.0,12.0,-22.0,-5.0,-8.0,47.0,0.0
0.0,-1.0,-5.0,6.0,-5.0,17.0,-14.0,-5.0,-14.0,50.0,0.0
-10.0,4.0,6.0,14.0,-1.0,3.0,-23.0,-18.0,-31.0,22.0,0.0
-1.0,18.0,-9.0,11.0,-1.0,0.0,-34.0,-34.0,-47.0,2.0,0.0
0.0,25.0,2.0,19.0,-10.0,2.0,-47.0,-38.0,-52.0,-15.0,0.0
-19.0,23.0,6.0,33.0,-16.0,9.0,-27.0,-4.0,-13.0,5.0,0.0
-18.0,26.0,13.0,33.0,-11.0,20.0,-10.0,28.0,39.0,33.0,0.0
-30.0,13.0,11.0,27.0,-7.0,17.0,7.0,35.0,30.0,11.0,0.0
-32.0,16.0,16.0,26.0,-12.0,17.0,5.0,16.0,9.0,-3.0,0.0
-20.0,16.0,15.0,21.0,-20.0,19.0,0.0,-4.0,-4.0,-4.0,0.0
-14.0,15.0,6.0,15.0,-17.0,20.0,8.0,1.0,-3.0,7.0,0.0
-10.0,13.0,-3.0,9.0,-21.0,16.0,7.0,-9.0,-1.0,10.0,0.0
-6.0,18.0,-2.0,9.0,-28.0,14.0,4.0,-2.0,-8.0,22.0,0.0
-4.0,7.0,-26.0,11.0,-22.0,10.0,-5.0,-11.0,-35.0,34.0,0.0
-11.0,16.0,-23.0,3.0,-13.0,0.0,-12.0,-34.0,-58.0,26.0,0.0
-23.0,12.0,-3.0,-1.0,-16.0,-2.0,-7.0,-23.0,-33.0,27.0,0.0
-30.0,-3.0,-15.0,-10.0,-23.0,-1.0,2.0,15.0,47.0,39.0,0.0
-23.0,2.0,-21.0,-9.0,-17.0,-1.0,9.0,17.0,54.0,33.0,0.0
-19.0,2.0,-2.0,-1.0,-13.0,0.0,8.0,2.0,20.0,2.0,0.0
-16.0,5.0,7.0,-4.0,-14.0,-3.0,0.0,-6.0,0.0,-26.0,0.0
-23.0,10.0,11.0,-16.0,-23.0,-8.0,-1.0,-24.0,-10.0,-32.0,0.0
-22.0,11.0,17.0,-13.0,-16.0,-11.0,-5.0,-36.0,-16.0,-39.0,0.0
-17.0,15.0,13.0,-5.0,-10.0,-16.0,2.0,-26.0,-3.0,-22.0,0.0
-10.0,5.0,-5.0,-10.0,-14.0,-17.0,12.0,-1.0,3.0,5.0,0.0
2.0,3.0,-3.0,-14.0,-13.0,-17.0,6.0,-3.0,2.0,42.0,0.0
14.0,13.0,10.0,-34.0,-3.0,-14.0,1.0,-14.0,11.0,90.0,0.0
12.0,6.0,9.0,-37.0,-10.0,-17.0,-2.0,-10.0,29.0,112.0,0.0
14.0,10.0,1.0,-42.0,-31.0,-15.0,9.0,3.0,42.0,115.0,0.0
15.0,-6.0,0.0,-36.0,-38.0,-15.0,-1.0,-1.0,45.0,126.0,0.0
21.0,-14.0,4.0,-20.0,-18.0,-7.0,-17.0,-10.0,43.0,120.0,0.0
23.0,-20.0,-11.0,-13.0,-6.0,-10.0,-17.0,-7.0,61.0,179.0,0.0
27.0,-15.0,-3.0,-28.0,-18.0,-22.0,-13.0,-6.0,66.0,249.0,0.0
17.0,-10.0,-16.0,-37.0,-25.0,-23.0,-11.0,-21.0,42.0,145.0,0.0
9.0,-8.0,-33.0,-25.0,-15.0,-16.0,-14.0,-33.0,-13.0,-32.0,0.0
9.0,-17.0,-34.0,-23.0,-1.0,-7.0,7.0,-31.0,-20.0,-61.0,0.0
-11.0,-17.0,-30.0,-13.0,3.0,0.0,18.0,-6.0,-17.0,-75.0,0.0
-40.0,-20.0,-15.0,1.0,18.0,14.0,18.0,1.0,-62.0,-151.0,0.0
-59.0,-34.0,3.0,5.0,26.0,22.0,22.0,7.0,-85.0,-193.0,0.0
-68.0,-41.0,-1.0,1.0,27.0,23.0,29.0,19.0,-73.0,-159.0,0.0
-53.0,-28.0,-10.0,6.0,23.0,28.0,17.0,14.0,-63.0,-107.0,0.0
-26.0,-16.0,5.0,3.0,17.0,28.0,-17.0,7.0,-55.0,-67.0,0.0
-22.0,-20.0,-4.0,-4.0,5.0,22.0,-13.0,0.0,-43.0,-40.0,0.0
-19.0,-22.0,-23.0,-8.0,2.0,24.0,-4.0,-8.0,-32.0,-27.0,0.0
-19.0,-17.0,-29.0,0.0,8.0,23.0,-1.0,-12.0,-33.0,-23.0,0.0
-15.0,-9.0,-31.0,0.0,3.0,17.0,3.0,0.0,-21.0,-20.0,0.0
-21.0,-6.0,-27.0,3.0,-9.0,4.0,0.0,9.0,5.0,-17.0,0.0
-28.0,-7.0,-23.0,-3.0,-19.0,13.0,3.0,14.0,5.0,-25.0,0.0
-23.0,-8.0,-27.0,-7.0,-22.0,13.0,4.0,18.0,4.0,-10.0,0.0
-22.0,3.0,-23.0,3.0,-24.0,2.0,3.0,14.0,4.0,25.0,0.0
-16.0,14.0,-23.0,-1.0,-14.0,-2.0,1.0,8.0,27.0,40.0,0.0
6.0,13.0,-19.0,-4.0,-7.0,-2.0,-1.0,15.0,44.0,41.0,0.0
37.0,17.0,-15.0,-11.0,-14.0,-13.0,10.0,25.0,65.0,85.0,0.0
46.0,23.0,0.0,-16.0,-19.0,-17.0,0.0,30.0,96.0,133.0,0.0
42.0,16.0,11.0,-11.0,-22.0,-21.0,-1.0,8.0,61.0,130.0,0.0
16.0,7.0,-7.0,-6.0,-23.0,-22.0,11.0,0.0,-1.0,61.0,0.0
0.0,7.0,-4.0,0.0,-13.0,-11.0,15.0,-3.0,-17.0,-1.0,0.0
-15.0,0.0,8.0,9.0,2.0,1.0,28.0,4.0,-30.0,-38.0,0.0
-29.0,-5.0,20.0,11.0,6.0,6.0,36.0,24.0,-44.0,-62.0,0.0
-17.0,0.0,1.0,0.0,8.0,-2.0,29.0,33.0,-11.0,-33.0,0.0
9.0,5.0,-10.0,-6.0,1.0,-12.0,11.0,26.0,1.0,3.0,0.0
25.0,-5.0,-8.0,-7.0,-11.0,-23.0,6.0,22.0,4.0,20.0,0.0
25.0,1.0,-10.0,-10.0,-14.0,-20.0,-2.0,18.0,0.0,8.0,0.0
9.0,11.0,14.0,-6.0,-13.0,-13.0,-2.0,14.0,3.0,-6.0,0.0
-2.0,6.0,22.0,-5.0,-8.0,-6.0,4.0,19.0,26.0,-9.0,0.0
-3.0,3.0,21.0,0.0,2.0,-9.0,7.0,8.0,29.0,-7.0,0.0
-23.0,5.0,24.0,0.0,-5.0,-21.0,-6.0,-16.0,0.0,-15.0,0.0
-37.0,-10.0,14.0,-7.0,-11.0,-20.0,-9.0,-12.0,-12.0,-27.0,0.0
-25.0,-11.0,18.0,-6.0,-6.0,-21.0,8.0,22.0,29.0,-6.0,0.0
-33.0,-5.0,-2.0,-4.0,-9.0,-20.0,-2.0,39.0,38.0,10.0,0.0
-34.0,0.0,-14.0,-1.0,-10.0,2.0,7.0,35.0,31.0,10.0,0.0
-26.0,2.0,0.0,13.0,-1.0,9.0,16.0,18.0,0.0,-2.0,0.0
-22.0,0.0,9.0,14.0,0.0,-9.0,14.0,0.0,-25.0,-24.0,0.0
-26.0,8.0,-3.0,15.0,-3.0,-3.0,3.0,-4.0,-47.0,-61.0,0.0
-33.0,2.0,-14.0,11.0,-6.0,6.0,4.0,-7.0,-63.0,-78.0,0.0
-22.0,8.0,-7.0,0.0,-11.0,5.0,-4.0,-9.0,-85.0,-59.0,0.0
-21.0,6.0,14.0,3.0,-5.0,7.0,-6.0,-33.0,-97.0,-28.0,0.0
-32.0,-2.0,-8.0,-2.0,-12.0,1.0,-17.0,-41.0,-65.0,8.0,0.0
-19.0,-3.0,-31.0,-20.0,-31.0,-11.0,-28.0,-21.0,-4.0,65.0,0.0
-3.0,5.0,-28.0,-38.0,-32.0,-19.0,-22.0,-8.0,15.0,88.0,0.0
-6.0,0.0,-23.0,-29.0,-22.0,-19.0,-16.0,4.0,1.0,54.0,0.0
-21.0,-21.0,-26.0,-6.0,-21.0,-4.0,-17.0,21.0,7.0,2.0,0.0
-21.0,-20.0,-16.0,1.0,-10.0,-3.0,0.0,35.0,29.0,-25.0,0.0
-1.0,-12.0,-9.0,-4.0,-15.0,-11.0,21.0,40.0,78.0,-30.0,0.0
21.0,3.0,-8.0,-3.0,-18.0,-9.0,18.0,42.0,117.0,-22.0,0.0
29.0,13.0,-13.0,-11.0,-21.0,-23.0,1.0,30.0,69.0,-15.0,0.0
30.0,0.0,-16.0,-25.0,-26.0,-25.0,-11.0,36.0,76.0,16.0,0.0
26.0,-13.0,-15.0,-34.0,-24.0,-21.0,-10.0,40.0,107.0,78.0,0.0
29.0,-2.0,-12.0,-12.0,-30.0,-3.0,-11.0,32.0,71.0,98.0,0.0
29.0,9.0,-15.0,-13.0,-25.0,0.0,-23.0,3.0,14.0,66.0,0.0
27.0,15.0,-9.0,-17.0,-22.0,4.0,-18.0,11.0,42.0,87.0,0.0
27.0,21.0,-12.0,-3.0,-33.0,3.0,-12.0,32.0,87.0,106.0,0.0
36.0,23.0,-10.0,0.0,-24.0,-3.0,-17.0,27.0,77.0,43.0,0.0
35.0,23.0,-8.0,-16.0,-16.0,2.0,-13.0,27.0,48.0,-2.0,0.0
3.0,13.0,-10.0,-20.0,-17.0,12.0,-6.0,22.0,22.0,-46.0,0.0
-8.0,0.0,-8.0,-21.0,-19.0,12.0,-12.0,24.0,-5.0,-77.0,0.0
0.0,4.0,-8.0,-28.0,-12.0,14.0,-10.0,21.0,13.0,-6.0,0.0
11.0,9.0,-5.0,-25.0,-9.0,17.0,-9.0,11.0,33.0,69.0,0.0
23.0,4.0,-5.0,-30.0,-10.0,19.0,-21.0,15.0,41.0,128.0,0.0
14.0,7.0,-5.0,-27.0,-10.0,21.0,-30.0,11.0,19.0,109.0,0.0
-11.0,13.0,-5.0,-11.0,-7.0,20.0,-37.0,-17.0,-29.0,-41.0,0.0
-47.0,0.0,0.0,3.0,3.0,20.0,-36.0,-26.0,-70.0,-137.0,0.0
-59.0,-5.0,0.0,-2.0,7.0,25.0,-19.0,-7.0,-78.0,-193.0,0.0
-63.0,1.0,-7.0,-5.0,7.0,34.0,-6.0,3.0,-91.0,-247.0,0.0
-58.0,3.0,-8.0,1.0,20.0,32.0,-16.0,-9.0,-83.0,-218.0,0.0
-38.0,17.0,-9.0,6.0,12.0,22.0,-27.0,-4.0,-72.0,-169.0,0.0
-35.0,27.0,-4.0,6.0,8.0,31.0,-29.0,-3.0,-72.0,-155.0,0.0
-26.0,17.0,-5.0,1.0,0.0,29.0,-40.0,-16.0,-72.0,-126.0,0.0
-9.0,24.0,-3.0,-13.0,-8.0,13.0,-34.0,-22.0,-63.0,-66.0,0.0
2.0,19.0,0.0,-8.0,-5.0,17.0,-13.0,-9.0,-36.0,-17.0,0.0
2.0,17.0,-1.0,2.0,-1.0,26.0,-11.0,-9.0,-34.0,-13.0,0.0
-1.0,34.0,-9.0,2.0,-2.0,18.0,-9.0,-8.0,-31.0,-8.0,0.0
-9.0,34.0,-9.0,1.0,3.0,9.0,0.0,-11.0,-40.0,-14.0,0.0
-23.0,15.0,-2.0,2.0,-5.0,3.0,-10.0,-13.0,-35.0,-19.0,0.0
-24.0,-7.0,-10.0,-9.0,-19.0,-7.0,-15.0,-5.0,0.0,-10.0,0.0
-18.0,-6.0,-8.0,-7.0,-13.0,0.0,0.0,2.0,12.0,11.0,0.0
-6.0,5.0,-2.0,10.0,-3.0,-2.0,-3.0,-7.0,-16.0,31.0,0.0
0.0,14.0,-8.0,18.0,-9.0,-11.0,-12.0,-17.0,-21.0,25.0,0.0
-2.0,6.0,-10.0,3.0,-13.0,-7.0,-5.0,-19.0,-17.0,31.0,0.0
2.0,-1.0,-10.0,-6.0,-12.0,-7.0,-5.0,-24.0,6.0,59.0,0.0
12.0,-4.0,0.0,-19.0,-11.0,-7.0,-4.0,-16.0,18.0,81.0,0.0
36.0,3.0,0.0,-16.0,-3.0,2.0,1.0,-16.0,10.0,93.0,0.0
40.0,10.0,1.0,-9.0,-12.0,0.0,5.0,-18.0,22.0,102.0,0.0
39.0,6.0,0.0,-6.0,-17.0,6.0,8.0,-16.0,53.0,92.0,0.0
26.0,-4.0,0.0,0.0,-8.0,5.0,18.0,-3.0,46.0,46.0,0.0
6.0,-15.0,5.0,1.0,1.0,-4.0,17.0,10.0,37.0,9.0,0.0
-7.0,-23.0,19.0,3.0,1.0,-7.0,32.0,22.0,30.0,3.0,0.0
-17.0,-24.0,13.0,6.0,6.0,15.0,24.0,15.0,5.0,4.0,0.0
-26.0,-21.0,9.0,11.0,17.0,24.0,10.0,2.0,-18.0,-11.0,0.0
-15.0,-19.0,10.0,11.0,6.0,29.0,13.0,1.0,-14.0,-7.0,0.0
-11.0,-10.0,24.0,7.0,4.0,22.0,11.0,-16.0,-21.0,-8.0,0.0
-11.0,-9.0,35.0,14.0,10.0,8.0,17.0,-24.0,-27.0,-13.0,0.0
5.0,-5.0,29.0,14.0,13.0,4.0,23.0,-24.0,-28.0,-10.0,0.0
17.0,-8.0,38.0,6.0,4.0,-3.0,30.0,0.0,0.0,9.0,0.0
31.0,-13.0,17.0,-10.0,4.0,-8.0,49.0,26.0,37.0,26.0,0.0
39.0,-13.0,3.0,-15.0,-1.0,-11.0,49.0,29.0,36.0,21.0,0.0
46.0,-5.0,-5.0,-18.0,-3.0,0.0,31.0,22.0,25.0,21.0,0.0
44.0,0.0,-4.0,-10.0,-4.0,1.0,4.0,0.0,8.0,23.0,0.0
32.0,-1.0,16.0,-5.0,-6.0,-4.0,-14.0,-26.0,-7.0,18.0,0.0
29.0,-8.0,20.0,-15.0,-10.0,-4.0,-22.0,-35.0,-8.0,22.0,0.0
27.0,-13.0,7.0,-19.0,0.0,-8.0,-12.0,-31.0,7.0,29.0,0.0
29.0,-12.0,8.0,-20.0,-6.0,-5.0,-6.0,-20.0,17.0,34.0,0.0
25.0,-16.0,31.0,-25.0,-16.0,5.0,-6.0,5.0,12.0,31.0,0.0
21.0,-7.0,12.0,-23.0,-26.0,12.0,-14.0,16.0,8.0,26.0,0.0
38.0,4.0,12.0,-16.0,-24.0,15.0,-20.0,7.0,7.0,37.0,0.0
45.0,-4.0,24.0,-11.0,-16.0,14.0,-20.0,1.0,14.0,37.0,0.0
37.0,-9.0,10.0,-4.0,-16.0,4.0,-16.0,1.0,17.0,27.0,0.0
33.0,-2.0,22.0,0.0,-18.0,-1.0,-11.0,9.0,11.0,21.0,0.0
34.0,-2.0,18.0,-3.0,-15.0,-9.0,-4.0,20.0,14.0,20.0,0.0
43.0,2.0,-2.0,-8.0,-19.0,-9.0,-1.0,23.0,13.0,15.0,0.0
35.0,2.0,19.0,0.0,-15.0,-2.0,8.0,11.0,9.0,-1.0,0.0
14.0,-5.0,14.0,-2.0,-12.0,6.0,10.0,9.0,2.0,-10.0,0.0
19.0,-6.0,0.0,0.0,-3.0,0.0,11.0,19.0,26.0,-15.0,0.0
17.0,-1.0,16.0,7.0,-4.0,-5.0,17.0,29.0,45.0,-13.0,0.0
3.0,-3.0,8.0,9.0,1.0,-5.0,20.0,9.0,34.0,-5.0,0.0
5.0,-5.0,-6.0,5.0,8.0,-12.0,14.0,5.0,25.0,-11.0,0.0
9.0,-6.0,12.0,1.0,6.0,-11.0,7.0,4.0,34.0,-14.0,0.0
15.0,4.0,12.0,2.0,0.0,-13.0,0.0,-8.0,17.0,-24.0,0.0
8.0,7.0,11.0,0.0,-1.0,-20.0,-7.0,-9.0,5.0,-31.0,0.0
20.0,3.0,22.0,4.0,1.0,-29.0,-7.0,0.0,6.0,-20.0,0.0
27.0,5.0,6.0,0.0,6.0,-19.0,0.0,15.0,24.0,-18.0,0.0
19.0,5.0,19.0,8.0,6.0,-12.0,14.0,27.0,41.0,-32.0,0.0
21.0,7.0,17.0,6.0,3.0,-18.0,13.0,23.0,57.0,-26.0,0.0
30.0,3.0,26.0,-8.0,-2.0,-19.0,7.0,24.0,82.0,3.0,0.0
30.0,4.0,19.0,-8.0,-7.0,-21.0,27.0,30.0,88.0,32.0,0.0
15.0,0.0,20.0,12.0,4.0,-33.0,33.0,26.0,31.0,12.0,0.0
4.0,0.0,20.0,20.0,13.0,-35.0,26.0,7.0,-10.0,-44.0,0.0
-10.0,0.0,6.0,29.0,22.0,-14.0,23.0,5.0,-17.0,-73.0,0.0
-6.0,5.0,0.0,33.0,21.0,-8.0,14.0,1.0,-29.0,-55.0,0.0
-7.0,14.0,9.0,26.0,15.0,-25.0,3.0,-15.0,-32.0,-29.0,0.0
-4.0,3.0,0.0,31.0,9.0,-14.0,-17.0,-43.0,-46.0,-39.0,0.0
-5.0,-4.0,17.0,36.0,11.0,-12.0,-20.0,-50.0,-54.0,-57.0,0.0
-7.0,-7.0,0.0,32.0,14.0,-25.0,-18.0,-39.0,-36.0,-57.0,0.0
-3.0,-2.0,0.0,14.0,13.0,-24.0,-13.0,-22.0,-22.0,-46.0,0.0
-1.0,3.0,-4.0,5.0,6.0,-14.0,5.0,-5.0,-13.0,-41.0,0.0
-6.0,-6.0,-1.0,-3.0,1.0,0.0,4.0,7.0,-4.0,-42.0,0.0
-14.0,-12.0,2.0,2.0,7.0,2.0,1.0,8.0,-11.0,-54.0,0.0
-20.0,-3.0,-14.0,13.0,10.0,5.0,11.0,9.0,-12.0,-43.0,0.0
-18.0,-6.0,-24.0,15.0,0.0,15.0,16.0,22.0,18.0,-21.0,0.0
-8.0,-15.0,-33.0,16.0,-2.0,11.0,24.0,28.0,29.0,-20.0,0.0
-1.0,-13.0,-22.0,5.0,14.0,6.0,27.0,29.0,30.0,-32.0,0.0
-9.0,-12.0,0.0,7.0,14.0,11.0,17.0,30.0,30.0,-32.0,0.0
-4.0,-4.0,-7.0,11.0,12.0,8.0,10.0,29.0,24.0,-3.0,0.0
-4.0,3.0,-11.0,9.0,5.0,3.0,-8.0,7.0,-4.0,-14.0,0.0
0.0,4.0,-7.0,12.0,9.0,-8.0,-13.0,-4.0,-33.0,-51.0,0.0
-2.0,5.0,-2.0,7.0,3.0,-9.0,0.0,0.0,-19.0,-45.0,0.0
-4.0,12.0,-5.0,8.0,9.0,6.0,12.0,16.0,9.0,-27.0,0.0
-9.0,6.0,-20.0,10.0,19.0,23.0,15.0,29.0,7.0,-40.0,0.0
-15.0,0.0,-22.0,9.0,19.0,21.0,25.0,31.0,-3.0,-56.0,0.0
-26.0,0.0,-22.0,1.0,21.0,14.0,17.0,17.0,-29.0,-59.0,0.0
-27.0,-7.0,-27.0,-9.0,11.0,15.0,11.0,8.0,-42.0,-46.0,0.0
-16.0,-15.0,-30.0,-1.0,14.0,12.0,21.0,13.0,-35.0,-19.0,0.0
-13.0,-15.0,-28.0,3.0,8.0,6.0,24.0,15.0,-25.0,-14.0,0.0
6.0,-1.0,-24.0,12.0,5.0,9.0,6.0,4.0,-36.0,-16.0,0.0
4.0,6.0,-17.0,13.0,6.0,9.0,0.0,8.0,-6.0,-24.0,0.0
15.0,12.0,-11.0,7.0,3.0,7.0,-12.0,-7.0,-7.0,-45.0,0.0
23.0,5.0,-14.0,-7.0,-16.0,0.0,-25.0,-20.0,-41.0,-36.0,0.0
30.0,1.0,-19.0,-21.0,-30.0,-20.0,-37.0,-7.0,2.0,22.0,0.0
44.0,9.0,-17.0,-19.0,-31.0,-35.0,-39.0,9.0,46.0,73.0,0.0
51.0,21.0,13.0,-4.0,-16.0,-27.0,-31.0,6.0,20.0,68.0,0.0
50.0,34.0,25.0,0.0,-14.0,-23.0,-37.0,-15.0,-16.0,45.0,0.0
43.0,36.0,1.0,-4.0,-15.0,-22.0,-23.0,0.0,22.0,71.0,0.0
25.0,18.0,-12.0,4.0,-2.0,-13.0,2.0,42.0,96.0,110.0,0.0
0.0,7.0,-15.0,7.0,4.0,-1.0,21.0,56.0,104.0,118.0,0.0
11.0,-2.0,-15.0,-1.0,-6.0,-4.0,18.0,50.0,84.0,145.0,0.0
26.0,-10.0,-4.0,0.0,-11.0,-3.0,12.0,38.0,71.0,141.0,0.0
46.0,-2.0,21.0,-4.0,-10.0,3.0,11.0,42.0,89.0,130.0,0.0
44.0,15.0,16.0,0.0,-14.0,10.0,24.0,53.0,101.0,135.0,0.0
28.0,16.0,0.0,-5.0,-9.0,5.0,36.0,50.0,90.0,144.0,0.0
17.0,-4.0,-11.0,-1.0,-1.0,1.0,32.0,41.0,60.0,193.0,0.0
6.0,-17.0,2.0,1.0,-6.0,0.0,23.0,27.0,15.0,206.0,0.0
-26.0,-27.0,20.0,4.0,1.0,6.0,30.0,18.0,-8.0,144.0,0.0
-66.0,-29.0,2.0,6.0,2.0,14.0,25.0,7.0,-4.0,142.0,0.0
-80.0,-32.0,-6.0,1.0,-6.0,9.0,-1.0,-21.0,-40.0,73.0,0.0
-87.0,-40.0,-21.0,-2.0,-14.0,-10.0,-24.0,-39.0,-94.0,-131.0,0.0
-106.0,-40.0,-22.0,-5.0,-3.0,-3.0,-13.0,-17.0,-102.0,-251.0,0.0
-119.0,-25.0,-13.0,5.0,12.0,7.0,9.0,23.0,-70.0,-255.0,0.0
-100.0,-18.0,1.0,11.0,15.0,10.0,15.0,30.0,-71.0,-285.0,0.0
-94.0,-22.0,22.0,20.0,9.0,13.0,13.0,13.0,-97.0,-295.0,0.0
-82.0,-16.0,21.0,14.0,7.0,3.0,2.0,4.0,-122.0,-243.0,0.0
-50.0,3.0,5.0,5.0,-7.0,-2.0,-11.0,7.0,-98.0,-155.0,0.0
-25.0,13.0,16.0,14.0,-18.0,-13.0,-3.0,25.0,-70.0,-100.0,0.0
-21.0,1.0,14.0,21.0,-13.0,-23.0,-16.0,26.0,-78.0,-88.0,0.0
-25.0,-15.0,0.0,15.0,0.0,-16.0,-9.0,21.0,-82.0,-71.0,0.0
-19.0,-6.0,-4.0,12.0,0.0,-7.0,0.0,28.0,-65.0,-58.0,0.0
-12.0,-2.0,16.0,14.0,-3.0,-19.0,0.0,23.0,-48.0,-38.0,0.0
1.0,3.0,11.0,10.0,-10.0,-24.0,0.0,19.0,-20.0,-5.0,0.0
18.0,6.0,3.0,14.0,-13.0,-15.0,7.0,25.0,0.0,7.0,0.0
11.0,4.0,9.0,11.0,-4.0,-11.0,13.0,32.0,-2.0,-4.0,0.0
6.0,5.0,24.0,1.0,7.0,-20.0,8.0,11.0,-17.0,-3.0,0.0
-2.0,9.0,32.0,-8.0,5.0,-24.0,3.0,-6.0,-27.0,18.0,0.0
9.0,13.0,26.0,-8.0,4.0,-25.0,-3.0,-3.0,-13.0,33.0,0.0
7.0,14.0,21.0,-2.0,9.0,-18.0,-1.0,8.0,-9.0,35.0,0.0
-2.0,10.0,7.0,6.0,14.0,-6.0,-6.0,9.0,-9.0,28.0,0.0
-3.0,22.0,-7.0,-3.0,5.0,-10.0,-19.0,-9.0,-22.0,14.0,0.0
8.0,13.0,-5.0,-8.0,-7.0,-13.0,-34.0,-21.0,-37.0,12.0,0.0
25.0,14.0,18.0,7.0,-12.0,-15.0,-32.0,-25.0,-23.0,45.0,0.0
50.0,17.0,-2.0,15.0,-7.0,-8.0,-28.0,-23.0,-20.0,75.0,0.0
50.0,12.0,-17.0,1.0,-16.0,-17.0,-32.0,-22.0,-14.0,89.0,0.0
45.0,2.0,0.0,1.0,-28.0,-19.0,-22.0,-23.0,-13.0,112.0,0.0
27.0,0.0,12.0,-8.0,-18.0,-14.0,-26.0,-17.0,-20.0,102.0,0.0
3.0,1.0,0.0,-4.0,-2.0,-1.0,-22.0,-27.0,-40.0,62.0,0.0
-9.0,-1.0,16.0,4.0,0.0,2.0,-13.0,-14.0,-30.0,42.0,0.0
-6.0,-10.0,2.0,0.0,0.0,0.0,0.0,-4.0,-14.0,11.0,0.0
-13.0,-19.0,-7.0,7.0,10.0,6.0,3.0,8.0,-26.0,-51.0,0.0
-18.0,-2.0,7.0,9.0,10.0,0.0,-3.0,14.0,-28.0,-62.0,0.0
-28.0,5.0,6.0,3.0,5.0,0.0,-8.0,-1.0,-25.0,-51.0,0.0
-13.0,11.0,-4.0,-5.0,-2.0,-3.0,0.0,4.0,-16.0,-37.0,0.0
-2.0,7.0,8.0,-1.0,6.0,11.0,5.0,0.0,-8.0,-24.0,0.0
-3.0,2.0,14.0,0.0,8.0,20.0,12.0,-2.0,-6.0,-10.0,0.0
1.0,1.0,16.0,20.0,8.0,20.0,21.0,-5.0,-13.0,-2.0,0.0
18.0,-7.0,20.0,28.0,1.0,17.0,4.0,-25.0,-26.0,5.0,0.0
23.0,1.0,17.0,19.0,-3.0,19.0,2.0,-40.0,-26.0,12.0,0.0
11.0,3.0,11.0,14.0,5.0,21.0,19.0,-25.0,-20.0,22.0,0.0
8.0,1.0,3.0,7.0,-3.0,28.0,12.0,-13.0,-9.0,24.0,0.0
16.0,-4.0,17.0,6.0,-6.0,23.0,7.0,-18.0,-6.0,24.0,0.0
18.0,0.0,3.0,13.0,-16.0,21.0,9.0,-37.0,-28.0,17.0,0.0
10.0,21.0,7.0,3.0,-25.0,18.0,0.0,-39.0,-35.0,9.0,0.0
17.0,20.0,-3.0,-5.0,-21.0,19.0,-12.0,-46.0,-35.0,11.0,0.0
24.0,14.0,-3.0,-3.0,-9.0,12.0,-17.0,-55.0,-42.0,-8.0,0.0
25.0,26.0,4.0,-6.0,-28.0,5.0,-9.0,-64.0,-51.0,-13.0,0.0
19.0,10.0,5.0,-8.0,-37.0,5.0,0.0,-51.0,-21.0,6.0,0.0
0.0,3.0,14.0,-12.0,-22.0,15.0,-10.0,-24.0,2.0,12.0,0.0
0.0,11.0,-5.0,-17.0,-18.0,21.0,-9.0,0.0,28.0,29.0,0.0
4.0,19.0,4.0,-14.0,-11.0,18.0,-3.0,-14.0,40.0,42.0,0.0
9.0,20.0,-4.0,-39.0,-9.0,6.0,1.0,-10.0,53.0,55.0,0.0
9.0,8.0,-17.0,-44.0,-16.0,3.0,6.0,2.0,52.0,43.0,0.0
13.0,3.0,-18.0,-30.0,-11.0,7.0,-7.0,8.0,42.0,25.0,0.0
7.0,0.0,0.0,-11.0,-15.0,2.0,-21.0,7.0,35.0,26.0,0.0
11.0,2.0,-3.0,-4.0,-9.0,7.0,-21.0,12.0,43.0,51.0,0.0
28.0,12.0,-8.0,-10.0,-8.0,4.0,-22.0,12.0,50.0,68.0,0.0
35.0,5.0,3.0,-11.0,-1.0,-1.0,-28.0,14.0,83.0,87.0,0.0
41.0,3.0,-4.0,-6.0,-9.0,4.0,-23.0,31.0,129.0,118.0,0.0
51.0,2.0,-14.0,-25.0,-11.0,2.0,-25.0,19.0,127.0,140.0,0.0
45.0,6.0,-8.0,-28.0,-18.0,-6.0,-27.0,0.0,111.0,128.0,0.0
46.0,-2.0,5.0,-7.0,-17.0,-14.0,-35.0,-24.0,66.0,101.0,0.0
38.0,-2.0,-12.0,-3.0,-8.0,-11.0,-31.0,-24.0,25.0,72.0,0.0
25.0,0.0,-20.0,6.0,-7.0,0.0,-25.0,-21.0,-9.0,9.0,0.0
20.0,1.0,-19.0,5.0,-8.0,1.0,-27.0,-24.0,-43.0,-54.0,0.0
1.0,-5.0,5.0,10.0,-5.0,4.0,-21.0,-25.0,-58.0,-93.0,0.0
-25.0,-18.0,3.0,20.0,-1.0,7.0,5.0,-4.0,-44.0,-92.0,0.0
-31.0,-23.0,4.0,20.0,1.0,1.0,16.0,-2.0,-54.0,-93.0,0.0
-27.0,-19.0,15.0,18.0,0.0,-4.0,0.0,-17.0,-70.0,-88.0,0.0
-13.0,-22.0,-3.0,13.0,-6.0,-10.0,-13.0,-17.0,-67.0,-63.0,0.0
14.0,-5.0,-23.0,-3.0,-14.0,-13.0,-4.0,-5.0,-41.0,-29.0,0.0
22.0,10.0,-31.0,-8.0,-17.0,-11.0,10.0,3.0,-33.0,-17.0,0.0
14.0,5.0,-26.0,0.0,-12.0,-11.0,3.0,0.0,-33.0,-10.0,0.0
5.0,-5.0,-10.0,4.0,-10.0,-2.0,-5.0,11.0,-17.0,5.0,0.0
-10.0,-12.0,14.0,8.0,-6.0,0.0,-1.0,7.0,-11.0,-4.0,0.0
-26.0,-4.0,-3.0,0.0,-6.0,8.0,-11.0,2.0,-6.0,-11.0,0.0
-30.0,-4.0,-12.0,0.0,0.0,3.0,-20.0,-8.0,6.0,-22.0,0.0
-21.0,7.0,6.0,-1.0,-1.0,-6.0,-28.0,-14.0,-11.0,-34.0,0.0
-13.0,14.0,12.0,0.0,-4.0,-11.0,-23.0,-20.0,-13.0,-43.0,0.0
-7.0,15.0,2.0,7.0,-8.0,-1.0,-21.0,-19.0,-13.0,-34.0,0.0
-3.0,22.0,12.0,-2.0,-10.0,0.0,-16.0,-18.0,-14.0,-8.0,0.0
8.0,25.0,14.0,-7.0,-13.0,-10.0,1.0,-4.0,7.0,66.0,0.0
36.0,16.0,8.0,-7.0,-14.0,-11.0,19.0,5.0,45.0,129.0,0.0
40.0,21.0,11.0,-9.0,-15.0,-2.0,18.0,20.0,65.0,134.0,0.0
47.0,23.0,-7.0,-12.0,-22.0,-15.0,8.0,20.0,63.0,102.0,0.0
23.0,13.0,-21.0,-15.0,-29.0,-7.0,3.0,18.0,52.0,5.0,0.0
-4.0,2.0,-20.0,-4.0,-13.0,-3.0,0.0,25.0,46.0,-59.0,0.0
-18.0,0.0,10.0,0.0,-1.0,8.0,13.0,23.0,18.0,-87.0,0.0
-31.0,0.0,15.0,0.0,8.0,12.0,17.0,23.0,-10.0,-112.0,0.0
-29.0,7.0,16.0,-7.0,12.0,0.0,7.0,17.0,-32.0,-112.0,0.0
-19.0,-3.0,14.0,-4.0,2.0,-8.0,3.0,-2.0,-29.0,-80.0,0.0
-15.0,4.0,20.0,0.0,-1.0,-3.0,4.0,1.0,-9.0,-47.0,0.0
-21.0,17.0,23.0,1.0,-4.0,2.0,5.0,3.0,9.0,-22.0,0.0
-10.0,15.0,24.0,10.0,-6.0,-1.0,13.0,14.0,40.0,4.0,0.0
0.0,13.0,3.0,8.0,-4.0,7.0,14.0,26.0,49.0,10.0,0.0
2.0,24.0,-23.0,8.0,-4.0,6.0,7.0,12.0,19.0,-4.0,0.0
5.0,23.0,-27.0,2.0,-3.0,0.0,11.0,2.0,13.0,2.0,0.0
3.0,16.0,-32.0,-3.0,4.0,-1.0,13.0,11.0,19.0,9.0,0.0
10.0,21.0,-34.0,-1.0,5.0,0.0,10.0,19.0,16.0,28.0,0.0
19.0,19.0,-31.0,2.0,6.0,-1.0,16.0,17.0,27.0,52.0,0.0
18.0,9.0,-25.0,-2.0,2.0,-1.0,18.0,18.0,31.0,56.0,0.0
3.0,0.0,-21.0,-9.0,3.0,-5.0,15.0,4.0,10.0,39.0,0.0
-4.0,0.0,-22.0,-10.0,1.0,2.0,14.0,6.0,-14.0,31.0,0.0
-4.0,3.0,-18.0,-7.0,3.0,20.0,18.0,10.0,-4.0,35.0,0.0
16.0,4.0,-21.0,-6.0,6.0,21.0,13.0,13.0,9.0,90.0,0.0
46.0,5.0,-19.0,-17.0,1.0,19.0,20.0,22.0,55.0,184.0,0.0
56.0,12.0,3.0,-30.0,-5.0,-5.0,27.0,28.0,73.0,265.0,0.0
87.0,28.0,13.0,-33.0,-16.0,-20.0,6.0,20.0,80.0,315.0,0.0
102.0,34.0,-2.0,-33.0,-25.0,-37.0,-5.0,-13.0,42.0,213.0,0.0
56.0,30.0,-12.0,-13.0,-22.0,-29.0,-6.0,-46.0,-46.0,-19.0,0.0
17.0,9.0,-21.0,1.0,-4.0,-15.0,12.0,-17.0,-43.0,-70.0,0.0
-2.0,-4.0,-14.0,5.0,2.0,0.0,37.0,17.0,-15.0,-54.0,0.0
-43.0,-8.0,-11.0,3.0,-1.0,8.0,36.0,10.0,-62.0,-96.0,0.0
-70.0,-20.0,-8.0,2.0,-2.0,13.0,37.0,15.0,-64.0,-93.0,0.0
-61.0,-26.0,-12.0,-3.0,8.0,11.0,33.0,18.0,-49.0,-93.0,0.0
-47.0,-20.0,-14.0,0.0,6.0,7.0,19.0,0.0,-67.0,-151.0,0.0
-37.0,-19.0,-11.0,0.0,5.0,13.0,12.0,4.0,-50.0,-185.0,0.0
-49.0,-29.0,-8.0,13.0,14.0,22.0,25.0,36.0,-2.0,-166.0,0.0
-44.0,-22.0,11.0,20.0,7.0,25.0,38.0,48.0,18.0,-159.0,0.0
-29.0,0.0,27.0,26.0,6.0,21.0,34.0,43.0,5.0,-160.0,0.0
-20.0,10.0,14.0,29.0,8.0,16.0,33.0,33.0,-20.0,-144.0,0.0
-10.0,9.0,29.0,17.0,17.0,6.0,30.0,27.0,-26.0,-116.0,0.0
-9.0,-2.0,31.0,8.0,21.0,11.0,34.0,18.0,-2.0,-97.0,0.0
-1.0,0.0,29.0,13.0,32.0,18.0,17.0,0.0,-18.0,-88.0,0.0
0.0,0.0,22.0,4.0,31.0,10.0,-2.0,-23.0,-42.0,-96.0,0.0
-13.0,-6.0,24.0,-1.0,19.0,-2.0,-15.0,-39.0,-47.0,-91.0,0.0
-8.0,0.0,18.0,-6.0,9.0,-14.0,-18.0,-28.0,-40.0,-81.0,0.0
-1.0,-12.0,18.0,2.0,13.0,-10.0,0.0,-11.0,-27.0,-56.0,0.0
4.0,-7.0,40.0,12.0,22.0,-10.0,4.0,-5.0,-32.0,-51.0,0.0
0.0,-3.0,43.0,3.0,31.0,-9.0,-1.0,-22.0,-36.0,-45.0,0.0
-7.0,-1.0,24.0,0.0,33.0,-3.0,-6.0,-38.0,-46.0,-47.0,0.0
-8.0,8.0,27.0,-6.0,21.0,-12.0,-14.0,-45.0,-40.0,-39.0,0.0
-9.0,14.0,25.0,-11.0,15.0,-14.0,-21.0,-30.0,-19.0,-27.0,0.0
-4.0,9.0,13.0,-12.0,11.0,-8.0,-19.0,-6.0,32.0,-25.0,0.0
4.0,-6.0,11.0,-10.0,8.0,-14.0,-13.0,24.0,68.0,-5.0,0.0
9.0,-8.0,0.0,-3.0,1.0,-12.0,-4.0,15.0,52.0,-3.0,0.0
8.0,1.0,-10.0,-19.0,3.0,-2.0,-9.0,-15.0,0.0,-27.0,0.0
9.0,16.0,7.0,-26.0,13.0,4.0,-27.0,-28.0,-24.0,-38.0,0.0
6.0,17.0,1.0,-33.0,5.0,3.0,-17.0,-33.0,-31.0,-34.0,0.0
21.0,12.0,14.0,-41.0,-5.0,6.0,-27.0,-34.0,-34.0,-20.0,0.0
22.0,9.0,1.0,-37.0,-1.0,0.0,-46.0,-46.0,-34.0,-6.0,0.0
19.0,1.0,-19.0,-32.0,-9.0,-9.0,-35.0,-57.0,-36.0,8.0,0.0
19.0,-6.0,-9.0,-20.0,0.0,3.0,-19.0,-45.0,-30.0,-4.0,0.0
9.0,-8.0,-5.0,-14.0,11.0,8.0,-21.0,-29.0,-13.0,-13.0,0.0
15.0,-10.0,-9.0,-7.0,8.0,9.0,-25.0,-15.0,49.0,-4.0,0.0
6.0,-9.0,6.0,-5.0,2.0,5.0,-20.0,7.0,153.0,16.0,0.0
-8.0,-22.0,-5.0,-7.0,0.0,0.0,0.0,16.0,164.0,41.0,0.0
-4.0,-21.0,-19.0,-13.0,17.0,-1.0,-3.0,8.0,89.0,10.0,0.0
0.0,-17.0,-15.0,-10.0,27.0,3.0,-13.0,-7.0,15.0,-62.0,0.0
0.0,-22.0,3.0,-16.0,26.0,1.0,-5.0,-6.0,4.0,-68.0,0.0
17.0,-16.0,0.0,-16.0,18.0,0.0,-5.0,5.0,1.0,-53.0,0.0
33.0,-5.0,-15.0,-15.0,14.0,0.0,-10.0,3.0,-26.0,-66.0,0.0
36.0,3.0,-25.0,-10.0,5.0,-1.0,-12.0,-17.0,-40.0,-64.0,0.0
31.0,-4.0,-23.0,10.0,0.0,-9.0,-6.0,-21.0,-33.0,-34.0,0.0
23.0,3.0,0.0,9.0,7.0,-7.0,11.0,-10.0,1.0,-7.0,0.0
16.0,2.0,-6.0,12.0,5.0,-8.0,17.0,-4.0,13.0,-7.0,0.0
7.0,0.0,-14.0,23.0,10.0,-16.0,0.0,-7.0,15.0,-31.0,0.0
-7.0,-3.0,-18.0,25.0,8.0,-15.0,-8.0,19.0,91.0,-23.0,0.0
0.0,-5.0,-21.0,25.0,4.0,4.0,1.0,48.0,143.0,0.0,0.0
9.0,8.0,-22.0,19.0,-1.0,8.0,6.0,42.0,128.0,-12.0,0.0
-2.0,5.0,-25.0,13.0,0.0,8.0,3.0,22.0,102.0,-41.0,0.0
-21.0,-14.0,-26.0,16.0,11.0,-5.0,-3.0,21.0,83.0,-37.0,0.0
-17.0,-15.0,-25.0,16.0,9.0,-5.0,0.0,22.0,50.0,14.0,0.0
4.0,-5.0,-22.0,8.0,9.0,-10.0,5.0,8.0,13.0,58.0,0.0
13.0,1.0,-15.0,-5.0,5.0,-14.0,5.0,-3.0,5.0,90.0,0.0
16.0,-4.0,-10.0,-4.0,6.0,-15.0,-3.0,-13.0,-10.0,129.0,0.0
12.0,-15.0,-17.0,11.0,6.0,-18.0,-10.0,-25.0,-14.0,66.0,0.0
-2.0,-19.0,-19.0,6.0,3.0,-12.0,-21.0,-42.0,-66.0,-139.0,0.0
-12.0,-17.0,-14.0,7.0,5.0,-12.0,-8.0,-38.0,-86.0,-221.0,0.0
-1.0,-17.0,-6.0,11.0,3.0,2.0,0.0,-23.0,-63.0,-185.0,0.0
17.0,-9.0,9.0,15.0,7.0,7.0,6.0,-13.0,-49.0,-152.0,0.0
9.0,-9.0,17.0,9.0,9.0,15.0,7.0,-18.0,-47.0,-124.0,0.0
-7.0,-11.0,-2.0,10.0,14.0,12.0,11.0,-14.0,-43.0,-86.0,0.0
7.0,-5.0,-1.0,12.0,5.0,11.0,14.0,-9.0,-35.0,-12.0,0.0
15.0,-7.0,-7.0,7.0,-1.0,-4.0,6.0,-25.0,-49.0,4.0,0.0
2.0,-15.0,-8.0,8.0,-1.0,-8.0,4.0,-13.0,-49.0,-49.0,0.0
-7.0,-21.0,-5.0,12.0,0.0,1.0,14.0,0.0,-45.0,-116.0,0.0
-6.0,-16.0,19.0,17.0,5.0,23.0,0.0,-8.0,-48.0,-119.0,0.0
-13.0,-13.0,14.0,22.0,5.0,22.0,0.0,-9.0,-19.0,-88.0,0.0
-10.0,-17.0,-3.0,20.0,-11.0,25.0,12.0,19.0,44.0,-80.0,0.0
-6.0,-16.0,-4.0,26.0,-6.0,22.0,3.0,22.0,31.0,-92.0,0.0
-8.0,-23.0,-8.0,17.0,-1.0,15.0,-4.0,3.0,-13.0,-133.0,0.0
-13.0,-30.0,-11.0,-6.0,-2.0,19.0,4.0,6.0,-17.0,-131.0,0.0
-5.0,-12.0,-15.0,-14.0,-8.0,21.0,8.0,17.0,3.0,-82.0,0.0
-4.0,0.0,-12.0,-14.0,-6.0,20.0,2.0,15.0,-1.0,-75.0,0.0
4.0,3.0,-14.0,-26.0,-27.0,5.0,2.0,11.0,1.0,-26.0,0.0
9.0,2.0,-15.0,-21.0,-33.0,-2.0,13.0,5.0,13.0,20.0,0.0
1.0,-11.0,-16.0,-17.0,-24.0,8.0,27.0,2.0,10.0,5.0,0.0
13.0,-25.0,-12.0,-23.0,-15.0,17.0,25.0,11.0,-5.0,1.0,0.0
21.0,-31.0,-5.0,-19.0,-13.0,21.0,28.0,8.0,-3.0,8.0,0.0
22.0,-21.0,-8.0,-7.0,-9.0,10.0,18.0,0.0,-8.0,-2.0,0.0
13.0,-13.0,-8.0,-14.0,0.0,12.0,17.0,8.0,-11.0,-21.0,0.0
13.0,-15.0,-4.0,-20.0,6.0,16.0,8.0,7.0,-25.0,-28.0,0.0
10.0,-16.0,-2.0,-26.0,2.0,8.0,4.0,-7.0,-41.0,-34.0,0.0
12.0,-13.0,-1.0,-21.0,-2.0,1.0,0.0,-18.0,-47.0,-44.0,0.0
15.0,-9.0,21.0,-3.0,-11.0,0.0,0.0,-19.0,-37.0,-44.0,0.0
17.0,-11.0,21.0,0.0,-13.0,-2.0,14.0,-12.0,-3.0,-32.0,0.0
10.0,-6.0,13.0,4.0,-3.0,-4.0,24.0,-15.0,-6.0,-28.0,0.0
-11.0,9.0,1.0,12.0,2.0,0.0,13.0,-15.0,1.0,-14.0,0.0
-25.0,13.0,-7.0,21.0,-5.0,-1.0,1.0,-1.0,7.0,-20.0,0.0
-40.0,11.0,6.0,26.0,-6.0,0.0,1.0,18.0,7.0,-33.0,0.0
-25.0,24.0,21.0,15.0,-6.0,-4.0,8.0,10.0,31.0,-33.0,0.0
-25.0,26.0,0.0,-6.0,-3.0,-3.0,10.0,-7.0,25.0,-46.0,0.0
-34.0,11.0,-7.0,-2.0,-5.0,11.0,8.0,-15.0,9.0,-43.0,0.0
-25.0,8.0,-5.0,2.0,-17.0,18.0,-6.0,-15.0,4.0,-25.0,0.0
-8.0,7.0,-5.0,3.0,-22.0,17.0,-9.0,4.0,27.0,2.0,0.0
-5.0,0.0,-8.0,2.0,-26.0,19.0,-3.0,21.0,57.0,24.0,0.0
-2.0,0.0,-6.0,3.0,-12.0,5.0,1.0,10.0,49.0,32.0,0.0
-4.0,14.0,-9.0,24.0,-21.0,5.0,-1.0,0.0,31.0,33.0,0.0
-6.0,15.0,-11.0,23.0,-15.0,9.0,-16.0,-10.0,-12.0,5.0,0.0
-5.0,14.0,-11.0,5.0,-16.0,19.0,-16.0,-9.0,-33.0,-27.0,0.0
-9.0,8.0,-11.0,2.0,-7.0,21.0,-4.0,-6.0,-25.0,-29.0,0.0
-25.0,-1.0,-11.0,9.0,1.0,18.0,6.0,-7.0,-36.0,-53.0,0.0
-23.0,5.0,-10.0,4.0,4.0,21.0,-1.0,-15.0,-46.0,-46.0,0.0
1.0,15.0,-9.0,-11.0,6.0,24.0,-15.0,-9.0,-40.0,-27.0,0.0
25.0,19.0,-11.0,-15.0,-3.0,11.0,-16.0,-3.0,-32.0,-9.0,0.0
41.0,32.0,-3.0,-7.0,-5.0,-7.0,-10.0,0.0,-14.0,12.0,0.0
38.0,39.0,7.0,1.0,2.0,-8.0,-4.0,-1.0,-19.0,14.0,0.0
30.0,28.0,8.0,15.0,0.0,-9.0,-10.0,-10.0,-37.0,10.0,0.0
29.0,30.0,5.0,26.0,-3.0,-14.0,-23.0,-21.0,-43.0,8.0,0.0
27.0,28.0,-5.0,24.0,-9.0,-23.0,-13.0,-15.0,-30.0,20.0,0.0
37.0,26.0,-11.0,22.0,-8.0,-24.0,-5.0,-4.0,-4.0,50.0,0.0
22.0,20.0,-5.0,13.0,-5.0,-22.0,-9.0,-3.0,2.0,53.0,0.0
-20.0,0.0,-3.0,7.0,6.0,-2.0,-6.0,-2.0,2.0,25.0,0.0
-36.0,-6.0,-3.0,20.0,18.0,4.0,8.0,1.0,4.0,8.0,0.0
-37.0,-3.0,0.0,22.0,21.0,9.0,15.0,2.0,11.0,-4.0,0.0
-31.0,5.0,-3.0,15.0,15.0,0.0,15.0,21.0,21.0,-17.0,0.0
-21.0,7.0,2.0,13.0,7.0,-1.0,9.0,20.0,28.0,1.0,0.0
-14.0,5.0,6.0,18.0,5.0,2.0,-1.0,11.0,9.0,-2.0,0.0
-23.0,13.0,23.0,20.0,3.0,-5.0,-11.0,0.0,-3.0,-7.0,0.0
-18.0,17.0,17.0,22.0,-3.0,-13.0,-1.0,-4.0,16.0,23.0,0.0
-7.0,21.0,1.0,17.0,-4.0,-1.0,11.0,2.0,22.0,39.0,0.0
-14.0,17.0,-2.0,16.0,-4.0,0.0,0.0,-2.0,-1.0,43.0,0.0
-9.0,10.0,-2.0,9.0,-3.0,-9.0,-10.0,-11.0,-1.0,35.0,0.0
-12.0,11.0,-2.0,7.0,-4.0,-2.0,-21.0,-11.0,-12.0,20.0,0.0
-23.0,13.0,-9.0,9.0,0.0,-4.0,-21.0,-20.0,-16.0,6.0,0.0
-20.0,14.0,-6.0,5.0,-9.0,-14.0,-21.0,-20.0,0.0,21.0,0.0
-9.0,14.0,4.0,-29.0,-18.0,-13.0,-19.0,-15.0,12.0,47.0,0.0
3.0,12.0,8.0,-40.0,-22.0,-10.0,-17.0,-8.0,15.0,49.0,0.0
4.0,15.0,0.0,-7.0,-12.0,-10.0,-15.0,-7.0,20.0,55.0,0.0
7.0,14.0,-8.0,13.0,-2.0,0.0,-5.0,-4.0,37.0,79.0,0.0
8.0,15.0,-6.0,16.0,2.0,0.0,-3.0,-5.0,40.0,68.0,0.0
6.0,20.0,-3.0,9.0,2.0,-1.0,-19.0,-25.0,16.0,38.0,0.0
20.0,34.0,18.0,-1.0,-13.0,-10.0,-32.0,-35.0,8.0,31.0,0.0
24.0,22.0,22.0,-4.0,-12.0,-2.0,-25.0,-16.0,44.0,41.0,0.0
3.0,7.0,7.0,0.0,-3.0,-2.0,-18.0,2.0,42.0,-14.0,0.0
-15.0,-2.0,2.0,12.0,4.0,-4.0,-9.0,10.0,26.0,-57.0,0.0
-23.0,5.0,0.0,12.0,14.0,-1.0,-1.0,27.0,33.0,-51.0,0.0
-22.0,-1.0,-4.0,10.0,7.0,3.0,-3.0,40.0,46.0,-34.0,0.0
-10.0,-16.0,-6.0,2.0,-1.0,-5.0,3.0,51.0,75.0,-17.0,0.0
-6.0,-14.0,-10.0,0.0,-8.0,-14.0,2.0,52.0,113.0,31.0,0.0
3.0,-9.0,-10.0,-2.0,-2.0,-17.0,-8.0,44.0,118.0,71.0,0.0
18.0,-9.0,-5.0,-12.0,2.0,-15.0,-17.0,27.0,70.0,73.0,0.0
17.0,-17.0,0.0,-15.0,-7.0,-24.0,-13.0,11.0,35.0,74.0,0.0
27.0,-15.0,2.0,-14.0,-5.0,-15.0,-11.0,2.0,23.0,78.0,0.0
35.0,2.0,21.0,-2.0,15.0,8.0,7.0,5.0,-9.0,49.0,0.0
5.0,-8.0,36.0,4.0,21.0,13.0,19.0,-7.0,-37.0,-1.0,0.0
-15.0,-10.0,28.0,-8.0,6.0,11.0,3.0,-14.0,-49.0,-45.0,0.0
-26.0,-8.0,33.0,-36.0,2.0,8.0,0.0,-18.0,-46.0,-61.0,0.0
-36.0,-23.0,9.0,-38.0,9.0,4.0,11.0,-6.0,-44.0,-48.0,0.0
-40.0,-19.0,-2.0,-44.0,15.0,7.0,10.0,-7.0,-51.0,-46.0,0.0
-30.0,-10.0,-2.0,-38.0,13.0,-7.0,-4.0,-19.0,-16.0,-12.0,0.0
-12.0,-11.0,-10.0,-6.0,14.0,-4.0,-16.0,-22.0,6.0,31.0,0.0
-2.0,-12.0,7.0,21.0,12.0,0.0,-15.0,-23.0,-3.0,36.0,0.0
0.0,-6.0,20.0,19.0,9.0,-17.0,-29.0,-39.0,-19.0,27.0,0.0
-12.0,-1.0,11.0,20.0,3.0,-21.0,-45.0,-43.0,-39.0,3.0,0.0
-13.0,-12.0,22.0,13.0,-9.0,-15.0,-26.0,-35.0,-15.0,15.0,0.0
-5.0,-17.0,32.0,-7.0,-1.0,-3.0,-3.0,-2.0,40.0,52.0,0.0
10.0,-12.0,21.0,-31.0,1.0,-5.0,-9.0,8.0,33.0,63.0,0.0
-9.0,-11.0,33.0,-32.0,5.0,-4.0,-3.0,15.0,25.0,65.0,0.0
-9.0,0.0,39.0,-12.0,1.0,6.0,-3.0,7.0,23.0,74.0,0.0
-12.0,-2.0,34.0,-1.0,7.0,1.0,0.0,13.0,23.0,84.0,0.0
-24.0,1.0,31.0,-1.0,24.0,-3.0,0.0,3.0,19.0,65.0,0.0
-30.0,14.0,15.0,1.0,18.0,3.0,5.0,-11.0,-19.0,-27.0,0.0
-41.0,2.0,29.0,9.0,14.0,11.0,0.0,-18.0,-35.0,-56.0,0.0
-37.0,-2.0,23.0,0.0,9.0,13.0,-2.0,-28.0,-8.0,28.0,0.0
-31.0,0.0,24.0,6.0,6.0,16.0,3.0,-20.0,13.0,78.0,0.0
-18.0,-4.0,20.0,3.0,1.0,12.0,8.0,-25.0,20.0,116.0,0.0
-5.0,-4.0,15.0,-2.0,-14.0,9.0,0.0,-26.0,17.0,102.0,0.0
-18.0,-14.0,-14.0,-18.0,-19.0,16.0,2.0,-20.0,9.0,-29.0,0.0
-23.0,-19.0,-4.0,-21.0,-3.0,31.0,4.0,1.0,13.0,-90.0,0.0
-24.0,-5.0,8.0,-16.0,-3.0,32.0,12.0,8.0,13.0,-55.0,0.0
-25.0,0.0,15.0,-15.0,-8.0,25.0,17.0,2.0,4.0,-38.0,0.0
-21.0,8.0,9.0,-20.0,-14.0,20.0,9.0,-4.0,-3.0,-28.0,0.0
-14.0,12.0,-14.0,-4.0,-15.0,16.0,1.0,1.0,-5.0,0.0,0.0
-12.0,2.0,-32.0,2.0,-5.0,16.0,18.0,0.0,6.0,8.0,0.0
0.0,12.0,-10.0,-11.0,0.0,8.0,14.0,-4.0,11.0,22.0,0.0
3.0,20.0,8.0,-16.0,0.0,0.0,17.0,-6.0,12.0,37.0,0.0
11.0,12.0,-8.0,-12.0,1.0,-9.0,28.0,-7.0,4.0,45.0,0.0
13.0,6.0,-12.0,-16.0,-1.0,-14.0,25.0,-1.0,-5.0,39.0,0.0
14.0,13.0,18.0,-18.0,0.0,-16.0,22.0,-7.0,-18.0,30.0,0.0
15.0,13.0,12.0,-12.0,-2.0,-15.0,18.0,-5.0,-15.0,21.0,0.0
22.0,12.0,17.0,-6.0,0.0,-8.0,18.0,15.0,0.0,34.0,0.0
45.0,22.0,3.0,-9.0,12.0,-11.0,17.0,1.0,12.0,67.0,0.0
69.0,21.0,8.0,-10.0,15.0,-16.0,9.0,-5.0,9.0,91.0,0.0
70.0,16.0,-3.0,-10.0,12.0,-13.0,5.0,8.0,1.0,105.0,0.0
61.0,11.0,-15.0,-17.0,10.0,-6.0,-2.0,12.0,2.0,99.0,0.0
41.0,4.0,-1.0,-4.0,9.0,-12.0,-3.0,13.0,17.0,81.0,0.0
24.0,4.0,1.0,0.0,18.0,-9.0,5.0,15.0,18.0,38.0,0.0
12.0,-2.0,-4.0,9.0,19.0,4.0,7.0,11.0,-17.0,19.0,0.0
8.0,2.0,13.0,5.0,30.0,11.0,1.0,1.0,-37.0,10.0,0.0
3.0,3.0,-3.0,4.0,30.0,-5.0,0.0,6.0,-33.0,0.0,0.0
-5.0,1.0,-11.0,9.0,32.0,-2.0,8.0,26.0,-3.0,0.0,0.0
6.0,-6.0,14.0,11.0,31.0,-2.0,12.0,19.0,-4.0,5.0,0.0
23.0,0.0,-1.0,7.0,21.0,-6.0,20.0,15.0,-11.0,21.0,0.0
25.0,11.0,2.0,1.0,17.0,-9.0,14.0,14.0,-19.0,24.0,0.0
30.0,10.0,5.0,0.0,13.0,-15.0,13.0,3.0,-10.0,23.0,0.0
48.0,18.0,-12.0,-4.0,9.0,-16.0,17.0,2.0,-4.0,34.0,0.0
56.0,28.0,0.0,0.0,6.0,-26.0,7.0,3.0,4.0,35.0,0.0
42.0,19.0,-7.0,-3.0,-7.0,-35.0,-9.0,5.0,45.0,40.0,0.0
18.0,8.0,-19.0,-6.0,0.0,-33.0,-9.0,10.0,53.0,33.0,0.0
15.0,5.0,-1.0,-11.0,14.0,-27.0,-6.0,16.0,32.0,10.0,0.0
11.0,3.0,20.0,-7.0,19.0,-16.0,6.0,8.0,9.0,0.0,0.0
6.0,-7.0,12.0,-2.0,15.0,-7.0,7.0,-3.0,-4.0,-17.0,0.0
0.0,-11.0,8.0,13.0,13.0,-16.0,0.0,-8.0,-17.0,-32.0,0.0
7.0,0.0,-1.0,30.0,3.0,-11.0,11.0,-5.0,-10.0,-22.0,0.0
27.0,8.0,8.0,17.0,-3.0,-12.0,10.0,-7.0,-1.0,13.0,0.0
46.0,18.0,9.0,9.0,-3.0,-31.0,0.0,-11.0,5.0,50.0,0.0
68.0,18.0,8.0,-1.0,-7.0,-33.0,0.0,-1.0,9.0,70.0,0.0
69.0,17.0,5.0,9.0,-13.0,-29.0,-5.0,2.0,13.0,54.0,0.0
56.0,17.0,0.0,15.0,-16.0,-24.0,-10.0,-1.0,4.0,23.0,0.0
21.0,11.0,10.0,18.0,-14.0,-23.0,4.0,-11.0,0.0,-24.0,0.0
-26.0,-7.0,7.0,25.0,-8.0,-8.0,3.0,0.0,2.0,-64.0,0.0
-34.0,-19.0,22.0,32.0,0.0,8.0,19.0,12.0,8.0,-73.0,0.0
-13.0,-11.0,14.0,25.0,-4.0,16.0,37.0,21.0,39.0,-21.0,0.0
-4.0,-6.0,0.0,13.0,-15.0,11.0,22.0,27.0,62.0,31.0,0.0
-5.0,-14.0,-21.0,15.0,-25.0,7.0,7.0,29.0,59.0,33.0,0.0
-18.0,-16.0,-22.0,21.0,-27.0,15.0,8.0,22.0,21.0,-9.0,0.0
-31.0,-25.0,0.0,22.0,-15.0,17.0,13.0,5.0,-31.0,-88.0,0.0
-39.0,-35.0,-13.0,19.0,-7.0,26.0,11.0,3.0,-56.0,-111.0,0.0
-38.0,-28.0,-26.0,16.0,-7.0,20.0,0.0,0.0,-47.0,-105.0,0.0
-35.0,-25.0,-21.0,13.0,-5.0,11.0,-3.0,-21.0,-53.0,-114.0,0.0
-33.0,-29.0,-6.0,9.0,-5.0,7.0,-10.0,-13.0,-62.0,-109.0,0.0
-33.0,-28.0,-2.0,0.0,-3.0,4.0,-12.0,6.0,-44.0,-79.0,0.0
-16.0,-22.0,-13.0,-5.0,0.0,10.0,-9.0,12.0,-23.0,-49.0,0.0
-1.0,-19.0,-19.0,1.0,9.0,11.0,3.0,5.0,-19.0,-23.0,0.0
0.0,-7.0,1.0,3.0,11.0,9.0,-2.0,-7.0,-29.0,-15.0,0.0
4.0,-12.0,0.0,7.0,3.0,11.0,-14.0,-17.0,-24.0,-7.0,0.0
13.0,-8.0,-17.0,13.0,0.0,10.0,-20.0,-10.0,-13.0,0.0,0.0
2.0,-8.0,-23.0,12.0,6.0,6.0,-13.0,-2.0,-12.0,1.0,0.0
0.0,-6.0,-4.0,8.0,0.0,3.0,-5.0,8.0,-13.0,-5.0,0.0
4.0,-1.0,22.0,23.0,-13.0,-5.0,-19.0,-4.0,-18.0,-3.0,0.0
0.0,18.0,17.0,17.0,-23.0,-23.0,-34.0,-29.0,-44.0,-18.0,0.0
-20.0,14.0,21.0,-1.0,-20.0,-22.0,-27.0,-24.0,-32.0,-11.0,0.0
-46.0,-2.0,6.0,-5.0,-5.0,-20.0,-8.0,-9.0,8.0,11.0,0.0
-46.0,-2.0,15.0,-4.0,0.0,-8.0,9.0,-5.0,39.0,24.0,0.0
-12.0,17.0,1.0,5.0,-2.0,1.0,9.0,1.0,53.0,74.0,0.0
23.0,23.0,9.0,-1.0,-7.0,4.0,2.0,-2.0,42.0,93.0,0.0
43.0,27.0,0.0,0.0,-9.0,9.0,-1.0,5.0,46.0,92.0,0.0
33.0,27.0,-12.0,0.0,-5.0,7.0,1.0,2.0,56.0,29.0,0.0
17.0,17.0,0.0,5.0,-9.0,4.0,12.0,11.0,60.0,-11.0,0.0
6.0,19.0,4.0,2.0,-18.0,16.0,17.0,31.0,90.0,37.0,0.0
6.0,15.0,-12.0,4.0,-12.0,26.0,1.0,25.0,68.0,70.0,0.0
-4.0,5.0,7.0,1.0,-3.0,40.0,-8.0,7.0,6.0,77.0,0.0
3.0,-4.0,5.0,-1.0,-6.0,44.0,-10.0,-2.0,2.0,83.0,0.0
-3.0,-5.0,-8.0,2.0,0.0,67.0,-17.0,-3.0,5.0,53.0,0.0
-18.0,-3.0,3.0,1.0,15.0,88.0,-17.0,-9.0,-18.0,-45.0,0.0
-25.0,0.0,-3.0,0.0,18.0,102.0,-21.0,-15.0,-37.0,-124.0,0.0
-34.0,2.0,-7.0,8.0,25.0,125.0,-28.0,-7.0,-40.0,-132.0,0.0
-33.0,8.0,6.0,17.0,19.0,129.0,-24.0,-9.0,-53.0,-121.0,0.0
-36.0,10.0,-5.0,27.0,9.0,139.0,-8.0,0.0,-35.0,-114.0,0.0
-48.0,6.0,-16.0,17.0,8.0,166.0,11.0,11.0,-8.0,-85.0,0.0
-41.0,7.0,-26.0,7.0,12.0,181.0,9.0,4.0,-14.0,-52.0,0.0
-27.0,19.0,-31.0,2.0,0.0,193.0,20.0,8.0,-3.0,-30.0,0.0
-4.0,10.0,-26.0,-6.0,-6.0,195.0,17.0,28.0,33.0,0.0,0.0
14.0,11.0,3.0,-2.0,-15.0,196.0,3.0,25.0,15.0,24.0,0.0
19.0,17.0,6.0,-4.0,-11.0,195.0,-2.0,13.0,4.0,32.0,0.0
28.0,21.0,-12.0,-3.0,-9.0,198.0,12.0,-1.0,-3.0,32.0,0.0
27.0,21.0,-21.0,0.0,-6.0,198.0,2.0,-6.0,-27.0,18.0,0.0
5.0,16.0,-28.0,-10.0,-9.0,193.0,-10.0,-7.0,-51.0,-20.0,0.0
-16.0,-1.0,-28.0,-7.0,0.0,196.0,3.0,-4.0,-45.0,-33.0,0.0
-17.0,1.0,-19.0,10.0,-7.0,190.0,14.0,15.0,-19.0,-27.0,0.0
-16.0,6.0,-18.0,17.0,-7.0,193.0,-2.0,12.0,-24.0,-30.0,0.0
-34.0,0.0,-19.0,16.0,-11.0,184.0,-10.0,-11.0,-57.0,-41.0,0.0
-35.0,-15.0,-19.0,6.0,-12.0,175.0,-16.0,-21.0,-64.0,-41.0,0.0
-16.0,-11.0,-23.0,1.0,-7.0,159.0,-23.0,-9.0,-24.0,-11.0,0.0
11.0,2.0,-15.0,-8.0,-16.0,143.0,-16.0,10.0,45.0,48.0,0.0
22.0,4.0,-8.0,0.0,-18.0,132.0,-9.0,16.0,36.0,72.0,0.0
20.0,3.0,-15.0,8.0,-7.0,138.0,-14.0,-2.0,-12.0,59.0,0.0
20.0,-19.0,-16.0,7.0,-9.0,144.0,-11.0,-5.0,-37.0,40.0,0.0
17.0,-23.0,-16.0,2.0,-12.0,137.0,10.0,11.0,-4.0,50.0,0.0
17.0,-12.0,-17.0,3.0,-10.0,138.0,12.0,34.0,68.0,86.0,0.0
9.0,-17.0,-13.0,7.0,-7.0,135.0,10.0,46.0,134.0,89.0,0.0
13.0,-4.0,-8.0,14.0,-10.0,119.0,3.0,21.0,123.0,77.0,0.0
19.0,-2.0,-9.0,11.0,-8.0,106.0,8.0,-8.0,56.0,47.0,0.0
7.0,-8.0,-8.0,-5.0,0.0,90.0,4.0,-26.0,24.0,34.0,0.0
-3.0,-8.0,-11.0,-15.0,4.0,92.0,17.0,-23.0,26.0,29.0,0.0
-2.0,-11.0,-12.0,-10.0,3.0,86.0,19.0,0.0,34.0,53.0,0.0
-5.0,-17.0,-9.0,-7.0,-1.0,78.0,15.0,-7.0,15.0,52.0,0.0
-12.0,-18.0,-5.0,0.0,1.0,72.0,7.0,-33.0,-22.0,14.0,0.0
-13.0,-9.0,0.0,8.0,-5.0,68.0,0.0,-32.0,-38.0,-1.0,0.0
-23.0,-17.0,0.0,20.0,-5.0,70.0,11.0,-29.0,-43.0,-11.0,0.0
-40.0,-19.0,-1.0,24.0,3.0,73.0,19.0,-17.0,-38.0,-16.0,0.0
-36.0,-24.0,-1.0,12.0,9.0,60.0,16.0,-15.0,-34.0,-30.0,0.0
-38.0,-14.0,4.0,18.0,6.0,46.0,7.0,-35.0,-68.0,-58.0,0.0
-36.0,-5.0,23.0,26.0,3.0,42.0,-2.0,-46.0,-93.0,-67.0,0.0
-24.0,5.0,9.0,24.0,7.0,53.0,14.0,-45.0,-76.0,-29.0,0.0
4.0,13.0,4.0,7.0,5.0,45.0,15.0,-49.0,-68.0,17.0,0.0
20.0,10.0,-10.0,-1.0,-6.0,13.0,5.0,-33.0,-5.0,79.0,0.0
31.0,1.0,-21.0,-7.0,-13.0,4.0,0.0,-15.0,74.0,118.0,0.0
22.0,-13.0,-17.0,-2.0,-20.0,5.0,0.0,-25.0,60.0,101.0,0.0
17.0,-16.0,-22.0,-2.0,-16.0,0.0,12.0,-15.0,54.0,90.0,0.0
8.0,-26.0,-20.0,-1.0,-11.0,4.0,22.0,30.0,77.0,83.0,0.0
-4.0,-18.0,-26.0,5.0,-8.0,-2.0,26.0,27.0,67.0,51.0,0.0
4.0,-15.0,-10.0,11.0,-13.0,-11.0,11.0,-7.0,21.0,15.0,0.0
39.0,2.0,-5.0,5.0,-17.0,-26.0,0.0,-16.0,7.0,2.0,0.0
59.0,16.0,-8.0,0.0,-23.0,-35.0,-6.0,8.0,43.0,17.0,0.0
55.0,16.0,-3.0,3.0,-20.0,-40.0,0.0,25.0,77.0,30.0,0.0
23.0,11.0,-2.0,11.0,-9.0,-28.0,25.0,46.0,116.0,15.0,0.0
-12.0,-14.0,0.0,22.0,3.0,-18.0,34.0,54.0,106.0,-19.0,0.0
-58.0,-42.0,-6.0,24.0,5.0,-5.0,37.0,34.0,59.0,-42.0,0.0
-70.0,-41.0,-9.0,19.0,15.0,0.0,33.0,8.0,-6.0,-46.0,0.0
-31.0,-22.0,0.0,22.0,14.0,0.0,28.0,-2.0,-54.0,-48.0,0.0
1.0,-9.0,11.0,21.0,5.0,-11.0,15.0,-14.0,-74.0,-67.0,0.0
4.0,9.0,16.0,12.0,12.0,-29.0,0.0,-18.0,-81.0,-88.0,0.0
-12.0,0.0,1.0,9.0,12.0,-28.0,6.0,-1.0,-73.0,-96.0,0.0
-28.0,-22.0,-6.0,-1.0,3.0,-21.0,21.0,27.0,-28.0,-49.0,0.0
-31.0,-29.0,-5.0,-1.0,3.0,-12.0,28.0,45.0,19.0,-19.0,0.0
-13.0,-12.0,0.0,-2.0,5.0,-16.0,17.0,39.0,2.0,-27.0,0.0
2.0,-10.0,1.0,0.0,6.0,-31.0,13.0,31.0,-10.0,-1.0,0.0
10.0,-10.0,-2.0,-7.0,2.0,-38.0,7.0,13.0,-25.0,19.0,0.0
16.0,3.0,-4.0,-16.0,-4.0,-39.0,-16.0,-3.0,-75.0,1.0,0.0
25.0,15.0,-1.0,-26.0,-4.0,-53.0,-22.0,-9.0,-87.0,-4.0,0.0
14.0,10.0,0.0,-17.0,-6.0,-56.0,-10.0,5.0,-62.0,15.0,0.0
9.0,17.0,5.0,0.0,-8.0,-51.0,7.0,29.0,-52.0,11.0,0.0
-1.0,18.0,10.0,27.0,0.0,-34.0,7.0,44.0,-45.0,-37.0,0.0
-17.0,15.0,4.0,33.0,13.0,-16.0,8.0,31.0,-50.0,-63.0,0.0
-16.0,5.0,1.0,21.0,13.0,-21.0,10.0,21.0,-50.0,-52.0,0.0
-9.0,-16.0,-1.0,16.0,14.0,-15.0,24.0,27.0,-21.0,-32.0,0.0
-20.0,-20.0,-3.0,18.0,19.0,-12.0,25.0,34.0,-5.0,-17.0,0.0
-23.0,-4.0,-2.0,22.0,8.0,-11.0,4.0,32.0,0.0,10.0,0.0
-12.0,2.0,1.0,11.0,2.0,-24.0,-12.0,14.0,19.0,23.0,0.0
-12.0,3.0,4.0,-4.0,0.0,-44.0,-13.0,7.0,20.0,27.0,0.0
-12.0,12.0,9.0,0.0,6.0,-44.0,-3.0,7.0,5.0,25.0,0.0
-4.0,14.0,28.0,14.0,5.0,-50.0,4.0,0.0,19.0,28.0,0.0
4.0,33.0,28.0,6.0,-2.0,-58.0,5.0,-12.0,22.0,46.0,0.0
4.0,37.0,12.0,1.0,0.0,-55.0,5.0,-19.0,23.0,88.0,0.0
5.0,22.0,8.0,-6.0,-13.0,-59.0,2.0,-4.0,36.0,123.0,0.0
5.0,16.0,3.0,0.0,-14.0,-66.0,-3.0,7.0,7.0,109.0,0.0
14.0,26.0,16.0,4.0,-8.0,-57.0,-5.0,-7.0,-46.0,38.0,0.0
17.0,32.0,24.0,1.0,0.0,-44.0,4.0,-15.0,-46.0,19.0,0.0
11.0,22.0,13.0,3.0,5.0,-29.0,8.0,-23.0,-53.0,2.0,0.0
0.0,14.0,15.0,8.0,-3.0,-24.0,7.0,-33.0,-79.0,-68.0,0.0
-6.0,10.0,27.0,9.0,-4.0,-26.0,4.0,-34.0,-83.0,-128.0,0.0
-12.0,8.0,10.0,9.0,5.0,-23.0,7.0,-15.0,-61.0,-100.0,0.0
-26.0,4.0,-8.0,1.0,10.0,-28.0,15.0,-4.0,-39.0,-86.0,0.0
-20.0,10.0,-8.0,0.0,9.0,-31.0,11.0,-7.0,-8.0,-41.0,0.0
4.0,20.0,-1.0,-2.0,-6.0,-34.0,2.0,6.0,63.0,86.0,0.0
8.0,14.0,-2.0,3.0,-15.0,-31.0,4.0,24.0,127.0,175.0,0.0
14.0,16.0,-4.0,3.0,-19.0,-40.0,4.0,21.0,117.0,211.0,0.0
23.0,10.0,16.0,0.0,-15.0,-49.0,0.0,-1.0,31.0,116.0,0.0
0.0,9.0,9.0,-2.0,1.0,-43.0,8.0,-6.0,-54.0,-89.0,0.0
-19.0,11.0,-1.0,6.0,10.0,-41.0,19.0,-5.0,-75.0,-173.0,0.0
-19.0,11.0,-7.0,21.0,10.0,-28.0,20.0,-11.0,-70.0,-163.0,0.0
-8.0,20.0,-8.0,16.0,6.0,-26.0,24.0,-19.0,-84.0,-144.0,0.0
-1.0,17.0,-7.0,15.0,1.0,-23.0,30.0,-20.0,-70.0,-118.0,0.0
9.0,15.0,-12.0,20.0,-2.0,-13.0,20.0,-1.0,-53.0,-104.0,0.0
1.0,12.0,-12.0,8.0,-7.0,-14.0,10.0,2.0,-45.0,-103.0,0.0
8.0,6.0,-16.0,-6.0,-15.0,-15.0,8.0,4.0,-36.0,-96.0,0.0
10.0,1.0,-12.0,-1.0,-8.0,-20.0,15.0,0.0,-35.0,-88.0,0.0
4.0,4.0,2.0,8.0,0.0,-28.0,16.0,-8.0,-35.0,-83.0,0.0
23.0,8.0,1.0,16.0,-9.0,-35.0,8.0,-12.0,-33.0,-64.0,0.0
40.0,8.0,-2.0,-9.0,-2.0,-40.0,5.0,-15.0,-24.0,-37.0,0.0
50.0,10.0,15.0,-13.0,1.0,-34.0,-5.0,-7.0,-14.0,-14.0,0.0
28.0,6.0,26.0,-9.0,-6.0,-28.0,-10.0,-11.0,-14.0,-19.0,0.0
8.0,-5.0,5.0,-4.0,1.0,-15.0,-7.0,3.0,-2.0,-29.0,0.0
-9.0,-4.0,-3.0,0.0,13.0,-22.0,-8.0,4.0,14.0,-11.0,0.0
-17.0,-4.0,-11.0,10.0,0.0,-32.0,-19.0,0.0,4.0,4.0,0.0
-18.0,0.0,-8.0,1.0,-4.0,-24.0,-14.0,12.0,27.0,55.0,0.0
8.0,4.0,-10.0,7.0,-9.0,-15.0,-4.0,12.0,25.0,92.0,0.0
11.0,9.0,-3.0,4.0,-21.0,-20.0,-8.0,9.0,7.0,81.0,0.0
7.0,5.0,-5.0,-5.0,-7.0,-17.0,-4.0,18.0,16.0,27.0,0.0
-2.0,10.0,-5.0,-8.0,11.0,-15.0,-6.0,19.0,6.0,-50.0,0.0
-15.0,8.0,-9.0,1.0,13.0,-16.0,-2.0,8.0,12.0,-85.0,0.0
-11.0,8.0,-6.0,0.0,3.0,-17.0,-1.0,-3.0,2.0,-64.0,0.0
-16.0,0.0,-4.0,-1.0,1.0,-31.0,-13.0,-19.0,-9.0,-71.0,0.0
-18.0,-5.0,-6.0,-5.0,4.0,-31.0,-20.0,-22.0,0.0,-74.0,0.0
-7.0,-10.0,-6.0,-7.0,3.0,-30.0,-15.0,-12.0,12.0,-39.0,0.0
-2.0,-10.0,-8.0,0.0,2.0,-30.0,-14.0,-6.0,17.0,-29.0,0.0
-8.0,-6.0,-8.0,-2.0,4.0,-30.0,-12.0,-8.0,8.0,-31.0,0.0
-12.0,2.0,-5.0,-9.0,0.0,-35.0,-9.0,0.0,14.0,-40.0,0.0
-2.0,9.0,15.0,-27.0,3.0,-31.0,4.0,8.0,13.0,-59.0,0.0
2.0,7.0,36.0,-19.0,9.0,-28.0,6.0,10.0,10.0,-69.0,0.0
-2.0,11.0,19.0,-8.0,0.0,-34.0,0.0,8.0,2.0,-77.0,0.0
10.0,8.0,0.0,-3.0,-7.0,-42.0,-4.0,8.0,2.0,-73.0,0.0
7.0,8.0,7.0,1.0,-5.0,-36.0,-13.0,0.0,-5.0,-51.0,0.0
12.0,14.0,30.0,1.0,0.0,-34.0,-26.0,2.0,-9.0,-23.0,0.0
6.0,1.0,22.0,9.0,2.0,-39.0,-24.0,7.0,-17.0,-25.0,0.0
-15.0,-1.0,28.0,-3.0,9.0,-36.0,-22.0,14.0,-12.0,-35.0,0.0
-15.0,-2.0,17.0,-14.0,3.0,-38.0,-24.0,11.0,-9.0,-34.0,0.0
-6.0,-23.0,-1.0,-21.0,1.0,-51.0,-8.0,6.0,-22.0,-32.0,0.0
-4.0,-36.0,-10.0,-19.0,-5.0,-64.0,2.0,19.0,-14.0,-28.0,0.0
-7.0,-30.0,-8.0,-19.0,-8.0,-58.0,-1.0,7.0,-1.0,-31.0,0.0
4.0,-5.0,2.0,-11.0,-8.0,-63.0,-15.0,-14.0,-16.0,7.0,0.0
48.0,13.0,23.0,-6.0,-13.0,-72.0,-19.0,-23.0,20.0,151.0,0.0
82.0,31.0,10.0,0.0,-15.0,-67.0,-30.0,-30.0,65.0,246.0,0.0
100.0,38.0,-1.0,-10.0,-18.0,-62.0,-36.0,-22.0,90.0,317.0,0.0
91.0,28.0,-15.0,-21.0,-24.0,-72.0,-36.0,-12.0,92.0,352.0,0.0
27.0,-2.0,-30.0,-34.0,-37.0,-80.0,-34.0,-9.0,73.0,178.0,0.0
-24.0,-16.0,-27.0,-25.0,-23.0,-60.0,-14.0,-15.0,1.0,-96.0,0.0
-57.0,-16.0,-13.0,-1.0,0.0,-31.0,0.0,-22.0,-60.0,-206.0,0.0
-60.0,-28.0,-4.0,5.0,6.0,-20.0,-1.0,10.0,-37.0,-197.0,0.0
-55.0,-32.0,0.0,14.0,11.0,0.0,10.0,56.0,0.0,-198.0,0.0
-53.0,-23.0,-1.0,17.0,18.0,7.0,18.0,43.0,1.0,-183.0,0.0
-43.0,-25.0,-9.0,12.0,2.0,-7.0,9.0,20.0,-20.0,-137.0,0.0
-33.0,-26.0,-10.0,3.0,-4.0,-15.0,-4.0,10.0,-37.0,-88.0,0.0
-16.0,-21.0,-10.0,-17.0,-4.0,-18.0,-11.0,-1.0,-37.0,-39.0,0.0
-6.0,-5.0,-9.0,-37.0,-7.0,-16.0,-3.0,-12.0,-31.0,-20.0,0.0
3.0,6.0,-11.0,-36.0,-7.0,-24.0,-7.0,-8.0,-8.0,19.0,0.0
14.0,5.0,-5.0,-19.0,-9.0,-29.0,-8.0,0.0,14.0,77.0,0.0
19.0,-4.0,-11.0,-6.0,-5.0,-34.0,3.0,10.0,18.0,88.0,0.0
10.0,-6.0,-12.0,5.0,4.0,-20.0,11.0,5.0,4.0,60.0,0.0
9.0,2.0,-1.0,-6.0,10.0,-9.0,5.0,7.0,-1.0,2.0,0.0
0.0,-4.0,1.0,-24.0,0.0,-7.0,0.0,9.0,-13.0,-51.0,0.0
-21.0,-22.0,-7.0,-29.0,-8.0,-15.0,6.0,9.0,-27.0,-76.0,0.0
-32.0,-25.0,-9.0,-26.0,-13.0,-12.0,15.0,6.0,-31.0,-89.0,0.0
-9.0,-25.0,-9.0,-36.0,-15.0,-9.0,10.0,11.0,-15.0,-45.0,0.0
12.0,-18.0,-7.0,-29.0,-18.0,-12.0,0.0,16.0,1.0,4.0,0.0
12.0,-20.0,-7.0,-28.0,-20.0,-14.0,-4.0,19.0,20.0,41.0,0.0
15.0,-24.0,-5.0,-46.0,-7.0,-10.0,-9.0,25.0,42.0,48.0,0.0
18.0,-33.0,1.0,-45.0,4.0,-8.0,12.0,37.0,62.0,70.0,0.0
12.0,-20.0,4.0,-6.0,2.0,-6.0,12.0,25.0,40.0,67.0,0.0
-19.0,-23.0,0.0,14.0,-4.0,-14.0,0.0,14.0,-8.0,-3.0,0.0
-31.0,-29.0,-12.0,11.0,-4.0,-23.0,-12.0,10.0,5.0,-78.0,0.0
-20.0,-14.0,-7.0,9.0,-2.0,-15.0,-20.0,10.0,55.0,-86.0,0.0
-15.0,-7.0,-1.0,4.0,1.0,-15.0,-19.0,-8.0,35.0,-84.0,0.0
-11.0,5.0,5.0,-6.0,0.0,-6.0,-33.0,-23.0,-30.0,-92.0,0.0
8.0,-4.0,1.0,-26.0,0.0,-7.0,-35.0,-26.0,-44.0,-64.0,0.0
31.0,-4.0,-3.0,-21.0,-6.0,-20.0,-42.0,-30.0,-49.0,-15.0,0.0
39.0,1.0,0.0,0.0,-11.0,-35.0,-46.0,-47.0,-49.0,19.0,0.0
37.0,0.0,-8.0,-6.0,-25.0,-37.0,-39.0,-36.0,-13.0,75.0,0.0
38.0,-2.0,-8.0,-20.0,-21.0,-43.0,-34.0,-10.0,47.0,107.0,0.0
21.0,-11.0,0.0,-14.0,-11.0,-46.0,-21.0,14.0,93.0,96.0,0.0
-19.0,-15.0,-1.0,-6.0,3.0,-28.0,4.0,30.0,92.0,54.0,0.0
-33.0,-19.0,-4.0,-20.0,8.0,-7.0,10.0,15.0,26.0,-26.0,0.0
-19.0,-28.0,-4.0,-13.0,7.0,6.0,11.0,-10.0,-24.0,-50.0,0.0
-16.0,-29.0,-1.0,1.0,0.0,10.0,13.0,-8.0,-5.0,22.0,0.0
7.0,-13.0,-4.0,1.0,-9.0,2.0,-5.0,-2.0,63.0,129.0,0.0
45.0,5.0,0.0,-5.0,-15.0,-11.0,-7.0,21.0,113.0,175.0,0.0
53.0,11.0,5.0,-8.0,-22.0,-31.0,-12.0,40.0,107.0,173.0,0.0
42.0,19.0,11.0,-8.0,-31.0,-34.0,-13.0,22.0,60.0,91.0,0.0
15.0,5.0,4.0,-10.0,-32.0,-16.0,-15.0,-13.0,21.0,-6.0,0.0
-40.0,-11.0,-5.0,-16.0,-25.0,9.0,-3.0,-4.0,7.0,-63.0,0.0
-92.0,-31.0,-5.0,-20.0,-5.0,17.0,17.0,9.0,-1.0,-117.0,0.0
-107.0,-43.0,-2.0,-1.0,11.0,26.0,24.0,10.0,-22.0,-123.0,0.0
-79.0,-44.0,1.0,14.0,12.0,26.0,28.0,5.0,-20.0,-74.0,0.0
-37.0,-27.0,0.0,6.0,2.0,17.0,16.0,7.0,-8.0,-23.0,0.0
-12.0,-14.0,1.0,6.0,4.0,17.0,23.0,0.0,-12.0,-16.0,0.0
-17.0,-9.0,-2.0,15.0,-1.0,9.0,24.0,2.0,-14.0,-20.0,0.0
-20.0,-7.0,0.0,15.0,-6.0,11.0,28.0,11.0,7.0,-11.0,0.0
-28.0,-5.0,0.0,1.0,0.0,8.0,36.0,15.0,33.0,-11.0,0.0
-38.0,-10.0,-5.0,-2.0,-5.0,4.0,35.0,17.0,57.0,4.0,0.0
-20.0,-12.0,-10.0,-6.0,-6.0,-9.0,25.0,7.0,61.0,29.0,0.0
-5.0,-20.0,-12.0,-19.0,-9.0,-20.0,20.0,9.0,46.0,63.0,0.0
2.0,-13.0,-7.0,-15.0,-9.0,-33.0,12.0,-2.0,5.0,62.0,0.0
5.0,-9.0,1.0,-15.0,-11.0,-41.0,15.0,-6.0,-24.0,24.0,0.0
3.0,-2.0,4.0,-4.0,-6.0,-39.0,3.0,-2.0,-37.0,8.0,0.0
-2.0,0.0,14.0,-12.0,-9.0,-28.0,-3.0,-14.0,-56.0,11.0,0.0
-3.0,-12.0,5.0,-15.0,-12.0,-28.0,-7.0,-20.0,-46.0,38.0,0.0
8.0,-10.0,0.0,-13.0,-9.0,-37.0,-13.0,-30.0,-31.0,52.0,0.0
36.0,-3.0,-6.0,-24.0,-20.0,-43.0,-17.0,-21.0,6.0,95.0,0.0
49.0,6.0,-4.0,-25.0,-25.0,-42.0,-25.0,-32.0,43.0,137.0,0.0
36.0,16.0,1.0,-29.0,-26.0,-42.0,-34.0,-50.0,30.0,116.0,0.0
15.0,6.0,0.0,-17.0,-28.0,-34.0,-22.0,-38.0,-3.0,77.0,0.0
0.0,3.0,0.0,-5.0,-17.0,-35.0,-14.0,-20.0,-6.0,32.0,0.0
-17.0,2.0,3.0,1.0,-17.0,-38.0,-1.0,-16.0,-4.0,-5.0,0.0
-32.0,-2.0,1.0,14.0,2.0,-35.0,5.0,-2.0,-23.0,-26.0,0.0
-47.0,-10.0,2.0,21.0,9.0,-32.0,8.0,-2.0,-45.0,-37.0,0.0
-31.0,-18.0,0.0,4.0,3.0,-39.0,14.0,1.0,-42.0,1.0,0.0
-12.0,-22.0,3.0,0.0,-5.0,-38.0,16.0,-4.0,-29.0,28.0,0.0
-8.0,-32.0,0.0,-1.0,0.0,-26.0,12.0,-2.0,-20.0,32.0,0.0
12.0,-24.0,3.0,4.0,0.0,-20.0,1.0,-8.0,-19.0,35.0,0.0
21.0,-21.0,3.0,12.0,-3.0,-22.0,-2.0,-12.0,-30.0,23.0,0.0
3.0,-15.0,-3.0,24.0,0.0,-12.0,2.0,2.0,-35.0,15.0,0.0
-5.0,-4.0,0.0,19.0,0.0,-2.0,0.0,0.0,-32.0,-5.0,0.0
-11.0,4.0,0.0,16.0,5.0,0.0,3.0,-9.0,-33.0,-22.0,0.0
-10.0,12.0,2.0,18.0,15.0,-1.0,13.0,-5.0,-39.0,-32.0,0.0
-4.0,17.0,2.0,15.0,13.0,-3.0,18.0,-6.0,-49.0,-26.0,0.0
0.0,23.0,2.0,13.0,2.0,-4.0,9.0,-20.0,-63.0,-37.0,0.0
3.0,20.0,16.0,3.0,0.0,-10.0,-4.0,-27.0,-65.0,-58.0,0.0
3.0,4.0,25.0,-3.0,0.0,-4.0,6.0,-11.0,-70.0,-72.0,0.0
9.0,6.0,19.0,-13.0,-3.0,0.0,18.0,1.0,-68.0,-47.0,0.0
8.0,9.0,12.0,-13.0,-3.0,-8.0,11.0,-10.0,-45.0,-28.0,0.0
6.0,2.0,1.0,-18.0,-6.0,-11.0,11.0,-5.0,-20.0,-13.0,0.0
9.0,-10.0,-9.0,-14.0,-1.0,-6.0,11.0,-3.0,19.0,27.0,0.0
3.0,-5.0,-9.0,-16.0,4.0,-8.0,1.0,1.0,63.0,55.0,0.0
7.0,5.0,-3.0,-13.0,-10.0,-29.0,-19.0,10.0,89.0,62.0,0.0
23.0,1.0,0.0,-9.0,-18.0,-35.0,-18.0,11.0,61.0,45.0,0.0
32.0,-6.0,18.0,-3.0,-15.0,-24.0,-10.0,14.0,42.0,24.0,0.0
41.0,-4.0,31.0,3.0,-8.0,-15.0,3.0,10.0,30.0,0.0,0.0
49.0,11.0,13.0,7.0,-8.0,-10.0,-13.0,0.0,10.0,-5.0,0.0
40.0,18.0,4.0,1.0,-10.0,4.0,-26.0,-10.0,-3.0,-9.0,0.0
30.0,20.0,10.0,0.0,-5.0,-6.0,-10.0,-16.0,-6.0,-14.0,0.0
25.0,14.0,27.0,10.0,1.0,-2.0,7.0,-5.0,23.0,12.0,0.0
12.0,1.0,23.0,4.0,9.0,0.0,13.0,-11.0,21.0,5.0,0.0
7.0,-4.0,35.0,-4.0,10.0,6.0,7.0,-10.0,21.0,0.0,0.0
27.0,6.0,26.0,-8.0,19.0,0.0,6.0,0.0,18.0,19.0,0.0
32.0,12.0,3.0,-2.0,20.0,-17.0,1.0,-13.0,5.0,39.0,0.0
27.0,15.0,10.0,0.0,12.0,-18.0,-16.0,-16.0,-11.0,35.0,0.0
17.0,8.0,19.0,8.0,8.0,-4.0,-21.0,-6.0,-4.0,38.0,0.0
14.0,3.0,23.0,-3.0,1.0,9.0,-20.0,0.0,9.0,51.0,0.0
16.0,7.0,39.0,-8.0,-3.0,13.0,-25.0,-3.0,22.0,62.0,0.0
17.0,10.0,18.0,-7.0,0.0,14.0,-21.0,0.0,27.0,82.0,0.0
8.0,4.0,20.0,-3.0,1.0,0.0,-12.0,0.0,38.0,79.0,0.0
4.0,-4.0,7.0,1.0,-1.0,2.0,-15.0,-7.0,30.0,74.0,0.0
7.0,-9.0,-6.0,-1.0,0.0,3.0,-16.0,-4.0,30.0,90.0,0.0
16.0,1.0,10.0,-9.0,0.0,1.0,-10.0,5.0,48.0,100.0,0.0
23.0,5.0,13.0,-8.0,6.0,-8.0,-18.0,4.0,52.0,81.0,0.0
12.0,-2.0,1.0,-4.0,5.0,-3.0,-29.0,-1.0,24.0,51.0,0.0
-6.0,-24.0,17.0,-1.0,10.0,5.0,-25.0,14.0,38.0,81.0,0.0
1.0,-25.0,6.0,11.0,18.0,10.0,-26.0,10.0,49.0,138.0,0.0
17.0,-11.0,-8.0,22.0,12.0,6.0,-34.0,-3.0,49.0,189.0,0.0
20.0,-2.0,-2.0,22.0,14.0,-13.0,-40.0,-7.0,49.0,223.0,0.0
30.0,-2.0,14.0,17.0,10.0,-24.0,-48.0,-19.0,31.0,172.0,0.0
15.0,-5.0,-2.0,12.0,-2.0,-13.0,-54.0,-31.0,-21.0,4.0,0.0
7.0,-14.0,-3.0,18.0,-1.0,-10.0,-52.0,-25.0,-40.0,-95.0,0.0
-9.0,-13.0,12.0,31.0,9.0,-5.0,-38.0,-17.0,-48.0,-119.0,0.0
-17.0,0.0,7.0,26.0,5.0,4.0,-34.0,-21.0,-70.0,-113.0,0.0
-13.0,5.0,20.0,14.0,2.0,2.0,-33.0,-23.0,-69.0,-94.0,0.0
-10.0,3.0,15.0,3.0,9.0,10.0,-30.0,-12.0,-66.0,-68.0,0.0
2.0,8.0,19.0,-3.0,9.0,5.0,-40.0,-26.0,-96.0,-79.0,0.0
18.0,16.0,20.0,0.0,8.0,-3.0,-57.0,-44.0,-112.0,-78.0,0.0
31.0,14.0,27.0,-2.0,5.0,-9.0,-61.0,-56.0,-98.0,-29.0,0.0
28.0,15.0,35.0,-10.0,6.0,-6.0,-49.0,-53.0,-90.0,0.0,0.0
5.0,-7.0,15.0,-19.0,-3.0,-10.0,-28.0,-18.0,-37.0,39.0,0.0
-14.0,-24.0,-19.0,-26.0,-19.0,-10.0,1.0,55.0,81.0,107.0,0.0
-6.0,-1.0,-12.0,-19.0,-9.0,0.0,-2.0,57.0,89.0,79.0,0.0
0.0,4.0,3.0,-14.0,-7.0,-2.0,-20.0,27.0,42.0,50.0,0.0
3.0,-2.0,-13.0,18.0,-16.0,-5.0,-21.0,12.0,47.0,72.0,0.0
-21.0,-9.0,-16.0,31.0,-7.0,-5.0,-8.0,13.0,54.0,79.0,0.0
-15.0,-15.0,4.0,26.0,0.0,-12.0,0.0,12.0,45.0,72.0,0.0
10.0,-3.0,0.0,23.0,-4.0,-16.0,-6.0,13.0,31.0,78.0,0.0
25.0,-5.0,-17.0,18.0,-6.0,-24.0,-12.0,-1.0,11.0,67.0,0.0
23.0,-4.0,-20.0,17.0,-1.0,-23.0,-26.0,-5.0,0.0,56.0,0.0
29.0,-5.0,0.0,13.0,-6.0,-16.0,-26.0,-1.0,19.0,65.0,0.0
40.0,-5.0,-1.0,10.0,-12.0,-18.0,-29.0,10.0,41.0,121.0,0.0
39.0,-8.0,-7.0,8.0,-19.0,-13.0,-28.0,24.0,57.0,163.0,0.0
22.0,-16.0,-21.0,17.0,-7.0,-10.0,-35.0,3.0,14.0,137.0,0.0
8.0,-1.0,-25.0,13.0,1.0,-13.0,-43.0,-43.0,-56.0,67.0,0.0
-8.0,-1.0,-1.0,8.0,-3.0,-1.0,-37.0,-51.0,-93.0,0.0,0.0
-16.0,-9.0,6.0,10.0,-5.0,3.0,-17.0,-26.0,-71.0,-19.0,0.0
-24.0,-6.0,-13.0,19.0,1.0,-6.0,1.0,-1.0,-21.0,-15.0,0.0
-27.0,-9.0,-19.0,21.0,3.0,-2.0,10.0,19.0,2.0,-3.0,0.0
-2.0,10.0,-22.0,23.0,3.0,-8.0,6.0,24.0,6.0,70.0,0.0
30.0,35.0,-16.0,23.0,-12.0,-29.0,-7.0,10.0,26.0,196.0,0.0
61.0,50.0,4.0,14.0,-17.0,-36.0,-13.0,0.0,54.0,276.0,0.0
60.0,44.0,6.0,5.0,-16.0,-28.0,-20.0,-8.0,59.0,316.0,0.0
25.0,32.0,-5.0,15.0,-24.0,-34.0,-30.0,0.0,36.0,222.0,0.0
-14.0,18.0,-12.0,23.0,-30.0,-33.0,-32.0,0.0,-19.0,1.0,0.0
-32.0,17.0,-9.0,16.0,-11.0,-24.0,-18.0,2.0,-44.0,-99.0,0.0
-52.0,15.0,16.0,18.0,1.0,-7.0,10.0,40.0,-9.0,-70.0,0.0
-82.0,-1.0,6.0,25.0,7.0,0.0,27.0,55.0,-6.0,-83.0,0.0
-93.0,0.0,5.0,28.0,3.0,0.0,27.0,49.0,-18.0,-59.0,0.0
-71.0,-4.0,13.0,10.0,-1.0,-4.0,15.0,18.0,-17.0,-22.0,0.0
-53.0,-4.0,-3.0,-5.0,-8.0,-11.0,-3.0,0.0,-31.0,-42.0,0.0
-48.0,-15.0,-16.0,-7.0,-9.0,-13.0,1.0,-6.0,-25.0,-90.0,0.0
-55.0,-10.0,-15.0,1.0,-10.0,-7.0,9.0,4.0,-27.0,-150.0,0.0
-58.0,-9.0,12.0,9.0,-2.0,0.0,21.0,8.0,-28.0,-159.0,0.0
-54.0,-1.0,13.0,1.0,5.0,-5.0,35.0,22.0,-16.0,-140.0,0.0
-52.0,-4.0,3.0,0.0,5.0,0.0,31.0,19.0,-8.0,-116.0,0.0
-45.0,-8.0,18.0,-4.0,2.0,0.0,26.0,23.0,-6.0,-91.0,0.0
-27.0,1.0,11.0,-2.0,-5.0,-1.0,25.0,20.0,10.0,-66.0,0.0
-25.0,8.0,7.0,-5.0,-7.0,5.0,20.0,16.0,26.0,-43.0,0.0
-11.0,11.0,18.0,-7.0,-12.0,6.0,25.0,13.0,31.0,-21.0,0.0
0.0,11.0,12.0,-5.0,-11.0,3.0,34.0,25.0,50.0,-6.0,0.0
4.0,9.0,15.0,-13.0,-11.0,1.0,20.0,29.0,65.0,26.0,0.0
17.0,7.0,-2.0,-14.0,-14.0,1.0,15.0,15.0,50.0,51.0,0.0
24.0,4.0,7.0,-12.0,-13.0,-1.0,13.0,5.0,0.0,31.0,0.0
24.0,-3.0,15.0,-14.0,-9.0,9.0,15.0,4.0,-41.0,2.0,0.0
11.0,-5.0,0.0,-4.0,-2.0,1.0,21.0,-1.0,-45.0,-16.0,0.0
-15.0,-12.0,8.0,3.0,-1.0,0.0,23.0,-2.0,-52.0,-58.0,0.0
-32.0,-10.0,2.0,0.0,-1.0,5.0,25.0,1.0,-62.0,-81.0,0.0
-34.0,11.0,-16.0,-10.0,-4.0,7.0,22.0,-6.0,-69.0,-89.0,0.0
-33.0,4.0,1.0,-1.0,-13.0,-5.0,18.0,-13.0,-66.0,-97.0,0.0
-28.0,1.0,12.0,0.0,-7.0,-4.0,31.0,-15.0,-50.0,-72.0,0.0
-24.0,1.0,-5.0,-1.0,-4.0,1.0,23.0,3.0,-33.0,-34.0,0.0
-16.0,5.0,14.0,-10.0,-6.0,-9.0,17.0,4.0,-14.0,-15.0,0.0
-12.0,-7.0,18.0,-9.0,-10.0,-14.0,8.0,0.0,-8.0,-27.0,0.0
-5.0,-5.0,21.0,0.0,-12.0,-22.0,-3.0,0.0,-9.0,-26.0,0.0
-1.0,3.0,3.0,10.0,-22.0,-4.0,-4.0,0.0,2.0,-23.0,0.0
-3.0,2.0,5.0,-3.0,-26.0,8.0,-13.0,-8.0,-7.0,-10.0,0.0
-1.0,-6.0,3.0,-11.0,-19.0,9.0,-18.0,-9.0,-3.0,9.0,0.0
-3.0,-8.0,0.0,-14.0,-20.0,22.0,-5.0,10.0,11.0,3.0,0.0
-15.0,-7.0,17.0,-5.0,-2.0,35.0,8.0,13.0,8.0,6.0,0.0
-17.0,-1.0,-1.0,7.0,-3.0,40.0,2.0,5.0,-3.0,6.0,0.0
-20.0,1.0,5.0,0.0,2.0,55.0,7.0,1.0,-19.0,0.0,0.0
-19.0,2.0,-1.0,-4.0,-1.0,73.0,10.0,2.0,-20.0,3.0,0.0
-10.0,20.0,10.0,-4.0,-1.0,89.0,0.0,-4.0,-24.0,6.0,0.0
-9.0,33.0,8.0,-13.0,-2.0,96.0,-3.0,-12.0,-28.0,4.0,0.0
-7.0,24.0,0.0,-21.0,-3.0,94.0,-3.0,-7.0,-27.0,-16.0,0.0
-15.0,10.0,8.0,-2.0,2.0,108.0,10.0,11.0,-12.0,-11.0,0.0
-11.0,14.0,0.0,-4.0,9.0,113.0,11.0,13.0,-2.0,1.0,0.0
1.0,25.0,8.0,-11.0,18.0,131.0,0.0,-2.0,2.0,14.0,0.0
13.0,31.0,-4.0,-2.0,15.0,143.0,-7.0,-9.0,15.0,35.0,0.0
14.0,25.0,-5.0,0.0,1.0,146.0,-9.0,-8.0,20.0,66.0,0.0
17.0,14.0,0.0,-1.0,2.0,150.0,0.0,-11.0,43.0,79.0,0.0
13.0,14.0,-18.0,-3.0,3.0,146.0,-5.0,-14.0,43.0,80.0,0.0
7.0,19.0,-22.0,-7.0,4.0,148.0,-13.0,-24.0,-14.0,20.0,0.0
0.0,21.0,-2.0,-13.0,9.0,158.0,-12.0,-26.0,-37.0,-32.0,0.0
-5.0,20.0,0.0,-19.0,5.0,173.0,2.0,-1.0,-2.0,-34.0,0.0
-13.0,25.0,-17.0,-10.0,-1.0,194.0,20.0,12.0,-2.0,-50.0,0.0
-18.0,27.0,-12.0,-5.0,1.0,204.0,21.0,4.0,-12.0,-67.0,0.0
-21.0,16.0,12.0,-7.0,13.0,216.0,16.0,12.0,-4.0,-51.0,0.0
-32.0,-2.0,-3.0,-2.0,7.0,227.0,12.0,20.0,11.0,-49.0,0.0
-28.0,2.0,1.0,-1.0,5.0,246.0,8.0,11.0,1.0,-43.0,0.0
-28.0,9.0,12.0,-6.0,12.0,264.0,9.0,3.0,0.0,-29.0,0.0
-13.0,8.0,2.0,-13.0,14.0,273.0,8.0,2.0,14.0,-19.0,0.0
-6.0,2.0,12.0,-23.0,16.0,280.0,3.0,9.0,25.0,-18.0,0.0
-16.0,12.0,-5.0,-18.0,17.0,296.0,6.0,20.0,24.0,-5.0,0.0
5.0,11.0,-3.0,-17.0,20.0,297.0,7.0,12.0,27.0,19.0,0.0
32.0,4.0,8.0,-11.0,17.0,292.0,14.0,15.0,30.0,52.0,0.0
34.0,5.0,5.0,-7.0,7.0,281.0,-3.0,7.0,16.0,68.0,0.0
28.0,11.0,15.0,-4.0,0.0,251.0,-10.0,-2.0,11.0,67.0,0.0
36.0,3.0,3.0,0.0,3.0,241.0,7.0,5.0,10.0,63.0,0.0
29.0,-7.0,12.0,6.0,3.0,232.0,14.0,17.0,12.0,39.0,0.0
12.0,-6.0,-1.0,5.0,10.0,233.0,13.0,14.0,0.0,3.0,0.0
-11.0,-11.0,2.0,0.0,9.0,227.0,19.0,3.0,-17.0,-37.0,0.0
-3.0,-14.0,-7.0,3.0,8.0,213.0,12.0,0.0,-28.0,-56.0,0.0
-7.0,-19.0,-10.0,-2.0,0.0,193.0,6.0,18.0,9.0,-32.0,0.0
-9.0,-22.0,0.0,-3.0,1.0,182.0,6.0,52.0,78.0,3.0,0.0
-4.0,-7.0,-2.0,2.0,0.0,185.0,16.0,53.0,61.0,18.0,0.0
0.0,2.0,-3.0,13.0,1.0,182.0,16.0,43.0,39.0,20.0,0.0
-1.0,-5.0,7.0,13.0,5.0,182.0,13.0,38.0,34.0,14.0,0.0
3.0,-5.0,-15.0,17.0,1.0,158.0,8.0,34.0,32.0,12.0,0.0
-10.0,-10.0,-26.0,16.0,0.0,148.0,-9.0,14.0,2.0,-19.0,0.0
-25.0,0.0,-29.0,22.0,2.0,131.0,-14.0,-7.0,-17.0,-45.0,0.0
-8.0,-7.0,-33.0,12.0,-1.0,116.0,0.0,24.0,17.0,2.0,0.0
11.0,-13.0,-26.0,5.0,-6.0,118.0,10.0,46.0,37.0,26.0,0.0
21.0,-14.0,-11.0,6.0,-8.0,114.0,3.0,27.0,19.0,2.0,0.0
20.0,-6.0,3.0,0.0,-11.0,88.0,-16.0,18.0,22.0,1.0,0.0
23.0,2.0,-3.0,0.0,-7.0,69.0,-32.0,22.0,28.0,24.0,0.0
29.0,1.0,-15.0,-3.0,-10.0,61.0,-23.0,19.0,24.0,52.0,0.0
48.0,-10.0,-21.0,-1.0,-14.0,49.0,-17.0,28.0,23.0,81.0,0.0
63.0,-3.0,1.0,-5.0,-13.0,39.0,-16.0,23.0,26.0,90.0,0.0
67.0,-1.0,12.0,-6.0,-11.0,33.0,-19.0,-4.0,29.0,67.0,0.0
54.0,-3.0,-3.0,-1.0,1.0,43.0,-15.0,-14.0,10.0,62.0,0.0
38.0,0.0,4.0,7.0,8.0,52.0,-21.0,-13.0,-9.0,77.0,0.0
23.0,2.0,11.0,2.0,12.0,49.0,-28.0,-28.0,-19.0,76.0,0.0
24.0,-8.0,-6.0,5.0,8.0,35.0,-35.0,-31.0,-26.0,59.0,0.0
8.0,-10.0,3.0,-2.0,1.0,28.0,-27.0,-25.0,-21.0,-1.0,0.0
1.0,-3.0,6.0,-2.0,-10.0,15.0,-27.0,-24.0,-10.0,-55.0,0.0
6.0,0.0,-8.0,1.0,-24.0,12.0,-21.0,-11.0,9.0,-40.0,0.0
13.0,-3.0,-7.0,4.0,-18.0,16.0,-3.0,1.0,22.0,-26.0,0.0
15.0,3.0,11.0,8.0,-14.0,17.0,-9.0,-10.0,15.0,-14.0,0.0
15.0,5.0,9.0,2.0,-16.0,7.0,-25.0,-20.0,6.0,-21.0,0.0
-23.0,-6.0,-9.0,-5.0,-16.0,10.0,-14.0,-16.0,-8.0,-31.0,0.0
-50.0,-25.0,-20.0,10.0,0.0,22.0,2.0,-5.0,16.0,-33.0,0.0
-43.0,-25.0,4.0,15.0,-1.0,22.0,15.0,20.0,57.0,-44.0,0.0
-30.0,-20.0,11.0,8.0,2.0,-8.0,15.0,32.0,69.0,-22.0,0.0
-20.0,-16.0,-7.0,0.0,1.0,-18.0,18.0,31.0,90.0,12.0,0.0
-33.0,-13.0,-7.0,0.0,9.0,-19.0,26.0,39.0,86.0,20.0,0.0
-24.0,-5.0,16.0,5.0,14.0,-30.0,26.0,20.0,70.0,-11.0,0.0
-9.0,25.0,6.0,2.0,4.0,-46.0,17.0,3.0,26.0,-32.0,0.0
8.0,31.0,13.0,-21.0,4.0,-50.0,18.0,-14.0,-29.0,-50.0,0.0
13.0,18.0,8.0,-28.0,20.0,-39.0,8.0,-37.0,-84.0,-98.0,0.0
4.0,21.0,13.0,-12.0,19.0,-41.0,-10.0,-47.0,-105.0,-129.0,0.0
20.0,32.0,21.0,-20.0,7.0,-58.0,-8.0,-35.0,-93.0,-98.0,0.0
38.0,27.0,9.0,-22.0,12.0,-66.0,4.0,-14.0,-57.0,-41.0,0.0
46.0,26.0,17.0,-14.0,14.0,-67.0,-4.0,-12.0,-51.0,-17.0,0.0
52.0,24.0,27.0,-1.0,11.0,-69.0,-14.0,-21.0,-69.0,-21.0,0.0
48.0,11.0,39.0,-7.0,16.0,-62.0,-10.0,-17.0,-43.0,9.0,0.0
22.0,-9.0,27.0,-11.0,19.0,-46.0,11.0,11.0,18.0,44.0,0.0
4.0,-14.0,13.0,-11.0,7.0,-54.0,13.0,30.0,50.0,63.0,0.0
-2.0,-20.0,10.0,-10.0,3.0,-54.0,22.0,29.0,50.0,88.0,0.0
-2.0,-10.0,2.0,-6.0,5.0,-45.0,25.0,13.0,34.0,81.0,0.0
-17.0,-3.0,3.0,-7.0,8.0,-45.0,14.0,0.0,-2.0,-38.0,0.0
-31.0,-8.0,-11.0,-9.0,5.0,-41.0,17.0,-10.0,-32.0,-175.0,0.0
-11.0,-17.0,2.0,-2.0,5.0,-48.0,21.0,-6.0,-11.0,-123.0,0.0
2.0,-14.0,8.0,5.0,3.0,-59.0,17.0,8.0,11.0,-46.0,0.0
3.0,-9.0,17.0,-3.0,8.0,-55.0,25.0,14.0,19.0,-20.0,0.0
2.0,-3.0,3.0,-2.0,16.0,-50.0,32.0,23.0,27.0,-11.0,0.0
5.0,1.0,8.0,4.0,17.0,-47.0,20.0,17.0,16.0,-44.0,0.0
13.0,2.0,8.0,9.0,19.0,-42.0,20.0,8.0,1.0,-105.0,0.0
20.0,5.0,7.0,2.0,19.0,-29.0,17.0,1.0,-16.0,-109.0,0.0
17.0,0.0,-12.0,0.0,13.0,-36.0,5.0,4.0,-15.0,-106.0,0.0
7.0,0.0,0.0,-1.0,13.0,-42.0,-2.0,12.0,-2.0,-89.0,0.0
-3.0,-12.0,1.0,2.0,19.0,-36.0,3.0,4.0,7.0,-74.0,0.0
0.0,-17.0,2.0,7.0,13.0,-36.0,-5.0,2.0,3.0,-59.0,0.0
0.0,-5.0,4.0,9.0,3.0,-37.0,-3.0,-8.0,-4.0,-37.0,0.0
0.0,3.0,-22.0,3.0,-8.0,-47.0,-10.0,-15.0,-16.0,-17.0,0.0
9.0,6.0,-10.0,5.0,-4.0,-42.0,-16.0,-19.0,-5.0,-11.0,0.0
24.0,15.0,-4.0,6.0,0.0,-53.0,-17.0,-16.0,-1.0,18.0,0.0
32.0,15.0,-9.0,-1.0,-1.0,-61.0,-10.0,-13.0,-5.0,32.0,0.0
44.0,17.0,11.0,-3.0,-7.0,-69.0,-20.0,-21.0,0.0,39.0,0.0
46.0,25.0,-6.0,-3.0,6.0,-68.0,-13.0,-13.0,4.0,52.0,0.0
32.0,24.0,3.0,-4.0,14.0,-70.0,7.0,-5.0,-3.0,28.0,0.0
22.0,19.0,4.0,-1.0,12.0,-69.0,15.0,4.0,0.0,-4.0,0.0
3.0,8.0,5.0,1.0,12.0,-56.0,15.0,11.0,-12.0,-34.0,0.0
-17.0,-3.0,2.0,0.0,14.0,-59.0,17.0,5.0,-30.0,-65.0,0.0
-20.0,6.0,-25.0,3.0,19.0,-61.0,20.0,4.0,-43.0,-61.0,0.0
-21.0,0.0,-35.0,13.0,13.0,-61.0,18.0,1.0,-37.0,-41.0,0.0
-19.0,-3.0,-27.0,0.0,13.0,-67.0,26.0,-10.0,-37.0,-28.0,0.0
-5.0,6.0,0.0,-4.0,22.0,-65.0,11.0,-8.0,-41.0,-8.0,0.0
10.0,10.0,-5.0,-17.0,16.0,-62.0,2.0,-4.0,-34.0,15.0,0.0
25.0,4.0,-15.0,-18.0,7.0,-67.0,14.0,-18.0,-15.0,32.0,0.0
33.0,8.0,1.0,-2.0,6.0,-66.0,18.0,-23.0,-6.0,47.0,0.0
40.0,14.0,9.0,5.0,6.0,-52.0,2.0,-21.0,5.0,61.0,0.0
47.0,33.0,14.0,11.0,0.0,-50.0,7.0,-8.0,1.0,71.0,0.0
38.0,26.0,7.0,8.0,7.0,-52.0,39.0,20.0,17.0,64.0,0.0
16.0,8.0,7.0,-4.0,10.0,-52.0,43.0,28.0,15.0,18.0,0.0
-9.0,0.0,18.0,0.0,21.0,-57.0,32.0,15.0,-2.0,-25.0,0.0
-30.0,-4.0,12.0,-1.0,22.0,-64.0,12.0,-6.0,-16.0,-53.0,0.0
-29.0,-8.0,6.0,1.0,9.0,-57.0,6.0,-8.0,-38.0,-57.0,0.0
-23.0,-1.0,3.0,9.0,12.0,-43.0,16.0,8.0,-19.0,-36.0,0.0
-20.0,-12.0,1.0,7.0,18.0,-49.0,17.0,10.0,1.0,-28.0,0.0
-8.0,-7.0,6.0,0.0,10.0,-47.0,23.0,12.0,-8.0,-13.0,0.0
12.0,0.0,12.0,-1.0,4.0,-42.0,20.0,2.0,-8.0,14.0,0.0
13.0,7.0,-4.0,2.0,-6.0,-51.0,13.0,-19.0,-11.0,26.0,0.0
8.0,6.0,4.0,9.0,-2.0,-58.0,19.0,-20.0,0.0,23.0,0.0
4.0,6.0,-15.0,29.0,-11.0,-61.0,18.0,-9.0,-9.0,26.0,0.0
9.0,4.0,-29.0,37.0,-7.0,-63.0,22.0,-9.0,-6.0,33.0,0.0
8.0,-7.0,-32.0,35.0,-1.0,-64.0,19.0,-9.0,-8.0,41.0,0.0
8.0,-4.0,-13.0,32.0,-1.0,-48.0,25.0,-10.0,4.0,61.0,0.0
21.0,-9.0,1.0,25.0,1.0,-52.0,29.0,-3.0,12.0,73.0,0.0
27.0,-4.0,-17.0,25.0,-2.0,-57.0,23.0,-4.0,14.0,76.0,0.0
21.0,8.0,-25.0,28.0,0.0,-58.0,12.0,-23.0,4.0,62.0,0.0
21.0,5.0,-5.0,19.0,3.0,-61.0,9.0,-37.0,5.0,37.0,0.0
20.0,2.0,9.0,22.0,-5.0,-62.0,10.0,-22.0,9.0,11.0,0.0
11.0,-8.0,-6.0,11.0,-7.0,-53.0,20.0,-2.0,4.0,4.0,0.0
14.0,-23.0,5.0,-20.0,-11.0,-57.0,23.0,0.0,5.0,1.0,0.0
17.0,-15.0,11.0,-26.0,-7.0,-57.0,19.0,-8.0,3.0,0.0,0.0
16.0,-2.0,3.0,-21.0,-6.0,-55.0,27.0,-10.0,13.0,13.0,0.0
20.0,5.0,15.0,-5.0,-4.0,-52.0,13.0,-20.0,0.0,5.0,0.0
9.0,-7.0,2.0,-13.0,-3.0,-63.0,0.0,-41.0,-14.0,-7.0,0.0
-1.0,-19.0,6.0,-24.0,-4.0,-75.0,21.0,-19.0,8.0,14.0,0.0
-3.0,-18.0,-6.0,-15.0,-10.0,-79.0,30.0,3.0,30.0,31.0,0.0
7.0,-16.0,-8.0,0.0,-5.0,-74.0,19.0,10.0,31.0,43.0,0.0
14.0,-9.0,8.0,11.0,-4.0,-70.0,5.0,0.0,31.0,51.0,0.0
17.0,-10.0,-7.0,10.0,-2.0,-71.0,-2.0,-1.0,26.0,26.0,0.0
7.0,-14.0,-18.0,17.0,2.0,-73.0,-8.0,-1.0,8.0,9.0,0.0
-13.0,-13.0,-1.0,15.0,2.0,-73.0,0.0,-10.0,-8.0,2.0,0.0
-25.0,-13.0,-1.0,18.0,1.0,-72.0,8.0,-10.0,-15.0,-4.0,0.0
-24.0,-17.0,-21.0,13.0,0.0,-58.0,14.0,0.0,-21.0,-5.0,0.0
-16.0,-14.0,-26.0,20.0,-6.0,-38.0,16.0,-8.0,-15.0,-1.0,0.0
-7.0,5.0,-26.0,20.0,-14.0,-44.0,5.0,-31.0,-10.0,43.0,0.0
-14.0,6.0,-33.0,-1.0,-28.0,-58.0,4.0,-13.0,32.0,106.0,0.0
-13.0,0.0,-34.0,-4.0,-28.0,-71.0,0.0,17.0,103.0,144.0,0.0
-12.0,0.0,-26.0,-4.0,-31.0,-68.0,-7.0,21.0,94.0,107.0,0.0
-20.0,-4.0,-16.0,-22.0,-24.0,-71.0,-5.0,0.0,67.0,15.0,0.0
-20.0,-13.0,-19.0,-33.0,-19.0,-67.0,13.0,10.0,60.0,4.0,0.0
-2.0,-1.0,-22.0,-43.0,-8.0,-54.0,30.0,25.0,32.0,0.0,0.0
2.0,3.0,-17.0,-40.0,6.0,-50.0,24.0,15.0,-3.0,-42.0,0.0
-10.0,-2.0,-18.0,-32.0,16.0,-37.0,5.0,9.0,-13.0,-70.0,0.0
-11.0,-8.0,-16.0,-25.0,5.0,-34.0,-2.0,2.0,-35.0,-59.0,0.0
-6.0,-1.0,-14.0,-17.0,-13.0,-37.0,4.0,-2.0,-42.0,-45.0,0.0
-16.0,0.0,-17.0,-20.0,-20.0,-42.0,2.0,-3.0,-30.0,-30.0,0.0
-16.0,-3.0,-16.0,-31.0,-12.0,-56.0,7.0,8.0,-12.0,-21.0,0.0
-20.0,-3.0,-18.0,-30.0,-6.0,-57.0,-6.0,17.0,-13.0,-18.0,0.0
-13.0,-4.0,-23.0,-17.0,-9.0,-42.0,-15.0,6.0,-19.0,-17.0,0.0
-17.0,-3.0,-13.0,-20.0,3.0,-43.0,-14.0,6.0,-25.0,-21.0,0.0
-30.0,-10.0,-9.0,-31.0,16.0,-50.0,-14.0,2.0,-14.0,-16.0,0.0
-16.0,-11.0,-14.0,-32.0,21.0,-52.0,-3.0,16.0,5.0,4.0,0.0
-8.0,-4.0,-16.0,-22.0,12.0,-46.0,2.0,3.0,22.0,15.0,0.0
-7.0,-1.0,-12.0,-15.0,11.0,-49.0,-8.0,-4.0,0.0,-3.0,0.0
6.0,-9.0,-11.0,-19.0,5.0,-56.0,-13.0,-17.0,-2.0,4.0,0.0
10.0,-8.0,-8.0,-7.0,13.0,-46.0,-12.0,-25.0,7.0,19.0,0.0
4.0,-2.0,0.0,16.0,15.0,-34.0,-5.0,-21.0,7.0,26.0,0.0
6.0,6.0,1.0,23.0,6.0,-32.0,-7.0,-17.0,2.0,34.0,0.0
5.0,8.0,0.0,7.0,-8.0,-40.0,-13.0,-29.0,-7.0,31.0,0.0
7.0,11.0,-3.0,-7.0,-9.0,-49.0,-16.0,-24.0,1.0,52.0,0.0
13.0,-5.0,-2.0,-20.0,-7.0,-46.0,-8.0,0.0,34.0,105.0,0.0
31.0,-8.0,4.0,-7.0,-18.0,-36.0,-11.0,12.0,51.0,128.0,0.0
45.0,-5.0,7.0,2.0,-25.0,-44.0,0.0,11.0,65.0,137.0,0.0
47.0,1.0,21.0,7.0,-22.0,-48.0,15.0,23.0,68.0,120.0,0.0
34.0,9.0,17.0,0.0,-23.0,-47.0,22.0,25.0,70.0,83.0,0.0
4.0,2.0,10.0,1.0,-18.0,-41.0,11.0,17.0,58.0,52.0,0.0
-11.0,-6.0,0.0,10.0,-5.0,-36.0,8.0,16.0,12.0,17.0,0.0
-19.0,-20.0,-8.0,5.0,-4.0,-35.0,10.0,11.0,-32.0,-16.0,0.0
-23.0,-18.0,11.0,5.0,5.0,-37.0,9.0,4.0,-58.0,-27.0,0.0
-7.0,3.0,27.0,11.0,11.0,-36.0,-1.0,-12.0,-66.0,-3.0,0.0
41.0,10.0,11.0,10.0,0.0,-39.0,-29.0,-39.0,-42.0,69.0,0.0
81.0,21.0,-5.0,0.0,-20.0,-48.0,-46.0,-50.0,-15.0,133.0,0.0
108.0,31.0,-7.0,-2.0,-25.0,-54.0,-56.0,-62.0,-36.0,122.0,0.0
110.0,44.0,6.0,-17.0,-18.0,-65.0,-64.0,-74.0,-50.0,85.0,0.0
74.0,39.0,28.0,-17.0,-12.0,-64.0,-59.0,-67.0,-45.0,31.0,0.0
3.0,2.0,16.0,-11.0,-2.0,-43.0,-31.0,-25.0,-5.0,-24.0,0.0
-44.0,-16.0,6.0,-19.0,9.0,-32.0,-5.0,8.0,7.0,-86.0,0.0
-75.0,-21.0,23.0,-14.0,12.0,-29.0,2.0,18.0,-20.0,-127.0,0.0
-104.0,-41.0,11.0,-14.0,23.0,-18.0,6.0,14.0,-45.0,-156.0,0.0
-125.0,-59.0,-4.0,-6.0,31.0,-6.0,23.0,23.0,-39.0,-179.0,0.0
-136.0,-65.0,-1.0,11.0,29.0,1.0,31.0,28.0,-26.0,-184.0,0.0
-118.0,-36.0,18.0,27.0,17.0,-4.0,20.0,27.0,-20.0,-150.0,0.0
-83.0,-36.0,9.0,16.0,15.0,-11.0,21.0,28.0,4.0,-104.0,0.0
-60.0,-43.0,-8.0,0.0,13.0,-19.0,22.0,26.0,21.0,-59.0,0.0
-35.0,-30.0,-11.0,-5.0,7.0,-28.0,11.0,23.0,6.0,-29.0,0.0
-28.0,-20.0,-12.0,12.0,9.0,-29.0,11.0,19.0,-8.0,-17.0,0.0
-9.0,-7.0,-15.0,22.0,5.0,-35.0,10.0,19.0,1.0,4.0,0.0
11.0,2.0,-17.0,22.0,5.0,-41.0,12.0,21.0,36.0,62.0,0.0
20.0,10.0,-10.0,9.0,0.0,-34.0,8.0,19.0,48.0,89.0,0.0
37.0,14.0,-11.0,10.0,-4.0,-38.0,0.0,15.0,42.0,98.0,0.0
46.0,15.0,-2.0,12.0,2.0,-43.0,-11.0,4.0,24.0,95.0,0.0
32.0,5.0,16.0,6.0,1.0,-27.0,-7.0,-8.0,19.0,39.0,0.0
3.0,-11.0,4.0,3.0,8.0,-20.0,-1.0,-5.0,3.0,-59.0,0.0
-15.0,-16.0,2.0,9.0,13.0,-18.0,-3.0,9.0,-24.0,-116.0,0.0
-12.0,-11.0,-8.0,9.0,10.0,-20.0,-10.0,-3.0,-24.0,-86.0,0.0
2.0,-6.0,-7.0,6.0,12.0,-20.0,-17.0,-17.0,-23.0,-8.0,0.0
9.0,-5.0,3.0,6.0,18.0,-11.0,-15.0,-21.0,-10.0,49.0,0.0
23.0,3.0,13.0,-3.0,15.0,-6.0,-13.0,-8.0,-2.0,95.0,0.0
26.0,0.0,8.0,-3.0,11.0,-15.0,-7.0,-4.0,-9.0,58.0,0.0
6.0,-11.0,3.0,-1.0,14.0,-21.0,-15.0,-4.0,-26.0,-70.0,0.0
-14.0,-10.0,0.0,-4.0,27.0,-32.0,-10.0,-7.0,-34.0,-137.0,0.0
-11.0,3.0,-8.0,-14.0,22.0,-30.0,7.0,6.0,-22.0,-114.0,0.0
-12.0,6.0,-15.0,-20.0,15.0,-32.0,21.0,6.0,-13.0,-87.0,0.0
-8.0,11.0,-18.0,-17.0,12.0,-41.0,21.0,-2.0,-28.0,-68.0,0.0
0.0,14.0,-13.0,-16.0,7.0,-38.0,16.0,-10.0,-38.0,-68.0,0.0
-9.0,0.0,-10.0,-17.0,7.0,-22.0,23.0,-3.0,-24.0,-87.0,0.0
-15.0,-10.0,-9.0,-23.0,15.0,-4.0,21.0,-5.0,-28.0,-89.0,0.0
-5.0,-4.0,-9.0,-28.0,8.0,-9.0,20.0,-4.0,-32.0,-63.0,0.0
-1.0,1.0,-5.0,-29.0,3.0,-13.0,16.0,7.0,-21.0,-34.0,0.0
20.0,5.0,21.0,-32.0,0.0,-15.0,9.0,4.0,-7.0,22.0,0.0
41.0,4.0,26.0,-33.0,-5.0,-24.0,-3.0,-19.0,2.0,88.0,0.0
45.0,3.0,26.0,-29.0,1.0,-31.0,-16.0,-20.0,14.0,125.0,0.0
39.0,5.0,33.0,-22.0,2.0,-36.0,-3.0,-5.0,34.0,174.0,0.0
51.0,12.0,17.0,-3.0,-1.0,-31.0,4.0,-23.0,33.0,207.0,0.0
53.0,17.0,32.0,2.0,-8.0,-30.0,3.0,-38.0,20.0,179.0,0.0
43.0,20.0,17.0,0.0,-5.0,-27.0,1.0,-30.0,22.0,178.0,0.0
26.0,12.0,14.0,4.0,0.0,-11.0,9.0,-6.0,-2.0,157.0,0.0
-10.0,-14.0,10.0,4.0,1.0,-11.0,17.0,-9.0,-69.0,-30.0,0.0
-42.0,-23.0,-7.0,5.0,-2.0,-24.0,11.0,-4.0,-96.0,-249.0,0.0
-48.0,-15.0,-13.0,8.0,-7.0,-32.0,24.0,49.0,-15.0,-239.0,0.0
-47.0,-10.0,-4.0,3.0,0.0,-21.0,44.0,70.0,15.0,-213.0,0.0
-61.0,-6.0,17.0,17.0,13.0,-15.0,42.0,65.0,8.0,-231.0,0.0
-63.0,2.0,16.0,27.0,14.0,-22.0,25.0,49.0,18.0,-197.0,0.0
-63.0,-3.0,-4.0,17.0,4.0,-29.0,18.0,43.0,2.0,-136.0,0.0
-53.0,4.0,-20.0,9.0,-2.0,-26.0,5.0,38.0,7.0,-115.0,0.0
-42.0,4.0,-27.0,7.0,0.0,-28.0,1.0,41.0,39.0,-72.0,0.0
-30.0,1.0,-24.0,2.0,4.0,-38.0,18.0,63.0,64.0,-25.0,0.0
-31.0,0.0,-21.0,7.0,9.0,-30.0,24.0,68.0,81.0,-5.0,0.0
-33.0,-11.0,-19.0,13.0,2.0,-18.0,21.0,46.0,48.0,-11.0,0.0
-13.0,-7.0,-17.0,6.0,-7.0,-28.0,12.0,38.0,33.0,1.0,0.0
5.0,10.0,-17.0,2.0,-10.0,-45.0,9.0,22.0,34.0,12.0,0.0
12.0,6.0,-21.0,6.0,-5.0,-38.0,14.0,9.0,31.0,2.0,0.0
28.0,-1.0,-11.0,7.0,0.0,-43.0,13.0,4.0,18.0,-7.0,0.0
25.0,-1.0,-5.0,12.0,3.0,-42.0,0.0,-2.0,-24.0,-30.0,0.0
17.0,15.0,-5.0,11.0,9.0,-32.0,-9.0,-13.0,-30.0,-45.0,0.0
22.0,17.0,-7.0,-8.0,9.0,-29.0,-6.0,-20.0,-31.0,-65.0,0.0
-8.0,1.0,-14.0,-10.0,11.0,-19.0,10.0,-13.0,-27.0,-92.0,0.0
-17.0,-15.0,-18.0,5.0,12.0,-26.0,8.0,0.0,-6.0,-83.0,0.0
2.0,-14.0,-10.0,1.0,9.0,-35.0,11.0,9.0,11.0,-41.0,0.0
7.0,-2.0,2.0,0.0,3.0,-37.0,27.0,24.0,60.0,2.0,0.0
11.0,-3.0,3.0,0.0,9.0,-29.0,35.0,33.0,80.0,44.0,0.0
0.0,-11.0,-3.0,-1.0,10.0,-24.0,31.0,6.0,29.0,20.0,0.0
-16.0,-13.0,-3.0,4.0,0.0,-22.0,22.0,-7.0,-16.0,-18.0,0.0
-10.0,-15.0,10.0,-3.0,-1.0,-18.0,16.0,-13.0,-19.0,-20.0,0.0
0.0,-15.0,32.0,2.0,4.0,-16.0,9.0,-23.0,-40.0,-19.0,0.0
-4.0,-11.0,22.0,12.0,-5.0,-16.0,10.0,-21.0,-61.0,-30.0,0.0
-5.0,-6.0,29.0,8.0,-7.0,-22.0,11.0,-27.0,-76.0,-61.0,0.0
5.0,-3.0,27.0,7.0,5.0,-24.0,0.0,-29.0,-53.0,-34.0,0.0
0.0,-6.0,28.0,5.0,4.0,-16.0,-9.0,-21.0,-30.0,-19.0,0.0
-17.0,-17.0,29.0,6.0,1.0,-4.0,-4.0,-16.0,-30.0,-46.0,0.0
-27.0,-19.0,2.0,6.0,8.0,1.0,-2.0,-13.0,-49.0,-63.0,0.0
-18.0,-9.0,-6.0,6.0,4.0,-7.0,-4.0,-26.0,-63.0,-80.0,0.0
-23.0,-4.0,-15.0,16.0,12.0,-11.0,-7.0,-25.0,-40.0,-69.0,0.0
-40.0,-22.0,0.0,14.0,24.0,-16.0,-13.0,-22.0,-39.0,-73.0,0.0
-41.0,-23.0,23.0,8.0,11.0,-23.0,-32.0,-22.0,-55.0,-71.0,0.0
-32.0,-10.0,13.0,0.0,-7.0,-21.0,-19.0,-10.0,-18.0,-30.0,0.0
-29.0,-17.0,15.0,-4.0,-14.0,-9.0,5.0,11.0,18.0,-8.0,0.0
-29.0,-24.0,13.0,-4.0,-11.0,-1.0,8.0,14.0,16.0,-12.0,0.0
-25.0,-19.0,2.0,-1.0,-9.0,-1.0,4.0,-3.0,3.0,-8.0,0.0
-30.0,-9.0,12.0,-17.0,-15.0,-3.0,4.0,0.0,-5.0,-2.0,0.0
-25.0,-13.0,15.0,-15.0,-16.0,-10.0,16.0,3.0,2.0,2.0,0.0
-5.0,-10.0,0.0,-9.0,-20.0,-11.0,15.0,-12.0,0.0,3.0,0.0
7.0,-4.0,0.0,-20.0,-19.0,-2.0,6.0,-20.0,-6.0,-6.0,0.0
20.0,1.0,22.0,-22.0,-17.0,-1.0,-2.0,-23.0,-4.0,1.0,0.0
30.0,18.0,4.0,-24.0,-20.0,-7.0,-18.0,-48.0,-4.0,5.0,0.0
