channel0,channel1,channel2,channel3,channel4,channel5,channel6,channel7,channel8,channel9,true_locs
55.0,74.0,32.0,19.0,1.0,-2.0,231.0,55.0,160.0,14.0,0.0
110.0,81.0,45.0,-2.0,-12.0,21.0,338.0,62.0,228.0,43.0,0.0
76.0,50.0,28.0,-10.0,-6.0,-9.0,286.0,9.0,16.0,7.0,0.0
35.0,46.0,25.0,-21.0,-23.0,-21.0,281.0,-1.0,-2.0,-30.0,0.0
30.0,-36.0,-38.0,-82.0,-36.0,-93.0,95.0,-72.0,-499.0,-26.0,0.0
25.0,-4.0,-59.0,-70.0,-25.0,-66.0,207.0,-34.0,-289.0,48.0,0.0
34.0,86.0,11.0,-20.0,-18.0,-2.0,432.0,54.0,229.0,128.0,0.0
30.0,89.0,3.0,-8.0,-10.0,-12.0,407.0,55.0,161.0,114.0,0.0
8.0,71.0,8.0,-8.0,-6.0,-1.0,328.0,35.0,53.0,44.0,0.0
-27.0,59.0,24.0,21.0,10.0,53.0,330.0,47.0,229.0,-31.0,0.0
-55.0,25.0,31.0,32.0,22.0,59.0,255.0,31.0,204.0,-90.0,0.0
-52.0,32.0,26.0,29.0,6.0,39.0,183.0,18.0,176.0,-74.0,0.0
-38.0,22.0,18.0,17.0,0.0,19.0,159.0,31.0,167.0,-34.0,0.0
-12.0,30.0,16.0,3.0,-3.0,10.0,144.0,46.0,142.0,-6.0,0.0
1.0,36.0,11.0,-16.0,-10.0,3.0,110.0,25.0,-14.0,14.0,0.0
-2.0,31.0,-72.0,-6.0,-3.0,17.0,137.0,27.0,80.0,1.0,0.0
-3.0,12.0,-72.0,-14.0,-2.0,7.0,119.0,23.0,66.0,-19.0,0.0
14.0,36.0,28.0,-13.0,-9.0,-2.0,142.0,27.0,73.0,2.0,0.0
28.0,76.0,57.0,4.0,-8.0,-4.0,199.0,45.0,220.0,56.0,0.0
34.0,85.0,61.0,15.0,-9.0,-6.0,230.0,28.0,180.0,75.0,0.0
21.0,72.0,29.0,21.0,-7.0,0.0,259.0,3.0,109.0,36.0,0.0
-5.0,27.0,15.0,16.0,-4.0,-3.0,261.0,-10.0,77.0,-10.0,0.0
-14.0,0.0,16.0,12.0,2.0,10.0,265.0,2.0,78.0,-24.0,0.0
-2.0,-22.0,2.0,9.0,0.0,4.0,199.0,-8.0,-24.0,-5.0,0.0
1.0,-45.0,-14.0,-6.0,3.0,-19.0,126.0,-32.0,-126.0,-10.0,0.0
-3.0,-20.0,8.0,-6.0,10.0,-21.0,106.0,-15.0,-43.0,-6.0,0.0
-10.0,4.0,19.0,7.0,14.0,16.0,103.0,13.0,109.0,-7.0,0.0
-8.0,-4.0,19.0,-8.0,20.0,22.0,51.0,11.0,78.0,-27.0,0.0
0.0,-30.0,9.0,-27.0,7.0,6.0,-14.0,6.0,-78.0,-25.0,0.0
16.0,-5.0,14.0,-15.0,2.0,26.0,-13.0,58.0,59.0,4.0,0.0
9.0,-8.0,16.0,0.0,-1.0,18.0,0.0,38.0,74.0,19.0,0.0
14.0,4.0,-9.0,-14.0,-3.0,7.0,-9.0,3.0,-11.0,16.0,0.0
20.0,-102.0,-29.0,-82.0,-21.0,-89.0,-298.0,-111.0,-732.0,-8.0,0.0
19.0,-120.0,-60.0,-78.0,-31.0,-94.0,-324.0,-115.0,-714.0,14.0,0.0
28.0,15.0,-96.0,-3.0,-26.0,-6.0,89.0,6.0,120.0,45.0,0.0
40.0,27.0,-27.0,0.0,-11.0,9.0,133.0,18.0,163.0,38.0,0.0
33.0,3.0,5.0,-7.0,-8.0,-1.0,92.0,4.0,38.0,11.0,0.0
30.0,1.0,7.0,-18.0,-11.0,-9.0,96.0,-9.0,-14.0,-3.0,0.0
25.0,-10.0,27.0,-30.0,-16.0,-16.0,108.0,-20.0,-29.0,-15.0,0.0
14.0,0.0,-24.0,-2.0,-13.0,3.0,119.0,4.0,69.0,-9.0,0.0
-5.0,1.0,-15.0,-6.0,-5.0,5.0,32.0,2.0,14.0,5.0,0.0
-12.0,-12.0,24.0,-10.0,-3.0,1.0,0.0,0.0,13.0,1.0,0.0
-21.0,19.0,22.0,2.0,-1.0,2.0,13.0,16.0,154.0,-7.0,0.0
-13.0,33.0,16.0,-2.0,-3.0,5.0,-19.0,9.0,148.0,-8.0,0.0
-6.0,20.0,14.0,-2.0,0.0,13.0,-53.0,1.0,90.0,-14.0,0.0
-15.0,0.0,12.0,-8.0,5.0,-12.0,-133.0,-29.0,-72.0,-35.0,0.0
-15.0,20.0,15.0,-5.0,1.0,-10.0,-118.0,-17.0,2.0,-49.0,0.0
-6.0,-7.0,12.0,-11.0,-18.0,-7.0,-111.0,-5.0,13.0,-48.0,0.0
8.0,1.0,11.0,-21.0,-25.0,-21.0,-112.0,0.0,-18.0,-40.0,0.0
31.0,54.0,13.0,-15.0,-22.0,-4.0,-29.0,27.0,139.0,-29.0,0.0
38.0,48.0,10.0,-28.0,-21.0,11.0,0.0,33.0,155.0,-19.0,0.0
29.0,26.0,14.0,-29.0,-20.0,16.0,8.0,28.0,119.0,-14.0,0.0
27.0,23.0,11.0,-27.0,-18.0,-12.0,-11.0,13.0,-37.0,3.0,0.0
18.0,67.0,-21.0,3.0,0.0,-2.0,46.0,30.0,97.0,-5.0,0.0
-7.0,45.0,-68.0,2.0,16.0,-5.0,-4.0,2.0,-63.0,-38.0,0.0
-32.0,34.0,-6.0,2.0,12.0,6.0,-15.0,-8.0,-52.0,-34.0,0.0
-45.0,-18.0,29.0,-15.0,1.0,-10.0,-57.0,-11.0,-128.0,11.0,0.0
-75.0,-31.0,33.0,-4.0,6.0,-3.0,-32.0,13.0,40.0,31.0,0.0
-68.0,-31.0,28.0,1.0,5.0,-6.0,-51.0,23.0,80.0,29.0,0.0
-36.0,-70.0,10.0,-14.0,-4.0,-23.0,-116.0,5.0,-79.0,34.0,0.0
-20.0,-70.0,12.0,-17.0,7.0,-37.0,-141.0,0.0,-129.0,44.0,0.0
-5.0,-28.0,14.0,4.0,6.0,-6.0,-98.0,40.0,32.0,59.0,0.0
6.0,-22.0,20.0,-2.0,-1.0,3.0,-101.0,39.0,2.0,37.0,0.0
8.0,-17.0,25.0,8.0,10.0,2.0,-121.0,21.0,-38.0,5.0,0.0
-9.0,-18.0,21.0,13.0,20.0,8.0,-126.0,-3.0,-75.0,-18.0,0.0
-14.0,-7.0,24.0,27.0,23.0,18.0,-98.0,5.0,12.0,-34.0,0.0
-15.0,-9.0,5.0,24.0,22.0,6.0,-95.0,3.0,22.0,-40.0,0.0
-23.0,-44.0,-5.0,10.0,33.0,-23.0,-128.0,-16.0,-130.0,-42.0,0.0
-24.0,-22.0,-42.0,26.0,47.0,15.0,-62.0,9.0,67.0,-24.0,0.0
-30.0,6.0,-69.0,45.0,52.0,38.0,-23.0,24.0,147.0,-38.0,0.0
-11.0,11.0,0.0,32.0,37.0,30.0,4.0,30.0,156.0,-39.0,0.0
16.0,22.0,25.0,19.0,-4.0,13.0,3.0,38.0,117.0,-10.0,0.0
31.0,19.0,31.0,6.0,-26.0,1.0,-24.0,30.0,61.0,-2.0,0.0
33.0,21.0,17.0,-5.0,-30.0,-4.0,-36.0,12.0,46.0,0.0,0.0
21.0,26.0,0.0,-4.0,-24.0,-9.0,-37.0,-9.0,21.0,1.0,0.0
23.0,2.0,-10.0,5.0,-18.0,-9.0,-33.0,-5.0,31.0,0.0,0.0
24.0,18.0,-10.0,15.0,0.0,-2.0,-50.0,-8.0,50.0,4.0,0.0
19.0,37.0,-3.0,24.0,12.0,4.0,-74.0,-16.0,96.0,9.0,0.0
23.0,11.0,-15.0,10.0,-7.0,-5.0,-97.0,-27.0,63.0,9.0,0.0
34.0,0.0,-50.0,-18.0,-14.0,-22.0,-110.0,-42.0,-70.0,11.0,0.0
33.0,27.0,-88.0,-31.0,-9.0,-16.0,-80.0,-10.0,-30.0,12.0,0.0
38.0,7.0,-69.0,-28.0,1.0,-12.0,-64.0,-11.0,-71.0,0.0,0.0
45.0,0.0,-118.0,-5.0,11.0,1.0,-10.0,0.0,-1.0,9.0,0.0
76.0,-1.0,-157.0,-21.0,9.0,-18.0,-23.0,-20.0,-168.0,40.0,0.0
91.0,3.0,-140.0,-15.0,8.0,-18.0,-4.0,-16.0,-144.0,68.0,0.0
62.0,16.0,-89.0,-3.0,0.0,-6.0,61.0,3.0,75.0,51.0,0.0
16.0,21.0,-81.0,8.0,6.0,10.0,91.0,-1.0,111.0,7.0,0.0
-4.0,42.0,-33.0,17.0,4.0,3.0,105.0,-7.0,103.0,-9.0,0.0
19.0,55.0,64.0,46.0,7.0,-5.0,116.0,9.0,141.0,15.0,0.0
11.0,22.0,70.0,63.0,8.0,2.0,117.0,29.0,171.0,31.0,0.0
-23.0,-6.0,-26.0,45.0,-1.0,-13.0,99.0,44.0,166.0,38.0,0.0
-28.0,14.0,-109.0,22.0,-6.0,-10.0,73.0,53.0,155.0,32.0,0.0
-18.0,-8.0,-102.0,9.0,-2.0,0.0,52.0,35.0,105.0,22.0,0.0
-19.0,-11.0,-26.0,-5.0,-2.0,3.0,21.0,9.0,55.0,1.0,0.0
-24.0,-18.0,58.0,-29.0,-7.0,6.0,6.0,0.0,56.0,0.0,0.0
-29.0,-19.0,48.0,-47.0,-7.0,-5.0,-9.0,0.0,54.0,-5.0,0.0
-18.0,-21.0,47.0,-44.0,-7.0,4.0,-16.0,3.0,44.0,-25.0,0.0
-11.0,-8.0,59.0,-32.0,4.0,21.0,-18.0,0.0,20.0,-41.0,0.0
-14.0,15.0,69.0,-13.0,5.0,15.0,-18.0,-7.0,-6.0,-52.0,0.0
-12.0,-6.0,58.0,1.0,13.0,15.0,-20.0,-2.0,-12.0,-56.0,0.0
-9.0,-5.0,-3.0,9.0,11.0,27.0,4.0,3.0,7.0,-44.0,1.0
-5.0,0.0,-85.0,9.0,16.0,38.0,55.0,19.0,33.0,-21.0,1.0
3.0,-5.0,-12.0,15.0,16.0,17.0,84.0,5.0,53.0,10.0,1.0
0.0,0.0,57.0,16.0,9.0,4.0,104.0,-6.0,47.0,17.0,1.0
-18.0,-17.0,56.0,6.0,7.0,8.0,109.0,7.0,17.0,8.0,1.0
-38.0,-21.0,42.0,-6.0,-8.0,4.0,100.0,-2.0,-47.0,6.0,1.0
-44.0,-57.0,-8.0,-23.0,-13.0,-15.0,16.0,-35.0,-229.0,-6.0,1.0
-50.0,-40.0,7.0,-17.0,5.0,8.0,26.0,-13.0,-110.0,-9.0,1.0
-65.0,-28.0,38.0,-8.0,13.0,26.0,34.0,13.0,-11.0,0.0,1.0
-61.0,-17.0,36.0,1.0,10.0,14.0,27.0,23.0,21.0,13.0,1.0
-32.0,-22.0,33.0,6.0,9.0,2.0,31.0,16.0,15.0,18.0,1.0
-16.0,-21.0,39.0,18.0,17.0,13.0,22.0,5.0,5.0,0.0,1.0
-20.0,-16.0,27.0,19.0,14.0,20.0,-1.0,0.0,3.0,-26.0,1.0
-14.0,3.0,23.0,24.0,-1.0,21.0,-13.0,5.0,-9.0,-30.0,1.0
11.0,-3.0,30.0,10.0,-11.0,10.0,2.0,4.0,-3.0,-23.0,1.0
0.0,-8.0,47.0,0.0,-9.0,-14.0,-44.0,-16.0,-155.0,-24.0,1.0
-46.0,-2.0,44.0,7.0,-9.0,-9.0,-21.0,-25.0,-176.0,-59.0,1.0
-76.0,19.0,21.0,4.0,-21.0,-6.0,47.0,-6.0,-46.0,-55.0,1.0
-57.0,13.0,20.0,-10.0,-27.0,-22.0,80.0,3.0,8.0,25.0,0.0
-30.0,5.0,-38.0,-4.0,-7.0,-16.0,104.0,16.0,73.0,79.0,0.0
-35.0,27.0,-136.0,0.0,7.0,-10.0,141.0,29.0,96.0,46.0,0.0
-45.0,18.0,-96.0,6.0,12.0,-5.0,165.0,16.0,85.0,-1.0,0.0
-27.0,5.0,27.0,2.0,6.0,-3.0,128.0,17.0,44.0,-24.0,0.0
-18.0,15.0,46.0,-1.0,9.0,-17.0,66.0,15.0,-6.0,-41.0,0.0
-46.0,3.0,38.0,-3.0,-4.0,-19.0,6.0,8.0,-32.0,-66.0,0.0
-50.0,-1.0,24.0,4.0,-1.0,0.0,-46.0,8.0,-38.0,-79.0,0.0
-22.0,-4.0,36.0,22.0,1.0,2.0,-66.0,-3.0,-43.0,-32.0,0.0
-1.0,-8.0,49.0,16.0,9.0,0.0,-75.0,-12.0,0.0,66.0,0.0
-2.0,-10.0,29.0,17.0,13.0,22.0,-98.0,0.0,53.0,98.0,0.0
11.0,-7.0,13.0,22.0,20.0,23.0,-111.0,11.0,75.0,80.0,0.0
26.0,19.0,20.0,12.0,23.0,9.0,-111.0,-1.0,46.0,51.0,0.0
54.0,12.0,33.0,6.0,14.0,2.0,-104.0,-3.0,20.0,16.0,0.0
62.0,15.0,30.0,0.0,10.0,8.0,-90.0,-1.0,-7.0,5.0,0.0
43.0,27.0,30.0,4.0,4.0,-8.0,-102.0,4.0,-27.0,-3.0,0.0
28.0,12.0,31.0,12.0,12.0,-19.0,-120.0,-6.0,-77.0,-24.0,0.0
20.0,10.0,33.0,17.0,19.0,-14.0,-124.0,-18.0,-74.0,-26.0,0.0
0.0,-2.0,24.0,10.0,17.0,-13.0,-96.0,-14.0,0.0,-6.0,0.0
-9.0,-26.0,13.0,2.0,7.0,1.0,-49.0,-2.0,81.0,18.0,0.0
-8.0,-22.0,14.0,-2.0,2.0,1.0,-23.0,12.0,134.0,26.0,0.0
4.0,-18.0,7.0,0.0,0.0,-15.0,-43.0,14.0,139.0,31.0,0.0
2.0,-6.0,15.0,6.0,-1.0,0.0,-89.0,5.0,84.0,45.0,0.0
-6.0,-23.0,23.0,4.0,3.0,-9.0,-166.0,-5.0,-39.0,28.0,0.0
13.0,-49.0,-3.0,-7.0,-4.0,-31.0,-239.0,-12.0,-208.0,29.0,0.0
28.0,-9.0,-82.0,0.0,-2.0,2.0,-194.0,18.0,-40.0,24.0,0.0
26.0,29.0,-29.0,4.0,0.0,18.0,-207.0,6.0,-33.0,13.0,0.0
52.0,32.0,11.0,3.0,8.0,-1.0,-193.0,-9.0,-30.0,7.0,0.0
60.0,18.0,4.0,6.0,17.0,7.0,-185.0,-11.0,10.0,3.0,0.0
37.0,15.0,6.0,29.0,34.0,36.0,-183.0,-1.0,76.0,-11.0,0.0
0.0,17.0,22.0,40.0,37.0,40.0,-172.0,-6.0,107.0,-59.0,0.0
-22.0,21.0,38.0,32.0,30.0,23.0,-178.0,-18.0,81.0,-82.0,0.0
-53.0,7.0,19.0,28.0,25.0,9.0,-201.0,-23.0,38.0,-75.0,0.0
-50.0,9.0,-66.0,6.0,2.0,19.0,-199.0,-3.0,21.0,-39.0,0.0
-19.0,21.0,-98.0,-20.0,-33.0,6.0,-172.0,11.0,19.0,31.0,0.0
4.0,-4.0,8.0,-14.0,-34.0,-33.0,-194.0,-2.0,-129.0,40.0,0.0
14.0,-23.0,41.0,-7.0,-21.0,-14.0,-148.0,7.0,-94.0,27.0,0.0
18.0,12.0,23.0,-9.0,-12.0,2.0,-114.0,19.0,-8.0,35.0,0.0
37.0,-2.0,29.0,-14.0,-8.0,-9.0,-139.0,0.0,-36.0,32.0,0.0
31.0,-3.0,22.0,-14.0,-8.0,-3.0,-170.0,-8.0,-25.0,10.0,0.0
11.0,-5.0,6.0,-20.0,-9.0,1.0,-200.0,9.0,-5.0,0.0,0.0
-5.0,-3.0,9.0,-20.0,-5.0,-18.0,-225.0,14.0,24.0,-5.0,0.0
-11.0,3.0,22.0,-1.0,3.0,-18.0,-238.0,5.0,46.0,-14.0,0.0
-1.0,-19.0,10.0,11.0,-1.0,-6.0,-269.0,1.0,46.0,-2.0,0.0
17.0,-37.0,3.0,3.0,5.0,-12.0,-276.0,-3.0,35.0,1.0,0.0
19.0,-59.0,-9.0,4.0,8.0,-10.0,-294.0,-8.0,16.0,-27.0,0.0
7.0,-54.0,-10.0,-2.0,14.0,-5.0,-314.0,0.0,12.0,-44.0,0.0
2.0,-39.0,-12.0,0.0,11.0,-11.0,-312.0,10.0,15.0,-43.0,0.0
12.0,-28.0,-4.0,0.0,5.0,-8.0,-296.0,16.0,27.0,-50.0,0.0
9.0,-29.0,0.0,10.0,4.0,-20.0,-281.0,1.0,18.0,-37.0,0.0
-4.0,-35.0,6.0,16.0,2.0,-6.0,-260.0,-1.0,-6.0,-31.0,0.0
-7.0,-29.0,15.0,12.0,13.0,8.0,-220.0,0.0,-9.0,-56.0,0.0
-14.0,-21.0,21.0,24.0,15.0,-8.0,-178.0,0.0,-12.0,-50.0,0.0
21.0,-14.0,6.0,19.0,-1.0,-10.0,-148.0,-4.0,0.0,15.0,0.0
41.0,-10.0,8.0,2.0,-7.0,-22.0,-125.0,0.0,17.0,44.0,0.0
33.0,-1.0,0.0,-2.0,0.0,-38.0,-140.0,-2.0,2.0,48.0,0.0
38.0,-2.0,-36.0,-12.0,-11.0,-43.0,-152.0,-5.0,-5.0,44.0,0.0
34.0,-16.0,-47.0,-7.0,-2.0,-39.0,-177.0,-6.0,5.0,24.0,0.0
15.0,-13.0,-69.0,7.0,9.0,-42.0,-190.0,-1.0,35.0,2.0,0.0
16.0,-13.0,-35.0,2.0,-2.0,-25.0,-207.0,9.0,55.0,-9.0,0.0
14.0,1.0,15.0,1.0,-15.0,-25.0,-209.0,11.0,56.0,4.0,0.0
10.0,13.0,20.0,-2.0,-6.0,-25.0,-231.0,15.0,52.0,10.0,0.0
18.0,-9.0,17.0,1.0,-3.0,-22.0,-224.0,21.0,42.0,24.0,0.0
10.0,-10.0,20.0,8.0,2.0,-8.0,-191.0,26.0,26.0,9.0,0.0
0.0,0.0,29.0,13.0,4.0,-14.0,-171.0,19.0,9.0,-9.0,0.0
0.0,5.0,30.0,13.0,18.0,7.0,-175.0,8.0,-18.0,-21.0,0.0
0.0,19.0,17.0,19.0,4.0,20.0,-78.0,-34.0,-74.0,-29.0,0.0
12.0,25.0,22.0,22.0,-3.0,21.0,-80.0,-44.0,-73.0,-26.0,0.0
15.0,10.0,25.0,24.0,-18.0,20.0,-110.0,-42.0,-74.0,-23.0,0.0
7.0,10.0,18.0,11.0,-32.0,6.0,-142.0,-43.0,-89.0,-22.0,0.0
-9.0,3.0,15.0,7.0,-22.0,15.0,-176.0,-47.0,-95.0,-34.0,0.0
-10.0,13.0,2.0,4.0,-14.0,10.0,-202.0,-42.0,-95.0,-37.0,0.0
-9.0,5.0,-12.0,-4.0,-28.0,-6.0,-215.0,-25.0,-88.0,-19.0,0.0
2.0,11.0,0.0,-19.0,-26.0,-4.0,-254.0,-8.0,-70.0,-3.0,0.0
0.0,-6.0,13.0,-25.0,-22.0,-8.0,-261.0,-9.0,-46.0,-5.0,0.0
1.0,-6.0,-13.0,-25.0,-12.0,4.0,-236.0,0.0,-47.0,-22.0,0.0
4.0,-17.0,-12.0,-8.0,0.0,11.0,-231.0,-17.0,-71.0,-42.0,0.0
0.0,-25.0,7.0,4.0,19.0,20.0,-235.0,-32.0,-100.0,-61.0,0.0
-15.0,-22.0,12.0,12.0,37.0,27.0,-219.0,-40.0,-104.0,-78.0,0.0
-3.0,-14.0,9.0,19.0,36.0,14.0,-178.0,-40.0,-45.0,-47.0,0.0
3.0,5.0,-50.0,8.0,19.0,6.0,-142.0,-24.0,31.0,-13.0,0.0
-1.0,0.0,-66.0,2.0,11.0,13.0,-116.0,-10.0,89.0,-27.0,0.0
17.0,-13.0,-15.0,-1.0,4.0,-5.0,-100.0,11.0,113.0,7.0,0.0
26.0,-5.0,-19.0,-1.0,-13.0,-13.0,-121.0,27.0,119.0,58.0,0.0
13.0,15.0,-11.0,1.0,-12.0,-14.0,-147.0,45.0,94.0,68.0,0.0
0.0,6.0,-2.0,2.0,-7.0,-19.0,-192.0,36.0,55.0,42.0,0.0
-6.0,20.0,-19.0,-7.0,3.0,7.0,-229.0,26.0,27.0,20.0,0.0
5.0,13.0,-104.0,-20.0,31.0,9.0,-257.0,11.0,6.0,7.0,0.0
12.0,19.0,-46.0,-34.0,39.0,5.0,-263.0,-7.0,20.0,-17.0,0.0
10.0,21.0,12.0,-30.0,33.0,5.0,-288.0,-2.0,41.0,-20.0,0.0
-1.0,20.0,5.0,-17.0,32.0,-4.0,-321.0,-2.0,16.0,-33.0,0.0
-10.0,19.0,2.0,-1.0,27.0,-1.0,-318.0,-2.0,-32.0,-49.0,0.0
-18.0,9.0,3.0,-5.0,29.0,-4.0,-308.0,-5.0,-59.0,-62.0,0.0
-1.0,-8.0,-53.0,-2.0,28.0,-9.0,-289.0,-12.0,-67.0,-32.0,0.0
22.0,-23.0,-45.0,-20.0,12.0,-25.0,-250.0,-15.0,-61.0,59.0,0.0
26.0,-42.0,7.0,-25.0,0.0,-34.0,-237.0,-16.0,-169.0,102.0,0.0
4.0,-38.0,7.0,-35.0,2.0,-24.0,-212.0,-34.0,-251.0,54.0,0.0
-1.0,-11.0,14.0,-17.0,-4.0,-16.0,-143.0,-14.0,-111.0,11.0,0.0
26.0,0.0,6.0,-14.0,-20.0,-14.0,-117.0,-6.0,-72.0,2.0,0.0
31.0,12.0,-5.0,-23.0,-23.0,-18.0,-97.0,2.0,-44.0,-1.0,0.0
22.0,39.0,1.0,-9.0,-4.0,0.0,-95.0,-5.0,-15.0,-18.0,0.0
18.0,52.0,0.0,1.0,0.0,3.0,-92.0,-4.0,41.0,-28.0,0.0
12.0,39.0,9.0,4.0,1.0,8.0,-106.0,0.0,112.0,-15.0,0.0
0.0,27.0,-3.0,-2.0,5.0,6.0,-136.0,-3.0,141.0,-11.0,0.0
-32.0,8.0,-18.0,-10.0,9.0,-8.0,-178.0,-4.0,135.0,-36.0,0.0
-45.0,-4.0,-17.0,-13.0,16.0,-3.0,-193.0,0.0,104.0,-44.0,0.0
-63.0,-21.0,-12.0,-12.0,12.0,7.0,-181.0,2.0,88.0,-45.0,0.0
-75.0,-31.0,-70.0,-1.0,22.0,20.0,-193.0,1.0,78.0,-40.0,0.0
-40.0,-12.0,-73.0,-7.0,26.0,24.0,-186.0,5.0,71.0,2.0,0.0
-14.0,12.0,0.0,4.0,23.0,3.0,-171.0,-11.0,36.0,30.0,0.0
-13.0,17.0,-60.0,16.0,21.0,11.0,-150.0,-29.0,1.0,11.0,0.0
5.0,8.0,-143.0,18.0,13.0,14.0,-109.0,-26.0,13.0,3.0,0.0
21.0,18.0,-79.0,10.0,1.0,21.0,-77.0,-9.0,19.0,51.0,0.0
11.0,14.0,-8.0,2.0,-4.0,27.0,-48.0,5.0,22.0,100.0,0.0
-4.0,22.0,25.0,-1.0,3.0,22.0,-38.0,2.0,19.0,70.0,0.0
-12.0,17.0,41.0,-1.0,7.0,3.0,-46.0,-5.0,-11.0,25.0,0.0
-15.0,21.0,42.0,14.0,12.0,10.0,-79.0,-14.0,-38.0,6.0,0.0
-18.0,12.0,31.0,12.0,15.0,8.0,-130.0,-25.0,-95.0,17.0,0.0
-20.0,-34.0,27.0,-8.0,7.0,-25.0,-217.0,-53.0,-229.0,13.0,0.0
-34.0,-27.0,24.0,6.0,9.0,6.0,-211.0,-28.0,-83.0,-9.0,0.0
-48.0,-30.0,15.0,7.0,17.0,30.0,-218.0,-18.0,-58.0,-23.0,0.0
-46.0,-31.0,21.0,-8.0,8.0,23.0,-227.0,-20.0,-54.0,-35.0,0.0
-29.0,-9.0,22.0,-26.0,-10.0,12.0,-239.0,-3.0,-35.0,-45.0,0.0
-17.0,-9.0,19.0,-22.0,-13.0,16.0,-262.0,1.0,-15.0,-39.0,0.0
-27.0,-8.0,19.0,-9.0,1.0,9.0,-287.0,-7.0,4.0,-38.0,0.0
-37.0,-17.0,24.0,-3.0,11.0,3.0,-298.0,-10.0,15.0,-53.0,0.0
-21.0,-1.0,22.0,0.0,9.0,26.0,-294.0,11.0,25.0,-21.0,0.0
-9.0,0.0,25.0,23.0,9.0,18.0,-279.0,25.0,61.0,42.0,0.0
-20.0,-3.0,23.0,10.0,1.0,0.0,-271.0,17.0,74.0,62.0,0.0
-19.0,14.0,0.0,-9.0,-10.0,0.0,-245.0,9.0,77.0,60.0,0.0
-8.0,32.0,-13.0,-18.0,-22.0,-13.0,-245.0,-4.0,51.0,54.0,0.0
1.0,34.0,-18.0,-21.0,-26.0,-28.0,-252.0,-14.0,37.0,38.0,0.0
4.0,21.0,0.0,-7.0,-30.0,-24.0,-250.0,-15.0,42.0,23.0,0.0
1.0,22.0,10.0,-11.0,-37.0,-30.0,-244.0,-17.0,36.0,4.0,0.0
-9.0,5.0,12.0,-19.0,-26.0,-20.0,-260.0,-20.0,4.0,-16.0,0.0
-18.0,7.0,9.0,-11.0,-6.0,-18.0,-313.0,-27.0,-11.0,-28.0,0.0
-9.0,9.0,2.0,-8.0,3.0,0.0,-353.0,-32.0,-29.0,-29.0,0.0
12.0,28.0,6.0,7.0,0.0,-4.0,-384.0,-33.0,-28.0,-30.0,0.0
44.0,62.0,-6.0,7.0,0.0,-2.0,-417.0,-26.0,-2.0,-11.0,0.0
55.0,68.0,-59.0,-8.0,6.0,1.0,-406.0,-13.0,23.0,2.0,0.0
40.0,46.0,-29.0,-18.0,-3.0,-4.0,-392.0,-1.0,0.0,-2.0,0.0
18.0,24.0,10.0,-12.0,-8.0,-3.0,-373.0,-1.0,-31.0,-7.0,0.0
6.0,30.0,24.0,1.0,-4.0,2.0,-353.0,25.0,-21.0,0.0,0.0
17.0,25.0,13.0,7.0,7.0,6.0,-329.0,50.0,29.0,13.0,0.0
18.0,-13.0,4.0,10.0,4.0,2.0,-278.0,64.0,101.0,29.0,0.0
-2.0,-53.0,6.0,21.0,-3.0,-8.0,-248.0,40.0,110.0,18.0,0.0
-19.0,-60.0,-4.0,12.0,-7.0,-1.0,-233.0,6.0,73.0,16.0,0.0
-19.0,-51.0,-12.0,24.0,-12.0,-2.0,-203.0,3.0,38.0,17.0,0.0
-25.0,-58.0,-54.0,15.0,-8.0,-15.0,-224.0,0.0,-71.0,5.0,0.0
-24.0,-63.0,-46.0,7.0,-10.0,-22.0,-224.0,-14.0,-195.0,-2.0,0.0
-38.0,-29.0,4.0,16.0,-8.0,-11.0,-148.0,10.0,-60.0,-12.0,0.0
-45.0,-22.0,-88.0,6.0,-5.0,-7.0,-149.0,-1.0,-58.0,-13.0,0.0
-27.0,-1.0,-168.0,5.0,-7.0,-2.0,-152.0,-20.0,-62.0,-1.0,0.0
-10.0,-2.0,-163.0,3.0,-11.0,-8.0,-139.0,-28.0,-62.0,15.0,0.0
-2.0,10.0,-146.0,1.0,-13.0,-8.0,-134.0,-18.0,-50.0,29.0,0.0
6.0,-9.0,-112.0,-1.0,-12.0,-23.0,-142.0,-10.0,-36.0,23.0,0.0
5.0,-22.0,-10.0,-4.0,-13.0,-12.0,-171.0,-20.0,-57.0,8.0,0.0
16.0,-30.0,-4.0,-9.0,-18.0,-26.0,-170.0,-24.0,-58.0,19.0,0.0
29.0,-11.0,40.0,-4.0,0.0,-18.0,-138.0,-17.0,-32.0,51.0,0.0
40.0,-2.0,10.0,-9.0,0.0,-23.0,-112.0,-17.0,7.0,86.0,0.0
21.0,-17.0,-66.0,-16.0,3.0,0.0,-83.0,-15.0,20.0,61.0,0.0
-3.0,-12.0,-25.0,-6.0,11.0,8.0,-29.0,-4.0,10.0,14.0,0.0
-14.0,-7.0,28.0,-2.0,10.0,18.0,19.0,-12.0,18.0,-23.0,0.0
-16.0,-5.0,-29.0,5.0,13.0,36.0,31.0,-10.0,-22.0,-46.0,0.0
-13.0,-12.0,22.0,0.0,17.0,31.0,51.0,0.0,-47.0,-52.0,0.0
-20.0,-11.0,80.0,4.0,18.0,24.0,80.0,2.0,-39.0,-60.0,0.0
-7.0,-2.0,92.0,16.0,18.0,35.0,104.0,9.0,-16.0,-64.0,0.0
0.0,11.0,96.0,0.0,15.0,38.0,108.0,14.0,-9.0,-61.0,0.0
-13.0,-25.0,83.0,-5.0,9.0,10.0,54.0,-21.0,-162.0,-86.0,0.0
-25.0,-9.0,55.0,-7.0,5.0,11.0,76.0,-9.0,-83.0,-76.0,0.0
-11.0,-10.0,46.0,-1.0,6.0,18.0,107.0,27.0,42.0,0.0,0.0
-12.0,-13.0,49.0,-3.0,-5.0,18.0,103.0,34.0,32.0,61.0,0.0
-26.0,-21.0,52.0,-19.0,-6.0,5.0,113.0,36.0,19.0,53.0,0.0
-20.0,-37.0,55.0,-32.0,-15.0,-21.0,89.0,25.0,-112.0,51.0,0.0
2.0,-7.0,47.0,-18.0,-21.0,-4.0,134.0,45.0,35.0,77.0,0.0
-15.0,25.0,45.0,-3.0,-13.0,-6.0,141.0,38.0,130.0,77.0,0.0
-30.0,23.0,56.0,1.0,-6.0,6.0,140.0,7.0,90.0,44.0,0.0
-23.0,28.0,59.0,-4.0,-13.0,14.0,165.0,10.0,49.0,11.0,0.0
-12.0,13.0,44.0,-20.0,-13.0,-2.0,195.0,4.0,53.0,0.0,0.0
-23.0,3.0,32.0,-18.0,-16.0,2.0,218.0,15.0,59.0,0.0,0.0
-34.0,-11.0,-4.0,-23.0,-24.0,9.0,241.0,33.0,25.0,-16.0,0.0
-13.0,-12.0,-55.0,-21.0,-28.0,3.0,256.0,30.0,3.0,-24.0,0.0
17.0,13.0,1.0,-4.0,-19.0,15.0,267.0,9.0,14.0,8.0,0.0
26.0,45.0,38.0,-1.0,-8.0,15.0,252.0,3.0,50.0,35.0,0.0
13.0,21.0,4.0,-10.0,-9.0,1.0,219.0,-2.0,33.0,2.0,0.0
10.0,18.0,-12.0,-17.0,-8.0,8.0,205.0,-11.0,-8.0,-27.0,0.0
14.0,8.0,22.0,-7.0,-11.0,5.0,178.0,-18.0,-8.0,-35.0,0.0
15.0,6.0,28.0,-7.0,-7.0,-11.0,144.0,-10.0,5.0,-19.0,0.0
9.0,7.0,19.0,0.0,-3.0,3.0,144.0,4.0,11.0,8.0,0.0
8.0,16.0,20.0,7.0,-4.0,16.0,133.0,15.0,29.0,10.0,0.0
22.0,24.0,14.0,12.0,-11.0,7.0,119.0,7.0,56.0,-9.0,0.0
8.0,12.0,7.0,21.0,-2.0,3.0,106.0,0.0,34.0,-20.0,0.0
-14.0,14.0,4.0,22.0,6.0,9.0,112.0,8.0,-7.0,-28.0,0.0
-10.0,-10.0,13.0,11.0,13.0,-2.0,133.0,-8.0,-102.0,-37.0,0.0
-11.0,-19.0,30.0,5.0,15.0,-3.0,156.0,-22.0,-178.0,-64.0,0.0
-2.0,9.0,17.0,26.0,18.0,31.0,242.0,-7.0,-20.0,-38.0,0.0
0.0,-1.0,-5.0,30.0,17.0,31.0,250.0,-35.0,-14.0,-22.0,0.0
6.0,2.0,22.0,21.0,14.0,24.0,248.0,-43.0,-19.0,-25.0,0.0
17.0,7.0,-1.0,-12.0,-4.0,19.0,246.0,-19.0,28.0,-37.0,0.0
23.0,22.0,-85.0,-18.0,-11.0,24.0,240.0,-4.0,29.0,-50.0,0.0
32.0,21.0,-72.0,0.0,4.0,36.0,228.0,-4.0,25.0,-33.0,0.0
12.0,10.0,29.0,9.0,7.0,37.0,210.0,8.0,46.0,38.0,0.0
-13.0,-6.0,10.0,6.0,0.0,31.0,168.0,17.0,50.0,104.0,0.0
-34.0,-15.0,4.0,10.0,2.0,17.0,120.0,4.0,5.0,49.0,0.0
-38.0,-14.0,26.0,9.0,16.0,9.0,113.0,-2.0,-11.0,-15.0,0.0
-44.0,-15.0,17.0,6.0,14.0,14.0,106.0,-5.0,-14.0,-19.0,0.0
-46.0,-22.0,13.0,-2.0,13.0,7.0,90.0,1.0,26.0,-15.0,0.0
-31.0,-11.0,12.0,-1.0,-4.0,1.0,104.0,12.0,57.0,-16.0,0.0
-12.0,-10.0,-6.0,2.0,-21.0,4.0,110.0,15.0,66.0,-13.0,0.0
0.0,-2.0,-17.0,4.0,-28.0,6.0,95.0,4.0,10.0,-11.0,0.0
16.0,-16.0,-8.0,1.0,-22.0,-20.0,46.0,-8.0,-139.0,-4.0,0.0
23.0,0.0,14.0,3.0,-19.0,-26.0,44.0,-9.0,-147.0,-6.0,0.0
36.0,32.0,20.0,11.0,-10.0,-7.0,113.0,13.0,30.0,-5.0,0.0
38.0,25.0,27.0,4.0,-1.0,1.0,147.0,22.0,57.0,2.0,0.0
42.0,32.0,23.0,0.0,-1.0,-5.0,187.0,23.0,49.0,14.0,0.0
44.0,21.0,7.0,-1.0,-1.0,-5.0,224.0,23.0,63.0,21.0,0.0
36.0,29.0,-95.0,-6.0,-1.0,3.0,235.0,23.0,62.0,10.0,0.0
27.0,44.0,-82.0,-17.0,5.0,6.0,212.0,24.0,42.0,7.0,0.0
13.0,13.0,11.0,-12.0,3.0,11.0,173.0,18.0,37.0,-10.0,0.0
-1.0,1.0,26.0,0.0,16.0,22.0,140.0,8.0,80.0,-30.0,0.0
-13.0,-7.0,29.0,6.0,22.0,28.0,119.0,6.0,139.0,-63.0,0.0
-7.0,-11.0,24.0,9.0,27.0,31.0,117.0,-1.0,155.0,-70.0,0.0
9.0,0.0,16.0,1.0,22.0,21.0,129.0,-6.0,114.0,-67.0,0.0
29.0,2.0,17.0,-5.0,14.0,-2.0,151.0,6.0,46.0,-74.0,0.0
37.0,11.0,14.0,-5.0,23.0,-5.0,134.0,18.0,-4.0,-70.0,0.0
33.0,-4.0,9.0,-1.0,15.0,-2.0,135.0,26.0,-13.0,-66.0,0.0
21.0,7.0,18.0,13.0,21.0,-15.0,145.0,17.0,-49.0,-57.0,0.0
-27.0,4.0,30.0,18.0,23.0,-12.0,149.0,4.0,-122.0,-88.0,0.0
-83.0,-26.0,20.0,22.0,23.0,14.0,173.0,-14.0,-167.0,-125.0,0.0
-108.0,-51.0,18.0,22.0,28.0,16.0,204.0,-27.0,-183.0,-123.0,0.0
-52.0,-29.0,24.0,0.0,14.0,-11.0,246.0,-31.0,-118.0,-28.0,0.0
-1.0,-38.0,18.0,-20.0,4.0,-15.0,313.0,-13.0,-25.0,106.0,0.0
-5.0,-47.0,17.0,-22.0,0.0,-6.0,353.0,21.0,45.0,167.0,0.0
-12.0,-29.0,23.0,-17.0,0.0,-14.0,331.0,35.0,78.0,156.0,0.0
-9.0,-4.0,33.0,-4.0,-6.0,-24.0,290.0,33.0,61.0,114.0,0.0
-5.0,2.0,26.0,-11.0,-7.0,-20.0,244.0,34.0,30.0,60.0,0.0
13.0,-1.0,18.0,-9.0,-5.0,-25.0,183.0,24.0,-14.0,15.0,0.0
11.0,3.0,-30.0,-9.0,1.0,-17.0,157.0,11.0,-31.0,-9.0,0.0
-7.0,0.0,-135.0,-25.0,5.0,-13.0,166.0,15.0,-10.0,-8.0,0.0
-10.0,12.0,-70.0,-24.0,6.0,-12.0,156.0,24.0,5.0,4.0,0.0
4.0,10.0,20.0,-1.0,5.0,10.0,151.0,32.0,20.0,30.0,0.0
-10.0,18.0,18.0,11.0,19.0,18.0,176.0,31.0,29.0,30.0,0.0
-26.0,-6.0,10.0,6.0,18.0,-12.0,188.0,23.0,25.0,16.0,0.0
-23.0,-16.0,8.0,12.0,8.0,-20.0,187.0,9.0,39.0,21.0,0.0
-26.0,-27.0,6.0,7.0,1.0,-16.0,166.0,4.0,36.0,10.0,0.0
-36.0,-26.0,3.0,-4.0,-2.0,-20.0,157.0,1.0,19.0,-5.0,0.0
-41.0,-23.0,7.0,-6.0,-4.0,-8.0,163.0,-1.0,1.0,-7.0,0.0
-43.0,-22.0,7.0,5.0,-7.0,-6.0,199.0,-6.0,-19.0,-16.0,0.0
-35.0,1.0,0.0,14.0,9.0,3.0,227.0,-9.0,-20.0,-29.0,0.0
-29.0,-1.0,-19.0,21.0,20.0,21.0,216.0,-19.0,-40.0,-40.0,0.0
-15.0,-5.0,5.0,11.0,13.0,30.0,198.0,-18.0,-7.0,-42.0,0.0
-4.0,-16.0,12.0,4.0,3.0,21.0,170.0,-9.0,5.0,-45.0,0.0
4.0,-10.0,9.0,-4.0,11.0,5.0,130.0,-13.0,-4.0,-55.0,0.0
20.0,7.0,5.0,-6.0,7.0,0.0,106.0,-5.0,-21.0,-27.0,0.0
42.0,12.0,16.0,-3.0,-4.0,-6.0,101.0,4.0,-24.0,10.0,0.0
47.0,14.0,26.0,-16.0,-8.0,-20.0,88.0,5.0,-21.0,5.0,0.0
24.0,17.0,30.0,-20.0,-7.0,-28.0,52.0,4.0,-37.0,3.0,0.0
21.0,17.0,28.0,-13.0,0.0,-30.0,42.0,-5.0,-53.0,25.0,0.0
24.0,30.0,22.0,2.0,2.0,-28.0,45.0,-12.0,-44.0,30.0,0.0
23.0,31.0,17.0,12.0,-8.0,-15.0,53.0,-17.0,-31.0,23.0,0.0
29.0,37.0,-11.0,4.0,-12.0,-22.0,85.0,-11.0,-24.0,45.0,0.0
33.0,46.0,-102.0,-12.0,-8.0,-3.0,92.0,-10.0,-18.0,38.0,0.0
37.0,42.0,-46.0,-8.0,-3.0,3.0,111.0,-15.0,-44.0,13.0,0.0
43.0,48.0,31.0,-1.0,0.0,-4.0,147.0,-25.0,-64.0,-4.0,0.0
37.0,33.0,34.0,4.0,7.0,11.0,175.0,-16.0,-49.0,-7.0,0.0
15.0,-8.0,36.0,4.0,8.0,17.0,179.0,-10.0,-28.0,0.0,0.0
1.0,-27.0,10.0,-1.0,2.0,8.0,148.0,-13.0,-2.0,-3.0,0.0
-25.0,-39.0,0.0,-5.0,-3.0,9.0,100.0,-6.0,-6.0,-2.0,0.0
-31.0,-40.0,1.0,-13.0,0.0,6.0,72.0,-6.0,-15.0,10.0,0.0
-16.0,-37.0,-17.0,-11.0,-1.0,0.0,57.0,-3.0,-18.0,12.0,0.0
-5.0,-29.0,-102.0,-3.0,1.0,4.0,14.0,3.0,-33.0,8.0,0.0
-13.0,-20.0,-33.0,-5.0,7.0,5.0,-39.0,-7.0,-46.0,0.0,0.0
-19.0,-26.0,11.0,-8.0,-2.0,-12.0,-55.0,-21.0,-44.0,0.0,0.0
-27.0,-29.0,-23.0,-20.0,-25.0,-23.0,-50.0,-26.0,-55.0,-1.0,0.0
-22.0,-26.0,13.0,-24.0,-21.0,-32.0,-41.0,-11.0,-38.0,5.0,0.0
1.0,-13.0,19.0,-11.0,-11.0,-26.0,-32.0,5.0,22.0,30.0,0.0
20.0,10.0,22.0,8.0,-4.0,0.0,-17.0,16.0,79.0,47.0,0.0
10.0,6.0,38.0,3.0,-7.0,-7.0,-4.0,20.0,153.0,48.0,0.0
-1.0,16.0,49.0,5.0,-19.0,2.0,0.0,26.0,174.0,35.0,0.0
-8.0,15.0,46.0,12.0,-18.0,12.0,18.0,27.0,121.0,22.0,0.0
-17.0,26.0,29.0,14.0,-11.0,3.0,10.0,24.0,54.0,5.0,0.0
-12.0,40.0,29.0,2.0,-10.0,-4.0,14.0,31.0,35.0,17.0,0.0
-6.0,13.0,27.0,3.0,-12.0,-4.0,5.0,26.0,4.0,37.0,0.0
-11.0,12.0,-22.0,10.0,-18.0,-7.0,-25.0,19.0,-17.0,25.0,0.0
-15.0,20.0,17.0,-2.0,-27.0,-4.0,-45.0,9.0,-33.0,7.0,0.0
-10.0,32.0,47.0,-7.0,-19.0,-4.0,-65.0,-6.0,-78.0,-16.0,0.0
-14.0,39.0,45.0,11.0,-15.0,5.0,-76.0,-24.0,-129.0,-42.0,0.0
11.0,34.0,33.0,13.0,-6.0,12.0,-42.0,-17.0,-96.0,-32.0,0.0
53.0,43.0,40.0,11.0,-4.0,0.0,2.0,-16.0,-29.0,23.0,0.0
64.0,44.0,41.0,7.0,-4.0,-13.0,40.0,-14.0,9.0,43.0,0.0
48.0,13.0,22.0,-5.0,-9.0,-2.0,72.0,-3.0,42.0,27.0,0.0
38.0,13.0,31.0,7.0,-16.0,0.0,99.0,-3.0,42.0,9.0,0.0
0.0,1.0,31.0,11.0,-20.0,-6.0,102.0,-27.0,6.0,-9.0,0.0
-40.0,-33.0,33.0,8.0,-26.0,-9.0,105.0,-38.0,-13.0,-31.0,0.0
-45.0,-37.0,30.0,-2.0,-31.0,-21.0,127.0,-33.0,1.0,-14.0,0.0
-43.0,-20.0,-2.0,-6.0,-33.0,-9.0,136.0,-4.0,3.0,0.0,0.0
-42.0,-24.0,-24.0,4.0,-25.0,3.0,163.0,11.0,-1.0,-4.0,0.0
-40.0,-30.0,7.0,16.0,-9.0,9.0,197.0,15.0,-14.0,-32.0,0.0
-15.0,-17.0,13.0,13.0,7.0,15.0,234.0,2.0,-15.0,-45.0,0.0
26.0,9.0,17.0,-4.0,1.0,0.0,226.0,4.0,-24.0,-17.0,0.0
60.0,10.0,19.0,-22.0,-9.0,-18.0,222.0,14.0,4.0,61.0,0.0
86.0,8.0,17.0,-27.0,-18.0,-18.0,209.0,13.0,26.0,112.0,0.0
67.0,23.0,15.0,-13.0,-8.0,-24.0,161.0,7.0,20.0,91.0,0.0
53.0,0.0,9.0,-6.0,-9.0,-11.0,122.0,-2.0,-3.0,47.0,0.0
64.0,-6.0,5.0,-2.0,-6.0,-16.0,102.0,-4.0,-7.0,35.0,0.0
59.0,-15.0,3.0,0.0,-8.0,-15.0,112.0,0.0,-24.0,50.0,0.0
24.0,-29.0,7.0,-3.0,5.0,-2.0,99.0,9.0,-41.0,64.0,0.0
-7.0,-31.0,10.0,0.0,5.0,-13.0,82.0,6.0,-62.0,23.0,0.0
-60.0,-26.0,5.0,12.0,13.0,-8.0,93.0,-14.0,-63.0,-28.0,0.0
-60.0,0.0,-11.0,20.0,20.0,-12.0,105.0,-18.0,-46.0,-45.0,0.0
-36.0,11.0,2.0,10.0,21.0,4.0,118.0,-19.0,-28.0,-34.0,0.0
-28.0,6.0,5.0,4.0,16.0,3.0,135.0,-22.0,5.0,-51.0,0.0
-32.0,0.0,0.0,27.0,22.0,-2.0,159.0,-18.0,13.0,-78.0,0.0
-22.0,-5.0,-10.0,20.0,30.0,4.0,182.0,-10.0,-4.0,-94.0,0.0
2.0,13.0,-29.0,14.0,28.0,0.0,225.0,-16.0,21.0,-67.0,0.0
12.0,5.0,-40.0,17.0,21.0,-4.0,230.0,-12.0,55.0,-47.0,0.0
13.0,0.0,-39.0,37.0,18.0,2.0,211.0,-10.0,59.0,-31.0,0.0
-7.0,-6.0,-38.0,27.0,14.0,0.0,177.0,-1.0,26.0,-31.0,0.0
-24.0,19.0,-29.0,12.0,15.0,13.0,112.0,7.0,-6.0,-38.0,0.0
-14.0,24.0,-19.0,-7.0,-12.0,0.0,77.0,14.0,-29.0,-35.0,0.0
-2.0,24.0,-8.0,-28.0,-48.0,-23.0,78.0,28.0,-9.0,16.0,0.0
5.0,27.0,2.0,-29.0,-45.0,-31.0,79.0,9.0,20.0,47.0,0.0
1.0,11.0,9.0,-12.0,-30.0,-28.0,78.0,-9.0,8.0,35.0,0.0
-9.0,19.0,-1.0,9.0,-16.0,-27.0,73.0,-15.0,-19.0,28.0,0.0
-7.0,20.0,-10.0,9.0,-11.0,-27.0,87.0,-23.0,-41.0,18.0,0.0
23.0,2.0,-11.0,6.0,-14.0,-34.0,109.0,-25.0,-52.0,6.0,0.0
26.0,-12.0,-20.0,7.0,-21.0,-29.0,136.0,-19.0,-43.0,16.0,0.0
28.0,-27.0,-18.0,-4.0,-26.0,-14.0,175.0,6.0,-23.0,27.0,0.0
19.0,-18.0,-10.0,-4.0,-20.0,-4.0,194.0,10.0,-4.0,48.0,0.0
18.0,-20.0,-19.0,-9.0,-14.0,0.0,213.0,-11.0,44.0,59.0,0.0
6.0,-22.0,-16.0,2.0,6.0,8.0,269.0,-22.0,39.0,39.0,0.0
-19.0,-31.0,-16.0,11.0,17.0,24.0,314.0,-16.0,10.0,20.0,0.0
-21.0,-25.0,-12.0,5.0,4.0,8.0,325.0,0.0,19.0,24.0,0.0
-8.0,9.0,-8.0,4.0,-3.0,3.0,306.0,5.0,42.0,35.0,0.0
32.0,23.0,-5.0,5.0,-2.0,6.0,264.0,-3.0,47.0,36.0,0.0
52.0,23.0,-3.0,7.0,4.0,7.0,219.0,-5.0,34.0,30.0,0.0
37.0,25.0,-2.0,11.0,12.0,13.0,203.0,-13.0,45.0,4.0,0.0
38.0,15.0,-6.0,14.0,25.0,3.0,174.0,-14.0,47.0,-9.0,0.0
41.0,15.0,-3.0,5.0,16.0,2.0,150.0,-10.0,71.0,7.0,0.0
26.0,1.0,-10.0,3.0,6.0,0.0,138.0,-7.0,75.0,23.0,0.0
-1.0,-44.0,-34.0,6.0,9.0,-5.0,130.0,5.0,40.0,-5.0,0.0
-26.0,-68.0,-116.0,13.0,-4.0,3.0,133.0,8.0,-24.0,-32.0,0.0
-5.0,-71.0,-152.0,7.0,0.0,8.0,130.0,14.0,-39.0,-25.0,0.0
10.0,-37.0,-46.0,0.0,5.0,4.0,124.0,21.0,-24.0,-20.0,0.0
20.0,-23.0,-1.0,0.0,-6.0,18.0,137.0,23.0,-1.0,-30.0,0.0
19.0,-21.0,3.0,11.0,-5.0,11.0,149.0,20.0,52.0,-21.0,0.0
8.0,-23.0,13.0,9.0,-1.0,0.0,163.0,16.0,73.0,-7.0,0.0
21.0,-18.0,20.0,11.0,-12.0,2.0,172.0,12.0,60.0,6.0,0.0
21.0,-34.0,6.0,-10.0,-10.0,-21.0,125.0,-7.0,-148.0,-11.0,0.0
20.0,-20.0,1.0,-8.0,2.0,-6.0,122.0,9.0,-84.0,-18.0,0.0
25.0,0.0,-9.0,6.0,17.0,7.0,115.0,20.0,18.0,-7.0,0.0
32.0,5.0,1.0,0.0,23.0,6.0,104.0,14.0,9.0,-4.0,0.0
16.0,9.0,-27.0,4.0,20.0,11.0,85.0,13.0,9.0,-21.0,0.0
14.0,2.0,-94.0,14.0,2.0,-1.0,55.0,8.0,-21.0,-21.0,0.0
17.0,-6.0,-77.0,13.0,-1.0,5.0,18.0,9.0,-66.0,-21.0,0.0
10.0,-6.0,-35.0,7.0,2.0,6.0,-14.0,12.0,-83.0,-31.0,0.0
2.0,3.0,8.0,1.0,-2.0,-6.0,-41.0,12.0,-52.0,-33.0,0.0
23.0,-5.0,-70.0,-2.0,8.0,2.0,-39.0,5.0,-21.0,-28.0,0.0
34.0,-4.0,-24.0,0.0,17.0,-2.0,-27.0,6.0,-30.0,-43.0,0.0
32.0,9.0,30.0,1.0,28.0,20.0,-35.0,0.0,-47.0,-49.0,0.0
49.0,32.0,40.0,6.0,31.0,29.0,-22.0,-12.0,-55.0,-42.0,0.0
61.0,42.0,45.0,-5.0,21.0,4.0,5.0,-19.0,-39.0,-39.0,0.0
62.0,58.0,5.0,-8.0,-3.0,0.0,15.0,-25.0,-35.0,-37.0,0.0
38.0,53.0,-70.0,-6.0,-11.0,14.0,19.0,-20.0,-38.0,-49.0,0.0
25.0,30.0,2.0,-1.0,-4.0,3.0,20.0,-17.0,-38.0,-63.0,0.0
23.0,14.0,39.0,0.0,-12.0,9.0,19.0,-7.0,-29.0,-44.0,0.0
-9.0,3.0,40.0,0.0,-25.0,-3.0,-4.0,3.0,-18.0,-31.0,0.0
-60.0,-17.0,46.0,-1.0,-28.0,-16.0,-79.0,-3.0,-10.0,-56.0,0.0
-78.0,-32.0,31.0,-1.0,-30.0,-11.0,-133.0,9.0,33.0,-28.0,0.0
-48.0,-29.0,17.0,3.0,-18.0,-12.0,-119.0,19.0,125.0,103.0,0.0
-15.0,-28.0,8.0,4.0,-16.0,0.0,-123.0,38.0,198.0,180.0,0.0
10.0,-3.0,-69.0,-7.0,-25.0,-2.0,-149.0,50.0,210.0,148.0,0.0
32.0,10.0,-145.0,-6.0,-16.0,6.0,-186.0,55.0,147.0,101.0,0.0
44.0,12.0,-134.0,-5.0,-14.0,23.0,-206.0,71.0,72.0,84.0,0.0
49.0,-34.0,-56.0,-17.0,-11.0,-7.0,-258.0,56.0,-126.0,75.0,0.0
52.0,7.0,30.0,-13.0,-13.0,2.0,-224.0,47.0,-45.0,62.0,0.0
40.0,37.0,43.0,-1.0,-13.0,37.0,-195.0,37.0,33.0,43.0,0.0
17.0,42.0,13.0,17.0,-6.0,40.0,-200.0,2.0,-5.0,7.0,0.0
-14.0,33.0,49.0,13.0,-6.0,15.0,-193.0,-19.0,-24.0,0.0,0.0
-32.0,-10.0,61.0,14.0,-10.0,10.0,-180.0,-18.0,-17.0,8.0,0.0
-22.0,-31.0,35.0,0.0,-27.0,6.0,-142.0,-13.0,-28.0,37.0,0.0
-11.0,-61.0,21.0,-28.0,-28.0,-28.0,-170.0,-33.0,-184.0,35.0,0.0
-12.0,-46.0,13.0,-28.0,-22.0,-9.0,-153.0,-17.0,-101.0,28.0,0.0
6.0,-31.0,1.0,-11.0,-13.0,24.0,-121.0,11.0,44.0,34.0,0.0
10.0,-20.0,3.0,-10.0,0.0,25.0,-131.0,12.0,51.0,36.0,0.0
-20.0,1.0,13.0,-4.0,17.0,12.0,-150.0,5.0,36.0,26.0,0.0
2.0,4.0,21.0,-10.0,22.0,20.0,-133.0,-3.0,52.0,21.0,0.0
14.0,20.0,32.0,-5.0,32.0,18.0,-153.0,-4.0,42.0,0.0,0.0
-2.0,2.0,26.0,-5.0,42.0,17.0,-193.0,-13.0,0.0,-28.0,0.0
-16.0,3.0,34.0,-4.0,38.0,23.0,-217.0,-15.0,-31.0,-57.0,0.0
-23.0,7.0,34.0,0.0,27.0,35.0,-184.0,-23.0,-54.0,-51.0,0.0
-13.0,21.0,21.0,5.0,17.0,35.0,-152.0,-47.0,-73.0,-27.0,0.0
-31.0,11.0,5.0,15.0,23.0,30.0,-135.0,-48.0,-73.0,-32.0,0.0
-34.0,14.0,-42.0,18.0,18.0,23.0,-98.0,-21.0,-47.0,-51.0,0.0
-20.0,25.0,-2.0,8.0,4.0,14.0,-52.0,-21.0,-26.0,-60.0,0.0
-20.0,16.0,30.0,12.0,-9.0,8.0,-9.0,-19.0,-3.0,-54.0,0.0
-6.0,19.0,19.0,-1.0,-18.0,-1.0,38.0,-9.0,46.0,-28.0,0.0
-6.0,9.0,25.0,-13.0,-18.0,-6.0,64.0,5.0,102.0,0.0,0.0
-9.0,16.0,11.0,-8.0,-4.0,3.0,80.0,3.0,119.0,10.0,0.0
-19.0,4.0,-44.0,-4.0,-3.0,10.0,78.0,12.0,86.0,-3.0,0.0
-34.0,-21.0,-49.0,-8.0,-7.0,7.0,39.0,24.0,47.0,-19.0,0.0
-45.0,-35.0,-44.0,0.0,-1.0,9.0,13.0,35.0,19.0,-26.0,0.0
-45.0,-32.0,-131.0,-2.0,-9.0,13.0,-13.0,42.0,-25.0,-35.0,0.0
-43.0,-26.0,-57.0,-6.0,-14.0,8.0,-17.0,42.0,-54.0,-36.0,0.0
-20.0,-25.0,31.0,-9.0,-16.0,-2.0,-20.0,28.0,-33.0,9.0,0.0
5.0,-21.0,44.0,-9.0,-19.0,-5.0,-7.0,8.0,-3.0,54.0,0.0
2.0,-34.0,47.0,-4.0,-29.0,1.0,-2.0,-2.0,13.0,47.0,0.0
-1.0,-30.0,40.0,-7.0,-27.0,-6.0,13.0,7.0,38.0,27.0,0.0
-3.0,-27.0,17.0,-24.0,-14.0,-5.0,14.0,13.0,76.0,5.0,0.0
-8.0,-42.0,-1.0,-35.0,-10.0,4.0,28.0,25.0,92.0,1.0,0.0
-4.0,-41.0,1.0,-28.0,2.0,1.0,45.0,44.0,92.0,21.0,0.0
15.0,-15.0,22.0,-12.0,19.0,-2.0,62.0,37.0,65.0,28.0,0.0
24.0,-6.0,26.0,6.0,22.0,-1.0,86.0,23.0,36.0,-1.0,0.0
18.0,-5.0,29.0,12.0,21.0,5.0,112.0,14.0,-6.0,-32.0,0.0
1.0,-6.0,18.0,19.0,23.0,10.0,127.0,4.0,-33.0,-38.0,0.0
13.0,-7.0,9.0,25.0,24.0,6.0,124.0,-11.0,-24.0,-13.0,0.0
19.0,-10.0,3.0,11.0,6.0,-11.0,60.0,-40.0,-129.0,14.0,0.0
1.0,-18.0,8.0,17.0,-2.0,-6.0,22.0,-39.0,-100.0,12.0,0.0
-13.0,-3.0,4.0,20.0,-9.0,-3.0,28.0,-11.0,-18.0,-13.0,0.0
-29.0,-7.0,1.0,20.0,0.0,-4.0,-30.0,-11.0,-46.0,-44.0,0.0
-5.0,2.0,-2.0,19.0,0.0,13.0,-77.0,-5.0,-57.0,-45.0,0.0
0.0,1.0,-92.0,-4.0,-9.0,-1.0,-102.0,5.0,-33.0,-38.0,0.0
-5.0,-2.0,-70.0,-2.0,0.0,-24.0,-102.0,17.0,-1.0,-48.0,0.0
-13.0,-1.0,12.0,3.0,-9.0,-21.0,-105.0,11.0,-9.0,-77.0,0.0
-10.0,11.0,9.0,10.0,-17.0,-28.0,-115.0,1.0,-31.0,-81.0,0.0
9.0,34.0,-5.0,7.0,-18.0,-25.0,-94.0,-14.0,-31.0,-75.0,0.0
25.0,29.0,-57.0,13.0,-15.0,-24.0,-53.0,-10.0,-22.0,-66.0,0.0
41.0,39.0,-134.0,6.0,-19.0,-35.0,-18.0,-8.0,-10.0,-67.0,0.0
52.0,38.0,-106.0,-9.0,-16.0,-19.0,24.0,-9.0,0.0,-57.0,0.0
67.0,41.0,-99.0,-8.0,-21.0,-27.0,59.0,-6.0,2.0,-39.0,0.0
54.0,30.0,-4.0,-17.0,-19.0,-19.0,88.0,1.0,16.0,-23.0,0.0
56.0,26.0,24.0,-15.0,-17.0,-20.0,118.0,-7.0,44.0,2.0,0.0
63.0,38.0,24.0,4.0,-15.0,-7.0,118.0,6.0,52.0,68.0,0.0
54.0,22.0,28.0,6.0,-17.0,5.0,111.0,13.0,71.0,94.0,0.0
25.0,15.0,20.0,1.0,-8.0,-5.0,80.0,14.0,81.0,80.0,0.0
-22.0,0.0,21.0,3.0,3.0,-10.0,24.0,8.0,77.0,29.0,0.0
-66.0,-8.0,38.0,10.0,8.0,-14.0,-18.0,0.0,74.0,-14.0,0.0
-83.0,-19.0,26.0,7.0,15.0,3.0,-49.0,-3.0,76.0,-39.0,0.0
-80.0,-31.0,12.0,6.0,18.0,25.0,-76.0,-8.0,85.0,-48.0,0.0
-65.0,-31.0,12.0,5.0,18.0,19.0,-83.0,-10.0,76.0,-39.0,0.0
-76.0,-23.0,9.0,11.0,15.0,2.0,-107.0,-11.0,43.0,-48.0,0.0
-78.0,-27.0,3.0,2.0,25.0,7.0,-112.0,4.0,0.0,-43.0,0.0
-59.0,-19.0,15.0,1.0,26.0,7.0,-82.0,13.0,-9.0,-18.0,0.0
-27.0,-13.0,21.0,8.0,20.0,-4.0,-56.0,6.0,-10.0,-5.0,0.0
-14.0,-10.0,19.0,4.0,14.0,4.0,-52.0,-6.0,-29.0,12.0,0.0
-5.0,-8.0,19.0,-3.0,19.0,9.0,-52.0,-25.0,-66.0,7.0,0.0
-4.0,-9.0,16.0,-15.0,13.0,-2.0,-43.0,-38.0,-86.0,6.0,0.0
-6.0,-5.0,7.0,-20.0,-1.0,0.0,-14.0,-40.0,-87.0,11.0,0.0
-13.0,-15.0,8.0,-31.0,1.0,-12.0,-34.0,-52.0,-135.0,2.0,0.0
-23.0,-50.0,8.0,-44.0,7.0,-34.0,-109.0,-64.0,-261.0,-16.0,0.0
-16.0,-38.0,0.0,-23.0,11.0,6.0,-81.0,-25.0,-51.0,-1.0,0.0
-6.0,-11.0,-2.0,-7.0,13.0,19.0,-93.0,-10.0,47.0,10.0,0.0
16.0,12.0,-47.0,-5.0,2.0,7.0,-114.0,-8.0,99.0,12.0,0.0
29.0,33.0,-9.0,-8.0,3.0,6.0,-139.0,1.0,97.0,18.0,0.0
32.0,31.0,15.0,-13.0,0.0,-6.0,-140.0,14.0,85.0,21.0,0.0
38.0,46.0,-21.0,-14.0,-3.0,-22.0,-138.0,9.0,67.0,36.0,0.0
38.0,35.0,23.0,-3.0,-7.0,-11.0,-129.0,2.0,64.0,31.0,0.0
36.0,45.0,31.0,-5.0,-5.0,-21.0,-117.0,1.0,75.0,17.0,0.0
15.0,27.0,23.0,-9.0,-11.0,0.0,-108.0,2.0,71.0,10.0,0.0
-30.0,-1.0,36.0,-9.0,-18.0,25.0,-118.0,-14.0,17.0,-7.0,0.0
-36.0,-6.0,36.0,-2.0,0.0,13.0,-101.0,-37.0,-18.0,-10.0,0.0
-5.0,6.0,23.0,0.0,7.0,13.0,-60.0,-33.0,-17.0,0.0,0.0
-6.0,11.0,13.0,-2.0,11.0,15.0,-37.0,-31.0,-24.0,8.0,0.0
-13.0,6.0,8.0,6.0,23.0,9.0,-43.0,-18.0,-48.0,-5.0,0.0
-9.0,9.0,-7.0,18.0,28.0,5.0,-33.0,-14.0,-65.0,-27.0,0.0
-15.0,0.0,5.0,9.0,18.0,7.0,-25.0,-20.0,-64.0,-15.0,0.0
-7.0,-4.0,16.0,-1.0,9.0,4.0,-31.0,-17.0,-62.0,-6.0,0.0
19.0,7.0,24.0,-10.0,0.0,1.0,-38.0,2.0,-29.0,-8.0,0.0
11.0,12.0,20.0,-19.0,-9.0,6.0,-43.0,0.0,-41.0,-28.0,0.0
5.0,12.0,21.0,0.0,7.0,14.0,-64.0,-7.0,-65.0,-44.0,0.0
-10.0,13.0,16.0,1.0,19.0,3.0,-96.0,-12.0,-61.0,-37.0,0.0
-42.0,-19.0,-9.0,-11.0,1.0,-20.0,-155.0,-38.0,-166.0,-29.0,0.0
-62.0,-47.0,-9.0,-21.0,-13.0,-22.0,-175.0,-60.0,-216.0,-22.0,0.0
-57.0,-25.0,10.0,-4.0,-1.0,4.0,-125.0,-51.0,-62.0,-17.0,0.0
-31.0,-12.0,-49.0,6.0,1.0,3.0,-97.0,-50.0,-19.0,-4.0,0.0
-36.0,11.0,-56.0,6.0,4.0,9.0,-69.0,-27.0,47.0,17.0,0.0
-47.0,4.0,20.0,0.0,4.0,13.0,-46.0,-21.0,102.0,1.0,0.0
-44.0,-5.0,23.0,10.0,7.0,14.0,-29.0,-12.0,122.0,-35.0,0.0
-40.0,-8.0,11.0,4.0,8.0,29.0,-3.0,5.0,118.0,-24.0,0.0
-10.0,15.0,5.0,-5.0,3.0,25.0,45.0,26.0,98.0,21.0,0.0
12.0,5.0,-10.0,-6.0,10.0,7.0,95.0,35.0,78.0,38.0,0.0
19.0,9.0,-22.0,-8.0,3.0,0.0,133.0,29.0,67.0,42.0,0.0
42.0,26.0,-14.0,0.0,-10.0,-5.0,125.0,15.0,45.0,43.0,0.0
49.0,39.0,-25.0,-2.0,-20.0,-5.0,96.0,5.0,9.0,40.0,0.0
38.0,21.0,-81.0,-8.0,-17.0,-15.0,59.0,-11.0,-24.0,22.0,0.0
18.0,19.0,-23.0,6.0,-1.0,11.0,34.0,-27.0,-36.0,3.0,0.0
0.0,-8.0,-22.0,14.0,6.0,16.0,19.0,-33.0,-8.0,-5.0,0.0
5.0,-21.0,-77.0,9.0,1.0,7.0,2.0,-23.0,45.0,-10.0,0.0
4.0,-17.0,-7.0,0.0,9.0,-3.0,-29.0,-21.0,55.0,-26.0,0.0
-3.0,-15.0,27.0,2.0,11.0,7.0,-32.0,-23.0,13.0,-32.0,0.0
-17.0,-12.0,26.0,-2.0,3.0,20.0,-16.0,-10.0,-22.0,-44.0,0.0
-25.0,-2.0,33.0,-6.0,2.0,7.0,-8.0,6.0,-40.0,-37.0,0.0
-17.0,-2.0,23.0,-20.0,3.0,10.0,17.0,12.0,-34.0,-26.0,0.0
5.0,-1.0,18.0,-13.0,15.0,15.0,44.0,0.0,-32.0,-26.0,0.0
22.0,0.0,-41.0,3.0,22.0,2.0,80.0,-17.0,-57.0,-25.0,0.0
13.0,8.0,-121.0,3.0,17.0,-6.0,130.0,-30.0,-59.0,-22.0,0.0
3.0,1.0,-136.0,0.0,11.0,-2.0,173.0,-33.0,-42.0,-16.0,0.0
5.0,-6.0,-133.0,-5.0,17.0,-10.0,208.0,-14.0,3.0,15.0,0.0
-15.0,5.0,-117.0,-9.0,18.0,-12.0,207.0,-8.0,64.0,41.0,0.0
-39.0,11.0,-91.0,-21.0,13.0,-7.0,183.0,-5.0,62.0,11.0,0.0
-35.0,3.0,17.0,-29.0,4.0,-10.0,166.0,-5.0,34.0,0.0,0.0
-12.0,-5.0,58.0,-32.0,-8.0,-19.0,149.0,2.0,44.0,54.0,0.0
8.0,-2.0,50.0,-37.0,-8.0,0.0,110.0,1.0,62.0,88.0,0.0
12.0,-6.0,55.0,-27.0,-2.0,0.0,67.0,5.0,55.0,55.0,0.0
-1.0,7.0,46.0,-20.0,7.0,2.0,35.0,0.0,33.0,11.0,0.0
-29.0,0.0,-48.0,-14.0,16.0,17.0,15.0,5.0,20.0,-16.0,0.0
-34.0,-14.0,-94.0,-16.0,10.0,16.0,-3.0,4.0,20.0,-30.0,0.0
-30.0,-12.0,2.0,-9.0,3.0,5.0,-16.0,5.0,-4.0,-50.0,0.0
-20.0,-6.0,62.0,-15.0,8.0,0.0,-1.0,-4.0,-20.0,-38.0,0.0
-1.0,-2.0,60.0,-13.0,15.0,3.0,8.0,-17.0,-17.0,12.0,0.0
-12.0,4.0,57.0,7.0,27.0,13.0,14.0,-35.0,-37.0,0.0,0.0
-41.0,-1.0,43.0,11.0,35.0,10.0,40.0,-46.0,-70.0,-57.0,0.0
-35.0,-29.0,48.0,-12.0,27.0,1.0,33.0,-54.0,-187.0,-47.0,0.0
-18.0,-26.0,36.0,-16.0,25.0,-9.0,12.0,-42.0,-228.0,28.0,0.0
-14.0,4.0,33.0,9.0,27.0,2.0,68.0,4.0,12.0,49.0,0.0
-8.0,2.0,17.0,12.0,29.0,0.0,70.0,12.0,64.0,15.0,0.0
11.0,-4.0,35.0,11.0,33.0,7.0,53.0,12.0,53.0,19.0,0.0
15.0,-4.0,37.0,0.0,27.0,6.0,23.0,7.0,32.0,24.0,0.0
1.0,9.0,28.0,-4.0,19.0,0.0,-11.0,15.0,12.0,27.0,0.0
9.0,43.0,20.0,-5.0,6.0,5.0,-14.0,18.0,-1.0,25.0,0.0
21.0,39.0,37.0,-10.0,2.0,16.0,-8.0,18.0,-7.0,34.0,0.0
16.0,12.0,34.0,-13.0,2.0,16.0,-12.0,12.0,-23.0,22.0,0.0
-12.0,0.0,18.0,-13.0,-3.0,-14.0,-34.0,-1.0,-39.0,-8.0,0.0
-15.0,-5.0,-61.0,-7.0,-6.0,-8.0,-22.0,-6.0,-34.0,-18.0,0.0
3.0,7.0,-130.0,-4.0,-10.0,4.0,3.0,2.0,0.0,10.0,0.0
0.0,12.0,-115.0,0.0,-8.0,-4.0,26.0,16.0,58.0,11.0,0.0
-22.0,-9.0,-40.0,9.0,-3.0,3.0,61.0,14.0,72.0,-12.0,0.0
-25.0,-3.0,4.0,26.0,11.0,30.0,72.0,3.0,54.0,-30.0,0.0
-38.0,-6.0,30.0,22.0,-2.0,31.0,89.0,6.0,60.0,-25.0,0.0
-30.0,-2.0,32.0,14.0,-31.0,-4.0,134.0,14.0,91.0,2.0,0.0
2.0,4.0,38.0,6.0,-27.0,-21.0,176.0,20.0,114.0,48.0,0.0
23.0,25.0,51.0,5.0,-23.0,6.0,212.0,24.0,112.0,53.0,0.0
-3.0,28.0,45.0,-9.0,-17.0,14.0,208.0,29.0,87.0,44.0,0.0
-25.0,18.0,38.0,-2.0,-10.0,5.0,175.0,25.0,36.0,25.0,0.0
-26.0,23.0,41.0,8.0,0.0,-6.0,152.0,23.0,36.0,30.0,0.0
-25.0,0.0,37.0,13.0,0.0,-2.0,128.0,18.0,56.0,27.0,0.0
-44.0,-24.0,33.0,17.0,-4.0,-16.0,97.0,29.0,52.0,9.0,0.0
-60.0,-36.0,22.0,16.0,-3.0,-17.0,69.0,23.0,44.0,-12.0,0.0
-43.0,-29.0,12.0,22.0,3.0,3.0,23.0,7.0,36.0,-15.0,0.0
-18.0,5.0,-32.0,27.0,3.0,3.0,13.0,14.0,37.0,3.0,0.0
-6.0,12.0,-13.0,28.0,3.0,-9.0,22.0,11.0,37.0,17.0,0.0
-12.0,9.0,30.0,8.0,11.0,-6.0,36.0,4.0,15.0,12.0,0.0
-36.0,17.0,30.0,-2.0,14.0,2.0,36.0,-2.0,-25.0,-9.0,0.0
-39.0,23.0,-2.0,-3.0,0.0,-5.0,39.0,-23.0,-47.0,-7.0,0.0
15.0,35.0,-25.0,-21.0,-16.0,-10.0,66.0,-27.0,-51.0,22.0,0.0
25.0,18.0,-22.0,-26.0,-32.0,6.0,83.0,-23.0,-60.0,19.0,0.0
-13.0,-17.0,-14.0,-13.0,-23.0,4.0,94.0,-25.0,-84.0,-15.0,0.0
-20.0,-26.0,8.0,-15.0,-16.0,-3.0,99.0,-20.0,-58.0,-25.0,0.0
-19.0,-20.0,25.0,-10.0,-2.0,1.0,95.0,-22.0,-12.0,0.0,0.0
-37.0,-13.0,3.0,-2.0,6.0,8.0,79.0,-3.0,25.0,3.0,0.0
-42.0,-8.0,-57.0,8.0,7.0,-6.0,48.0,13.0,44.0,8.0,0.0
-17.0,-4.0,-92.0,-12.0,15.0,-15.0,28.0,8.0,13.0,-4.0,0.0
-3.0,-10.0,3.0,-14.0,16.0,-22.0,-3.0,8.0,-17.0,-13.0,0.0
-8.0,-17.0,23.0,-4.0,12.0,-30.0,-34.0,0.0,-46.0,-16.0,0.0
-6.0,-15.0,25.0,-5.0,5.0,-27.0,-63.0,-1.0,-71.0,-28.0,0.0
6.0,-1.0,30.0,-13.0,7.0,-28.0,-67.0,-1.0,-54.0,-10.0,0.0
47.0,11.0,12.0,-14.0,6.0,-11.0,-55.0,8.0,-22.0,0.0,0.0
75.0,30.0,-44.0,6.0,10.0,-9.0,-34.0,1.0,7.0,7.0,0.0
65.0,14.0,-48.0,16.0,5.0,-22.0,-28.0,-14.0,17.0,24.0,0.0
53.0,15.0,-25.0,19.0,-8.0,-33.0,-7.0,-14.0,0.0,41.0,0.0
32.0,11.0,16.0,15.0,-8.0,-27.0,15.0,5.0,24.0,37.0,0.0
0.0,4.0,0.0,16.0,-22.0,-11.0,43.0,32.0,38.0,12.0,0.0
-9.0,3.0,39.0,22.0,-26.0,3.0,71.0,48.0,33.0,-12.0,0.0
8.0,6.0,50.0,29.0,-15.0,11.0,113.0,30.0,27.0,-18.0,0.0
27.0,16.0,48.0,15.0,-6.0,15.0,146.0,8.0,15.0,-3.0,0.0
33.0,19.0,-38.0,7.0,-11.0,11.0,131.0,7.0,-9.0,5.0,0.0
39.0,43.0,-126.0,9.0,-19.0,5.0,98.0,9.0,-15.0,-4.0,0.0
32.0,32.0,-109.0,-1.0,-21.0,-6.0,65.0,0.0,2.0,-29.0,0.0
28.0,5.0,-64.0,-4.0,-22.0,-6.0,57.0,-3.0,-3.0,-45.0,0.0
32.0,-7.0,6.0,-2.0,-24.0,-10.0,41.0,0.0,13.0,-55.0,0.0
17.0,-32.0,45.0,3.0,-14.0,-3.0,11.0,7.0,2.0,-44.0,0.0
-12.0,-34.0,52.0,-1.0,-10.0,-11.0,-3.0,0.0,-25.0,-47.0,0.0
-38.0,-14.0,-20.0,-2.0,-14.0,-14.0,6.0,0.0,-39.0,-47.0,0.0
-41.0,-14.0,-113.0,0.0,-12.0,-13.0,22.0,0.0,-58.0,-52.0,0.0
-30.0,-13.0,-111.0,-6.0,-8.0,-20.0,18.0,-3.0,-65.0,-57.0,0.0
-8.0,-33.0,-10.0,-9.0,0.0,0.0,17.0,4.0,-21.0,5.0,0.0
15.0,-28.0,72.0,-15.0,1.0,6.0,45.0,12.0,39.0,67.0,0.0
13.0,-21.0,75.0,-9.0,5.0,7.0,61.0,10.0,54.0,75.0,0.0
-26.0,-27.0,58.0,0.0,12.0,2.0,100.0,0.0,40.0,45.0,0.0
-36.0,-21.0,58.0,-3.0,1.0,-14.0,122.0,-2.0,13.0,9.0,0.0
-14.0,-25.0,51.0,-6.0,2.0,-11.0,142.0,15.0,4.0,-1.0,0.0
-4.0,-21.0,3.0,-9.0,9.0,-9.0,160.0,18.0,0.0,5.0,0.0
13.0,-12.0,11.0,-6.0,-1.0,-15.0,163.0,17.0,31.0,16.0,0.0
29.0,-7.0,33.0,2.0,-4.0,-3.0,128.0,18.0,57.0,39.0,0.0
30.0,17.0,-35.0,11.0,-6.0,-4.0,97.0,3.0,54.0,47.0,0.0
27.0,20.0,-5.0,10.0,-11.0,-12.0,90.0,-13.0,-8.0,32.0,0.0
26.0,11.0,12.0,0.0,-11.0,-27.0,26.0,-55.0,-204.0,4.0,0.0
19.0,36.0,36.0,14.0,-22.0,-18.0,61.0,-40.0,-66.0,13.0,0.0
13.0,20.0,-6.0,18.0,-32.0,-7.0,69.0,-26.0,7.0,23.0,0.0
12.0,23.0,16.0,14.0,-27.0,-11.0,36.0,-25.0,-6.0,13.0,0.0
28.0,13.0,-11.0,-6.0,-22.0,-13.0,31.0,-21.0,18.0,29.0,0.0
38.0,28.0,68.0,-5.0,-12.0,-3.0,45.0,-30.0,28.0,45.0,0.0
41.0,32.0,77.0,4.0,-22.0,-9.0,60.0,-21.0,30.0,33.0,0.0
27.0,22.0,56.0,9.0,-30.0,-6.0,85.0,-16.0,39.0,16.0,0.0
19.0,27.0,9.0,14.0,-33.0,-7.0,125.0,-11.0,12.0,16.0,0.0
6.0,5.0,32.0,8.0,-34.0,-7.0,131.0,-6.0,-14.0,0.0,0.0
-18.0,-15.0,55.0,17.0,-31.0,0.0,145.0,-8.0,-21.0,-16.0,0.0
-40.0,-37.0,50.0,18.0,-10.0,-3.0,150.0,-6.0,-35.0,-41.0,0.0
-46.0,-38.0,53.0,22.0,12.0,20.0,149.0,-10.0,-30.0,-52.0,0.0
-28.0,-28.0,54.0,27.0,24.0,35.0,133.0,-12.0,-23.0,-42.0,0.0
-17.0,-32.0,59.0,17.0,33.0,24.0,89.0,-34.0,-107.0,-43.0,0.0
3.0,-52.0,63.0,16.0,32.0,2.0,21.0,-52.0,-222.0,-51.0,0.0
13.0,-20.0,57.0,39.0,39.0,21.0,50.0,-21.0,-53.0,-48.0,0.0
21.0,9.0,46.0,18.0,28.0,33.0,44.0,-15.0,-34.0,-21.0,0.0
24.0,4.0,35.0,-9.0,17.0,24.0,27.0,-16.0,-38.0,-13.0,0.0
0.0,0.0,32.0,-11.0,15.0,12.0,16.0,-8.0,-40.0,-23.0,0.0
-37.0,-13.0,15.0,1.0,8.0,18.0,18.0,-4.0,-24.0,-33.0,0.0
-26.0,-12.0,2.0,0.0,0.0,-1.0,24.0,-13.0,-29.0,-26.0,0.0
-9.0,0.0,10.0,3.0,9.0,0.0,49.0,0.0,-13.0,-14.0,0.0
-19.0,10.0,19.0,15.0,14.0,18.0,77.0,21.0,11.0,-16.0,0.0
-30.0,1.0,-58.0,16.0,20.0,13.0,79.0,24.0,39.0,-6.0,0.0
0.0,-3.0,-143.0,-8.0,11.0,5.0,95.0,22.0,90.0,13.0,0.0
15.0,9.0,-134.0,-7.0,0.0,8.0,139.0,31.0,121.0,20.0,0.0
29.0,17.0,-89.0,13.0,-2.0,23.0,167.0,29.0,110.0,36.0,0.0
42.0,26.0,-41.0,16.0,0.0,24.0,179.0,18.0,74.0,53.0,0.0
49.0,22.0,41.0,6.0,-6.0,24.0,176.0,15.0,50.0,57.0,0.0
42.0,10.0,53.0,-5.0,-12.0,25.0,182.0,24.0,47.0,53.0,0.0
25.0,8.0,47.0,-3.0,-16.0,29.0,163.0,16.0,25.0,36.0,0.0
14.0,-1.0,43.0,10.0,-16.0,25.0,124.0,8.0,9.0,16.0,0.0
-1.0,4.0,52.0,14.0,-19.0,7.0,96.0,7.0,22.0,16.0,0.0
-24.0,2.0,46.0,16.0,-9.0,11.0,76.0,1.0,24.0,4.0,0.0
-32.0,-1.0,45.0,27.0,14.0,18.0,58.0,-4.0,41.0,-30.0,0.0
-41.0,-5.0,39.0,7.0,12.0,17.0,43.0,-1.0,53.0,-58.0,0.0
-49.0,9.0,-11.0,-10.0,12.0,12.0,48.0,17.0,5.0,-66.0,0.0
-46.0,5.0,-36.0,-14.0,13.0,14.0,62.0,28.0,-30.0,-78.0,0.0
-22.0,19.0,33.0,-15.0,8.0,14.0,87.0,29.0,-19.0,-44.0,0.0
-2.0,23.0,40.0,-7.0,0.0,13.0,119.0,15.0,-2.0,-23.0,0.0
4.0,46.0,19.0,3.0,-16.0,16.0,158.0,4.0,-17.0,-48.0,0.0
8.0,47.0,41.0,0.0,-22.0,7.0,183.0,-11.0,-53.0,-62.0,0.0
11.0,36.0,36.0,3.0,-15.0,1.0,192.0,-21.0,-73.0,-62.0,0.0
18.0,34.0,-36.0,12.0,-4.0,3.0,201.0,-19.0,-64.0,-46.0,0.0
-9.0,12.0,-75.0,4.0,1.0,-5.0,201.0,-13.0,-46.0,-31.0,0.0
-29.0,-11.0,-64.0,-4.0,-6.0,-15.0,182.0,4.0,-44.0,-27.0,0.0
0.0,5.0,-22.0,-11.0,-16.0,-9.0,140.0,9.0,-11.0,23.0,0.0
14.0,7.0,25.0,-6.0,-5.0,-7.0,96.0,12.0,39.0,126.0,0.0
0.0,13.0,31.0,-3.0,2.0,-2.0,70.0,17.0,31.0,146.0,0.0
-4.0,-12.0,36.0,-6.0,14.0,23.0,49.0,9.0,23.0,88.0,0.0
12.0,-13.0,36.0,-18.0,8.0,29.0,30.0,16.0,2.0,58.0,0.0
10.0,-20.0,36.0,-30.0,2.0,27.0,7.0,20.0,-26.0,33.0,0.0
8.0,-13.0,32.0,-18.0,2.0,28.0,-5.0,25.0,-30.0,4.0,0.0
40.0,-15.0,9.0,-2.0,2.0,13.0,11.0,35.0,-5.0,33.0,0.0
58.0,-14.0,0.0,-11.0,6.0,5.0,23.0,36.0,23.0,104.0,0.0
58.0,-25.0,4.0,-6.0,13.0,10.0,50.0,35.0,49.0,129.0,0.0
57.0,-31.0,-1.0,-10.0,22.0,19.0,71.0,31.0,28.0,96.0,0.0
31.0,-23.0,-43.0,4.0,29.0,14.0,88.0,27.0,-20.0,24.0,0.0
9.0,-18.0,0.0,20.0,21.0,9.0,82.0,21.0,-36.0,-20.0,0.0
-4.0,9.0,20.0,9.0,22.0,15.0,96.0,14.0,-55.0,-30.0,0.0
-20.0,15.0,9.0,6.0,25.0,22.0,118.0,3.0,-64.0,-53.0,0.0
-23.0,1.0,3.0,11.0,31.0,35.0,110.0,0.0,-57.0,-68.0,0.0
-6.0,0.0,19.0,5.0,27.0,37.0,98.0,13.0,-27.0,-47.0,0.0
8.0,8.0,15.0,3.0,18.0,43.0,81.0,19.0,8.0,-14.0,0.0
24.0,14.0,13.0,8.0,6.0,32.0,67.0,24.0,66.0,22.0,0.0
33.0,9.0,22.0,2.0,7.0,19.0,49.0,21.0,96.0,38.0,0.0
30.0,22.0,25.0,16.0,22.0,9.0,29.0,16.0,73.0,37.0,0.0
30.0,21.0,23.0,0.0,21.0,0.0,-3.0,2.0,54.0,22.0,0.0
8.0,27.0,12.0,-15.0,15.0,-4.0,-18.0,6.0,44.0,19.0,0.0
15.0,25.0,10.0,-10.0,-1.0,-8.0,-29.0,-1.0,18.0,7.0,0.0
19.0,5.0,3.0,-25.0,-16.0,-5.0,-37.0,-26.0,-37.0,-1.0,0.0
5.0,-15.0,-49.0,-37.0,-8.0,-32.0,-83.0,-48.0,-204.0,3.0,0.0
7.0,-9.0,-70.0,-19.0,-5.0,-24.0,-35.0,-19.0,-63.0,13.0,0.0
18.0,-5.0,-20.0,-19.0,-7.0,-6.0,-6.0,-14.0,29.0,6.0,0.0
10.0,-6.0,-6.0,-15.0,-14.0,2.0,-1.0,-10.0,12.0,5.0,0.0
-2.0,-11.0,-82.0,-11.0,-21.0,6.0,-8.0,-10.0,-10.0,4.0,0.0
-8.0,-17.0,-33.0,-28.0,-21.0,5.0,-8.0,-23.0,-31.0,-3.0,0.0
22.0,0.0,-13.0,-17.0,-15.0,-4.0,16.0,-23.0,-54.0,1.0,0.0
45.0,9.0,0.0,1.0,4.0,-12.0,32.0,-19.0,-45.0,0.0,0.0
35.0,8.0,12.0,10.0,22.0,-3.0,17.0,-9.0,-23.0,20.0,0.0
25.0,4.0,7.0,14.0,28.0,16.0,0.0,-1.0,-13.0,23.0,0.0
2.0,-8.0,17.0,14.0,21.0,22.0,-42.0,-6.0,-49.0,-10.0,0.0
-55.0,-9.0,22.0,8.0,16.0,17.0,-105.0,-15.0,-87.0,-57.0,0.0
-78.0,-13.0,26.0,6.0,7.0,-2.0,-148.0,-28.0,-101.0,-87.0,0.0
-55.0,-3.0,14.0,1.0,9.0,-16.0,-159.0,-26.0,-45.0,-51.0,0.0
-50.0,-8.0,-16.0,-14.0,-1.0,-22.0,-129.0,4.0,19.0,-8.0,0.0
-27.0,7.0,13.0,-33.0,-21.0,-7.0,-91.0,36.0,65.0,14.0,0.0
5.0,-7.0,19.0,-34.0,-28.0,-5.0,-58.0,41.0,73.0,21.0,0.0
12.0,6.0,13.0,-29.0,-22.0,-24.0,-48.0,26.0,30.0,18.0,0.0
17.0,8.0,0.0,-17.0,-18.0,-24.0,-57.0,16.0,-1.0,11.0,0.0
18.0,15.0,9.0,-9.0,-9.0,-11.0,-54.0,18.0,9.0,16.0,0.0
12.0,15.0,11.0,-16.0,-4.0,-21.0,-23.0,18.0,35.0,7.0,0.0
7.0,11.0,-3.0,-13.0,-6.0,-24.0,0.0,14.0,96.0,1.0,0.0
5.0,8.0,13.0,1.0,5.0,-14.0,22.0,17.0,106.0,-11.0,0.0
9.0,-11.0,11.0,2.0,16.0,-10.0,48.0,24.0,76.0,-21.0,0.0
22.0,9.0,17.0,0.0,26.0,-4.0,29.0,28.0,36.0,-5.0,0.0
37.0,0.0,15.0,0.0,16.0,-11.0,-12.0,9.0,-12.0,-3.0,0.0
32.0,-4.0,7.0,0.0,9.0,-5.0,-50.0,0.0,-61.0,-10.0,0.0
-18.0,-15.0,0.0,-3.0,19.0,2.0,-84.0,-20.0,-87.0,-56.0,0.0
-39.0,-30.0,2.0,-6.0,18.0,-1.0,-115.0,-34.0,-112.0,-81.0,0.0
-21.0,-25.0,10.0,-6.0,15.0,3.0,-124.0,-35.0,-79.0,-47.0,0.0
-16.0,-12.0,15.0,0.0,10.0,8.0,-104.0,-24.0,-14.0,-24.0,0.0
-24.0,-4.0,3.0,-9.0,0.0,13.0,-93.0,-13.0,46.0,-21.0,0.0
-54.0,-25.0,-8.0,-14.0,6.0,1.0,-94.0,-5.0,50.0,-33.0,0.0
-77.0,-39.0,-11.0,-10.0,9.0,-7.0,-91.0,2.0,8.0,-30.0,0.0
-38.0,-29.0,-4.0,-8.0,7.0,4.0,-80.0,11.0,-15.0,-14.0,0.0
-6.0,-13.0,-9.0,-7.0,1.0,16.0,-59.0,23.0,-25.0,-7.0,0.0
-14.0,-11.0,-14.0,-4.0,1.0,13.0,-39.0,19.0,-31.0,-13.0,0.0
-34.0,9.0,-4.0,9.0,-7.0,24.0,0.0,1.0,-39.0,-43.0,0.0
-7.0,9.0,-2.0,3.0,-18.0,7.0,28.0,1.0,-44.0,-35.0,0.0
35.0,15.0,-22.0,0.0,-17.0,-10.0,46.0,2.0,-26.0,34.0,0.0
38.0,0.0,-25.0,-5.0,3.0,-1.0,48.0,1.0,12.0,82.0,0.0
16.0,-16.0,-16.0,-8.0,17.0,13.0,6.0,13.0,29.0,51.0,0.0
17.0,-30.0,-20.0,-4.0,10.0,-6.0,-68.0,7.0,-105.0,5.0,0.0
29.0,5.0,-2.0,10.0,0.0,-11.0,-79.0,11.0,-83.0,-23.0,0.0
35.0,-5.0,0.0,22.0,2.0,-12.0,-64.0,25.0,16.0,-22.0,0.0
23.0,-1.0,-10.0,22.0,7.0,-16.0,-84.0,19.0,5.0,-7.0,0.0
2.0,-1.0,-6.0,20.0,6.0,2.0,-96.0,25.0,15.0,7.0,0.0
7.0,11.0,-9.0,20.0,4.0,12.0,-107.0,18.0,8.0,14.0,0.0
15.0,18.0,0.0,8.0,1.0,-11.0,-96.0,1.0,-16.0,0.0,0.0
20.0,27.0,13.0,8.0,-1.0,-17.0,-101.0,-1.0,-24.0,-1.0,0.0
27.0,17.0,3.0,12.0,-3.0,-3.0,-88.0,10.0,11.0,37.0,0.0
46.0,8.0,-2.0,7.0,-3.0,-5.0,-55.0,19.0,70.0,102.0,0.0
41.0,18.0,-44.0,13.0,1.0,3.0,-9.0,3.0,67.0,88.0,0.0
29.0,5.0,-22.0,21.0,5.0,0.0,6.0,-15.0,33.0,43.0,0.0
24.0,-4.0,10.0,-4.0,-8.0,-14.0,-34.0,-36.0,-134.0,8.0,0.0
20.0,11.0,16.0,-5.0,-19.0,5.0,20.0,-26.0,-14.0,6.0,0.0
26.0,17.0,15.0,10.0,-19.0,22.0,68.0,-19.0,88.0,2.0,0.0
31.0,13.0,8.0,11.0,-12.0,23.0,22.0,-23.0,49.0,-19.0,0.0
20.0,-13.0,1.0,-2.0,-11.0,25.0,-16.0,-12.0,32.0,-44.0,0.0
-1.0,-35.0,-22.0,-3.0,-12.0,19.0,-45.0,8.0,38.0,-48.0,0.0
-10.0,-24.0,-30.0,7.0,-6.0,17.0,-73.0,27.0,36.0,-36.0,0.0
-16.0,-24.0,-22.0,14.0,-7.0,28.0,-89.0,31.0,58.0,-19.0,0.0
-20.0,-23.0,-7.0,18.0,-6.0,34.0,-102.0,24.0,60.0,-23.0,0.0
-4.0,-20.0,0.0,14.0,-12.0,32.0,-84.0,10.0,26.0,-17.0,0.0
7.0,-18.0,-11.0,20.0,-21.0,25.0,-64.0,3.0,7.0,7.0,0.0
19.0,-10.0,-16.0,17.0,-26.0,23.0,-65.0,10.0,7.0,3.0,0.0
20.0,-7.0,-5.0,8.0,-23.0,12.0,-68.0,7.0,31.0,5.0,0.0
9.0,-1.0,0.0,1.0,-15.0,-13.0,-66.0,-4.0,19.0,13.0,0.0
-2.0,-31.0,1.0,-24.0,-19.0,-45.0,-90.0,-25.0,-139.0,17.0,0.0
14.0,-8.0,5.0,-26.0,-26.0,-40.0,-31.0,-22.0,-119.0,18.0,0.0
36.0,22.0,-5.0,-9.0,-25.0,-5.0,34.0,5.0,-8.0,6.0,0.0
45.0,21.0,-9.0,-9.0,-16.0,3.0,52.0,6.0,-11.0,2.0,0.0
47.0,6.0,-9.0,-16.0,3.0,0.0,68.0,9.0,-40.0,-2.0,0.0
19.0,7.0,-10.0,-10.0,19.0,-11.0,45.0,-7.0,-63.0,-38.0,0.0
-17.0,3.0,-82.0,3.0,24.0,-4.0,15.0,-29.0,-80.0,-56.0,0.0
-2.0,21.0,-68.0,20.0,20.0,-2.0,13.0,-32.0,-68.0,-25.0,0.0
-8.0,15.0,1.0,11.0,11.0,-14.0,21.0,-28.0,-15.0,-4.0,0.0
-50.0,6.0,12.0,13.0,-11.0,-6.0,-14.0,1.0,19.0,-39.0,0.0
-86.0,-18.0,8.0,0.0,-25.0,11.0,-51.0,20.0,33.0,-76.0,0.0
-100.0,-20.0,17.0,4.0,-23.0,12.0,-74.0,12.0,29.0,-77.0,0.0
-88.0,-9.0,25.0,11.0,-24.0,1.0,-105.0,-12.0,12.0,-73.0,0.0
-63.0,0.0,10.0,11.0,-21.0,-7.0,-113.0,-22.0,-5.0,-64.0,0.0
-69.0,-20.0,-1.0,16.0,-9.0,-13.0,-128.0,-20.0,-26.0,-81.0,0.0
-84.0,-25.0,-6.0,12.0,-5.0,-26.0,-137.0,-17.0,-30.0,-110.0,0.0
-85.0,-46.0,-5.0,16.0,1.0,-20.0,-123.0,-6.0,21.0,-97.0,0.0
-80.0,-49.0,-8.0,24.0,10.0,-6.0,-85.0,5.0,101.0,-46.0,0.0
-64.0,-48.0,-10.0,21.0,8.0,7.0,-42.0,13.0,106.0,-14.0,0.0
-42.0,-16.0,-8.0,10.0,-1.0,6.0,-8.0,17.0,99.0,39.0,0.0
3.0,30.0,-5.0,-6.0,-8.0,4.0,24.0,12.0,107.0,129.0,0.0
10.0,48.0,25.0,3.0,-8.0,7.0,28.0,18.0,82.0,150.0,0.0
-4.0,29.0,22.0,0.0,-6.0,-2.0,-10.0,29.0,45.0,101.0,0.0
-7.0,34.0,-62.0,0.0,-15.0,-9.0,-61.0,14.0,-1.0,58.0,0.0
11.0,22.0,-100.0,-2.0,-15.0,0.0,-104.0,1.0,-57.0,37.0,0.0
34.0,7.0,-12.0,-3.0,0.0,4.0,-121.0,-4.0,-76.0,42.0,0.0
22.0,-2.0,-19.0,0.0,5.0,-4.0,-122.0,2.0,-59.0,50.0,0.0
8.0,-11.0,-71.0,-3.0,11.0,-25.0,-139.0,9.0,-22.0,52.0,0.0
11.0,-9.0,-19.0,-12.0,9.0,-35.0,-138.0,18.0,6.0,71.0,0.0
32.0,0.0,-2.0,-23.0,-5.0,-46.0,-131.0,26.0,16.0,84.0,0.0
45.0,-7.0,2.0,-26.0,1.0,-27.0,-128.0,30.0,8.0,78.0,0.0
7.0,-8.0,10.0,-4.0,7.0,-11.0,-134.0,30.0,-9.0,50.0,0.0
1.0,-6.0,9.0,2.0,9.0,-25.0,-117.0,25.0,-30.0,28.0,0.0
10.0,7.0,14.0,-3.0,5.0,-31.0,-79.0,19.0,-17.0,17.0,0.0
4.0,14.0,-50.0,-11.0,-14.0,-18.0,-61.0,16.0,16.0,3.0,0.0
-1.0,12.0,-98.0,-14.0,-6.0,-11.0,-37.0,22.0,34.0,-10.0,0.0
-8.0,2.0,-82.0,-4.0,-3.0,-5.0,-5.0,25.0,21.0,-18.0,0.0
-11.0,3.0,-51.0,2.0,1.0,4.0,24.0,31.0,34.0,-21.0,0.0
-8.0,11.0,20.0,2.0,12.0,3.0,43.0,34.0,67.0,-19.0,0.0
18.0,6.0,-36.0,0.0,-4.0,-2.0,45.0,41.0,77.0,1.0,0.0
17.0,16.0,-2.0,7.0,-6.0,0.0,32.0,35.0,70.0,10.0,0.0
19.0,29.0,9.0,15.0,8.0,16.0,19.0,14.0,23.0,0.0,0.0
21.0,22.0,-7.0,23.0,15.0,1.0,-12.0,4.0,0.0,-8.0,0.0
22.0,22.0,-59.0,9.0,20.0,0.0,-41.0,3.0,-13.0,-11.0,0.0
25.0,3.0,-26.0,12.0,21.0,9.0,-46.0,-13.0,-28.0,-33.0,0.0
21.0,10.0,61.0,26.0,11.0,6.0,-52.0,-37.0,-31.0,-49.0,0.0
27.0,2.0,67.0,15.0,0.0,-7.0,-42.0,-46.0,-43.0,-48.0,0.0
41.0,16.0,61.0,0.0,-3.0,-17.0,-26.0,-36.0,-9.0,-10.0,0.0
49.0,22.0,53.0,-4.0,-11.0,-17.0,11.0,-25.0,23.0,10.0,0.0
57.0,38.0,42.0,-3.0,-15.0,-18.0,38.0,-9.0,38.0,21.0,0.0
46.0,45.0,34.0,-7.0,-7.0,-25.0,55.0,-2.0,16.0,19.0,0.0
17.0,14.0,36.0,-4.0,7.0,-14.0,60.0,-5.0,-14.0,2.0,0.0
-14.0,0.0,32.0,5.0,19.0,-4.0,68.0,-4.0,-25.0,-19.0,0.0
-52.0,-6.0,29.0,4.0,20.0,-8.0,74.0,-4.0,-47.0,-51.0,0.0
-44.0,-8.0,29.0,3.0,14.0,-13.0,88.0,0.0,-47.0,-52.0,0.0
-7.0,-17.0,13.0,1.0,26.0,-22.0,84.0,3.0,-27.0,-36.0,0.0
0.0,-1.0,-12.0,-3.0,29.0,-9.0,45.0,14.0,-19.0,-36.0,0.0
0.0,5.0,-3.0,0.0,27.0,15.0,17.0,17.0,-16.0,-32.0,0.0
4.0,20.0,-2.0,-6.0,21.0,6.0,-13.0,13.0,-13.0,-21.0,0.0
19.0,28.0,24.0,-18.0,22.0,-9.0,-37.0,19.0,-10.0,3.0,0.0
38.0,6.0,19.0,-18.0,8.0,-6.0,-46.0,18.0,13.0,31.0,0.0
53.0,10.0,10.0,-15.0,2.0,-14.0,-50.0,14.0,28.0,39.0,0.0
33.0,-3.0,1.0,-22.0,-2.0,-25.0,-59.0,8.0,34.0,19.0,0.0
10.0,2.0,0.0,-19.0,-6.0,-19.0,-77.0,-4.0,13.0,-1.0,0.0
17.0,5.0,-5.0,-14.0,-9.0,-30.0,-74.0,-14.0,3.0,-7.0,0.0
23.0,6.0,-23.0,-16.0,-16.0,-22.0,-72.0,-8.0,-4.0,0.0,0.0
23.0,2.0,-4.0,-15.0,-14.0,-24.0,-64.0,-12.0,-14.0,-10.0,0.0
12.0,9.0,11.0,-7.0,-16.0,-25.0,-49.0,-27.0,-33.0,-45.0,0.0
-6.0,16.0,17.0,-8.0,-15.0,-13.0,-54.0,-28.0,-100.0,-54.0,0.0
-17.0,-27.0,9.0,-10.0,-6.0,-27.0,-70.0,-45.0,-229.0,-38.0,0.0
6.0,-3.0,-55.0,3.0,-4.0,-5.0,3.0,-18.0,-23.0,25.0,0.0
11.0,-19.0,-96.0,-7.0,-12.0,-17.0,-15.0,-23.0,-79.0,54.0,0.0
-5.0,-29.0,-8.0,-4.0,-21.0,-41.0,-51.0,-35.0,-198.0,25.0,0.0
5.0,-10.0,18.0,11.0,-14.0,-5.0,-8.0,-6.0,-49.0,8.0,0.0
14.0,-3.0,28.0,5.0,-5.0,0.0,-40.0,-9.0,-6.0,-10.0,0.0
2.0,11.0,9.0,11.0,1.0,6.0,-72.0,0.0,45.0,-10.0,0.0
-24.0,-10.0,-86.0,9.0,3.0,34.0,-73.0,1.0,59.0,-11.0,0.0
-41.0,2.0,-109.0,15.0,2.0,44.0,-82.0,3.0,46.0,-9.0,0.0
-28.0,6.0,8.0,12.0,8.0,27.0,-85.0,-9.0,47.0,-5.0,0.0
-18.0,21.0,67.0,18.0,14.0,14.0,-89.0,-21.0,52.0,-9.0,0.0
-24.0,18.0,56.0,18.0,12.0,24.0,-99.0,-16.0,51.0,-27.0,0.0
-7.0,26.0,52.0,3.0,0.0,20.0,-76.0,-11.0,49.0,-6.0,0.0
11.0,30.0,42.0,-5.0,-19.0,4.0,-44.0,-5.0,71.0,5.0,0.0
6.0,18.0,32.0,10.0,-7.0,3.0,-31.0,-6.0,64.0,1.0,0.0
-1.0,11.0,6.0,20.0,3.0,10.0,-7.0,-17.0,29.0,-14.0,0.0
-6.0,0.0,-94.0,19.0,12.0,10.0,-7.0,-32.0,6.0,-28.0,0.0
-46.0,1.0,-77.0,11.0,9.0,4.0,-39.0,-47.0,-45.0,-68.0,0.0
-79.0,-12.0,-31.0,-3.0,9.0,-20.0,-87.0,-62.0,-216.0,-76.0,0.0
-36.0,-12.0,-16.0,-5.0,4.0,-21.0,-54.0,-42.0,-184.0,-28.0,0.0
-8.0,12.0,46.0,10.0,-8.0,1.0,-23.0,-6.0,15.0,43.0,0.0
-32.0,-10.0,50.0,15.0,-9.0,10.0,-54.0,-2.0,85.0,32.0,0.0
-43.0,-16.0,41.0,8.0,6.0,28.0,-76.0,6.0,120.0,13.0,0.0
-44.0,-21.0,27.0,3.0,19.0,39.0,-104.0,28.0,99.0,18.0,0.0
-38.0,-24.0,22.0,-5.0,15.0,35.0,-137.0,38.0,39.0,-14.0,0.0
-46.0,-35.0,-7.0,-1.0,17.0,23.0,-156.0,24.0,-22.0,-59.0,0.0
-47.0,-32.0,6.0,-4.0,13.0,20.0,-162.0,1.0,-52.0,-72.0,0.0
-22.0,-18.0,0.0,0.0,14.0,25.0,-150.0,-2.0,-32.0,-19.0,0.0
5.0,-4.0,-63.0,-2.0,14.0,35.0,-125.0,9.0,27.0,65.0,0.0
29.0,9.0,24.0,-13.0,-4.0,28.0,-109.0,21.0,105.0,92.0,0.0
45.0,37.0,47.0,-12.0,-27.0,8.0,-87.0,28.0,158.0,110.0,0.0
50.0,31.0,53.0,-7.0,-29.0,-9.0,-74.0,28.0,136.0,108.0,0.0
39.0,24.0,64.0,-5.0,-21.0,-11.0,-60.0,29.0,59.0,87.0,0.0
24.0,37.0,53.0,-3.0,-23.0,-16.0,-26.0,27.0,31.0,67.0,0.0
16.0,21.0,52.0,-1.0,-28.0,-10.0,-13.0,31.0,17.0,47.0,0.0
13.0,25.0,59.0,5.0,-16.0,6.0,8.0,29.0,-11.0,47.0,0.0
12.0,42.0,53.0,10.0,0.0,5.0,1.0,5.0,-44.0,56.0,0.0
11.0,21.0,-3.0,1.0,5.0,-8.0,-35.0,-28.0,-87.0,43.0,0.0
12.0,12.0,-52.0,4.0,7.0,-6.0,-54.0,-23.0,-104.0,24.0,0.0
13.0,5.0,29.0,0.0,3.0,-3.0,-48.0,-12.0,-75.0,20.0,0.0
23.0,-6.0,23.0,-5.0,6.0,-11.0,-38.0,-7.0,-48.0,8.0,0.0
14.0,-15.0,8.0,-9.0,6.0,-8.0,-34.0,1.0,-41.0,9.0,0.0
1.0,-35.0,26.0,-33.0,-10.0,-18.0,-78.0,-21.0,-176.0,18.0,0.0
9.0,-19.0,37.0,-19.0,-11.0,-13.0,-54.0,-2.0,-105.0,21.0,0.0
13.0,0.0,32.0,-14.0,-11.0,-15.0,-45.0,5.0,-23.0,14.0,0.0
7.0,-2.0,-46.0,-8.0,-9.0,-18.0,-22.0,-3.0,-18.0,3.0,0.0
6.0,22.0,-119.0,2.0,-3.0,-18.0,6.0,-1.0,-17.0,-6.0,0.0
11.0,14.0,-66.0,3.0,0.0,-22.0,29.0,-8.0,-5.0,-19.0,0.0
-4.0,6.0,38.0,8.0,5.0,-5.0,56.0,-14.0,-5.0,-30.0,0.0
-28.0,-9.0,56.0,26.0,8.0,3.0,68.0,-28.0,-11.0,-27.0,0.0
-37.0,-17.0,47.0,19.0,2.0,-12.0,79.0,-35.0,-34.0,-27.0,0.0
-38.0,-14.0,44.0,7.0,5.0,4.0,99.0,-27.0,-50.0,-40.0,0.0
-27.0,-19.0,-27.0,9.0,5.0,9.0,90.0,-18.0,-42.0,-30.0,0.0
-15.0,-5.0,-50.0,12.0,0.0,0.0,88.0,6.0,-18.0,-1.0,0.0
7.0,-6.0,42.0,13.0,-4.0,0.0,90.0,28.0,-6.0,19.0,0.0
12.0,10.0,41.0,18.0,3.0,5.0,75.0,19.0,7.0,18.0,0.0
23.0,0.0,27.0,11.0,-2.0,-13.0,56.0,4.0,15.0,5.0,0.0
36.0,-6.0,-17.0,-7.0,-18.0,-21.0,26.0,9.0,0.0,-16.0,0.0
35.0,-17.0,-15.0,-11.0,-6.0,-9.0,-12.0,12.0,-26.0,-18.0,0.0
31.0,-3.0,28.0,-3.0,-8.0,-10.0,-23.0,10.0,-23.0,-17.0,0.0
48.0,-2.0,27.0,-7.0,-9.0,5.0,-13.0,0.0,-23.0,-15.0,0.0
49.0,10.0,44.0,-7.0,-5.0,12.0,-7.0,-15.0,-44.0,-18.0,0.0
15.0,22.0,28.0,1.0,2.0,-1.0,-5.0,-21.0,-53.0,-56.0,0.0
-2.0,-3.0,-74.0,2.0,9.0,-11.0,-8.0,-26.0,-79.0,-76.0,0.0
6.0,-2.0,-50.0,2.0,9.0,-14.0,1.0,-33.0,-95.0,-53.0,0.0
6.0,-12.0,22.0,6.0,5.0,-21.0,-6.0,-25.0,-52.0,-21.0,0.0
-8.0,4.0,31.0,0.0,-2.0,-22.0,2.0,1.0,21.0,7.0,0.0
-35.0,7.0,38.0,-3.0,-17.0,-13.0,15.0,7.0,78.0,16.0,0.0
-28.0,6.0,41.0,-4.0,-5.0,-11.0,24.0,-2.0,60.0,11.0,0.0
0.0,7.0,25.0,-6.0,4.0,-21.0,-32.0,-35.0,-78.0,23.0,0.0
0.0,6.0,21.0,-10.0,17.0,-21.0,-76.0,-37.0,-56.0,15.0,0.0
-13.0,2.0,29.0,-2.0,20.0,-16.0,-101.0,-16.0,35.0,-5.0,0.0
8.0,-2.0,21.0,1.0,6.0,-3.0,-163.0,-14.0,21.0,0.0,0.0
1.0,-17.0,9.0,4.0,9.0,-9.0,-195.0,-11.0,20.0,-16.0,0.0
-5.0,-9.0,4.0,7.0,9.0,-3.0,-222.0,-19.0,23.0,-26.0,0.0
-3.0,-25.0,7.0,-17.0,-2.0,-4.0,-275.0,-13.0,43.0,-15.0,0.0
3.0,-27.0,8.0,-12.0,-4.0,-12.0,-309.0,-1.0,33.0,5.0,0.0
2.0,-17.0,8.0,-8.0,0.0,-2.0,-312.0,7.0,17.0,29.0,0.0
-10.0,-12.0,2.0,-11.0,2.0,-5.0,-325.0,15.0,-13.0,32.0,0.0
-19.0,-21.0,-10.0,-3.0,1.0,-3.0,-342.0,16.0,-22.0,13.0,0.0
-26.0,-24.0,-5.0,-8.0,-9.0,5.0,-341.0,22.0,-13.0,-2.0,0.0
-26.0,-31.0,0.0,-13.0,-17.0,-6.0,-329.0,27.0,-20.0,-20.0,0.0
-12.0,-48.0,-3.0,-6.0,-13.0,-7.0,-315.0,30.0,-19.0,-22.0,0.0
-2.0,-43.0,-2.0,2.0,-11.0,0.0,-310.0,32.0,-8.0,-20.0,0.0
-17.0,-27.0,-9.0,0.0,-16.0,-2.0,-293.0,25.0,-4.0,-9.0,0.0
-5.0,-23.0,-23.0,-12.0,-20.0,-2.0,-257.0,26.0,7.0,16.0,0.0
7.0,-6.0,-41.0,-12.0,-20.0,-12.0,-235.0,40.0,46.0,35.0,0.0
14.0,8.0,-3.0,-4.0,-4.0,-4.0,-264.0,45.0,94.0,35.0,0.0
10.0,15.0,-10.0,-13.0,-2.0,10.0,-288.0,41.0,141.0,15.0,0.0
2.0,3.0,-50.0,-25.0,-5.0,2.0,-295.0,44.0,193.0,4.0,0.0
8.0,22.0,-4.0,-16.0,-1.0,9.0,-287.0,48.0,222.0,32.0,0.0
33.0,25.0,0.0,-14.0,2.0,12.0,-262.0,51.0,211.0,59.0,0.0
31.0,16.0,-4.0,-17.0,3.0,0.0,-286.0,54.0,173.0,47.0,0.0
23.0,2.0,0.0,-12.0,2.0,2.0,-315.0,54.0,123.0,29.0,0.0
7.0,8.0,11.0,0.0,2.0,13.0,-323.0,66.0,84.0,23.0,0.0
-15.0,3.0,13.0,12.0,4.0,11.0,-333.0,45.0,15.0,0.0,0.0
-43.0,0.0,-30.0,15.0,1.0,21.0,-334.0,8.0,-70.0,-41.0,0.0
-41.0,4.0,-24.0,13.0,2.0,18.0,-306.0,-12.0,-97.0,-48.0,0.0
-24.0,-4.0,-3.0,13.0,-4.0,1.0,-276.0,-11.0,-80.0,-29.0,0.0
-41.0,-17.0,0.0,6.0,-6.0,-8.0,-247.0,-13.0,-74.0,-29.0,0.0
-49.0,-8.0,5.0,8.0,0.0,3.0,-246.0,-14.0,-71.0,-44.0,0.0
-60.0,-7.0,0.0,0.0,4.0,-4.0,-223.0,-11.0,-61.0,-66.0,0.0
-63.0,-4.0,-10.0,5.0,-11.0,-8.0,-186.0,-9.0,-69.0,-80.0,0.0
-59.0,-2.0,-36.0,0.0,-22.0,-6.0,-187.0,-8.0,-84.0,-74.0,0.0
-22.0,6.0,-7.0,3.0,-17.0,-16.0,-203.0,-15.0,-51.0,9.0,0.0
-14.0,-2.0,0.0,3.0,-13.0,-13.0,-241.0,-16.0,-41.0,53.0,0.0
-3.0,0.0,-5.0,-8.0,-8.0,-13.0,-259.0,-7.0,-45.0,37.0,0.0
15.0,-6.0,-73.0,-13.0,-13.0,-2.0,-267.0,7.0,-28.0,26.0,0.0
20.0,-6.0,-81.0,2.0,-8.0,16.0,-277.0,5.0,-23.0,27.0,0.0
27.0,-6.0,-88.0,5.0,-4.0,-3.0,-265.0,2.0,-38.0,13.0,0.0
25.0,0.0,-110.0,9.0,-16.0,-13.0,-269.0,-4.0,-51.0,2.0,0.0
1.0,-32.0,-85.0,6.0,-17.0,-35.0,-325.0,-37.0,-186.0,-27.0,0.0
-5.0,-46.0,-74.0,3.0,-16.0,-45.0,-292.0,-52.0,-203.0,-54.0,0.0
-7.0,-28.0,16.0,14.0,-11.0,-15.0,-206.0,-20.0,-38.0,-10.0,0.0
7.0,-13.0,29.0,29.0,4.0,-13.0,-182.0,-9.0,6.0,50.0,0.0
21.0,-4.0,37.0,38.0,14.0,7.0,-161.0,-19.0,9.0,51.0,0.0
1.0,-12.0,44.0,28.0,10.0,16.0,-144.0,-22.0,13.0,17.0,0.0
-15.0,0.0,40.0,10.0,-19.0,20.0,-114.0,-28.0,20.0,-12.0,0.0
-44.0,-3.0,50.0,9.0,-37.0,19.0,-121.0,-38.0,-6.0,-43.0,0.0
-28.0,1.0,51.0,3.0,-29.0,6.0,-140.0,-42.0,-21.0,-42.0,0.0
-9.0,-10.0,36.0,-5.0,-23.0,-5.0,-168.0,-41.0,-4.0,-3.0,0.0
-4.0,-14.0,20.0,-4.0,-13.0,4.0,-180.0,-41.0,2.0,29.0,0.0
-3.0,-14.0,14.0,-11.0,-22.0,-10.0,-190.0,-40.0,16.0,28.0,0.0
12.0,-14.0,18.0,-3.0,-16.0,-9.0,-210.0,-28.0,28.0,10.0,0.0
31.0,7.0,9.0,9.0,-1.0,0.0,-229.0,-13.0,42.0,14.0,0.0
46.0,0.0,4.0,-5.0,-3.0,-12.0,-239.0,-11.0,40.0,17.0,0.0
67.0,-7.0,4.0,-20.0,-6.0,-6.0,-244.0,-16.0,18.0,27.0,0.0
75.0,-4.0,10.0,-18.0,5.0,-5.0,-254.0,-16.0,-19.0,27.0,0.0
53.0,-9.0,-3.0,-16.0,12.0,-7.0,-266.0,-15.0,-29.0,0.0,0.0
28.0,-11.0,-82.0,-23.0,2.0,3.0,-269.0,-10.0,-16.0,-16.0,0.0
8.0,-7.0,-29.0,-22.0,2.0,-1.0,-252.0,-8.0,2.0,-20.0,0.0
7.0,10.0,30.0,-12.0,9.0,17.0,-205.0,-8.0,24.0,-19.0,0.0
-20.0,8.0,30.0,-2.0,25.0,34.0,-161.0,-11.0,35.0,-31.0,0.0
-46.0,0.0,26.0,0.0,32.0,19.0,-158.0,-11.0,12.0,-35.0,0.0
-43.0,-7.0,-43.0,-15.0,40.0,9.0,-185.0,-17.0,-17.0,-37.0,0.0
-48.0,11.0,-113.0,-28.0,39.0,7.0,-183.0,-22.0,-20.0,-41.0,0.0
-32.0,8.0,-29.0,-34.0,23.0,7.0,-166.0,-14.0,4.0,-1.0,0.0
-14.0,-11.0,24.0,-35.0,23.0,-7.0,-211.0,-15.0,-91.0,2.0,0.0
-6.0,-16.0,13.0,-15.0,28.0,8.0,-228.0,-29.0,-151.0,-34.0,0.0
3.0,24.0,-67.0,4.0,18.0,27.0,-214.0,-16.0,-31.0,-48.0,0.0
18.0,5.0,-92.0,1.0,6.0,5.0,-232.0,-24.0,-35.0,-51.0,0.0
21.0,6.0,7.0,-7.0,8.0,6.0,-232.0,-28.0,-46.0,-62.0,0.0
18.0,-14.0,34.0,9.0,20.0,21.0,-239.0,-37.0,-47.0,-69.0,0.0
3.0,-27.0,32.0,11.0,13.0,23.0,-245.0,-48.0,-74.0,-91.0,0.0
-9.0,-30.0,33.0,4.0,4.0,10.0,-226.0,-33.0,-23.0,-77.0,0.0
5.0,-23.0,23.0,-5.0,-3.0,3.0,-194.0,-7.0,30.0,-21.0,0.0
29.0,-13.0,19.0,-10.0,-8.0,2.0,-164.0,5.0,73.0,61.0,0.0
23.0,-4.0,28.0,-10.0,-6.0,-1.0,-129.0,-2.0,88.0,100.0,0.0
-1.0,-1.0,32.0,-9.0,-5.0,11.0,-100.0,-4.0,77.0,75.0,0.0
-14.0,-1.0,28.0,-8.0,3.0,11.0,-95.0,-7.0,70.0,48.0,0.0
-26.0,-4.0,38.0,11.0,15.0,-2.0,-58.0,-6.0,95.0,21.0,0.0
-35.0,-7.0,37.0,2.0,1.0,2.0,-16.0,-1.0,148.0,3.0,0.0
-21.0,15.0,23.0,-1.0,-13.0,7.0,8.0,10.0,188.0,-4.0,0.0
-2.0,24.0,10.0,-5.0,-9.0,2.0,1.0,34.0,189.0,11.0,0.0
5.0,25.0,7.0,-1.0,0.0,3.0,-10.0,41.0,181.0,16.0,0.0
6.0,30.0,-9.0,7.0,5.0,15.0,-5.0,44.0,152.0,33.0,0.0
25.0,24.0,-107.0,0.0,2.0,2.0,-19.0,41.0,115.0,53.0,0.0
28.0,22.0,-99.0,-3.0,3.0,-7.0,-43.0,36.0,77.0,53.0,0.0
15.0,10.0,4.0,2.0,1.0,1.0,-58.0,28.0,28.0,35.0,0.0
12.0,31.0,30.0,14.0,2.0,-1.0,-60.0,13.0,-22.0,15.0,0.0
25.0,30.0,25.0,18.0,1.0,2.0,-51.0,11.0,-56.0,-4.0,0.0
36.0,42.0,15.0,-1.0,-5.0,1.0,-49.0,13.0,-93.0,12.0,0.0
38.0,11.0,12.0,-7.0,-14.0,-26.0,-62.0,0.0,-193.0,17.0,0.0
23.0,22.0,14.0,18.0,-13.0,-11.0,30.0,3.0,-14.0,12.0,0.0
19.0,23.0,0.0,9.0,-10.0,-8.0,80.0,-1.0,36.0,12.0,0.0
27.0,16.0,-7.0,3.0,-13.0,-7.0,126.0,11.0,56.0,18.0,0.0
17.0,27.0,6.0,8.0,-4.0,-15.0,161.0,25.0,51.0,26.0,0.0
-2.0,33.0,17.0,4.0,-3.0,-6.0,189.0,28.0,12.0,13.0,0.0
-25.0,15.0,6.0,10.0,3.0,-10.0,193.0,24.0,-32.0,-13.0,0.0
-41.0,2.0,1.0,16.0,9.0,-11.0,179.0,-6.0,-71.0,-44.0,0.0
-42.0,-2.0,-5.0,10.0,7.0,-12.0,157.0,-11.0,-70.0,-66.0,0.0
-27.0,-2.0,-30.0,15.0,10.0,-8.0,170.0,18.0,-28.0,-11.0,0.0
-5.0,-4.0,-66.0,2.0,9.0,13.0,182.0,29.0,2.0,18.0,0.0
10.0,13.0,-5.0,6.0,-2.0,16.0,185.0,29.0,17.0,16.0,0.0
32.0,17.0,19.0,9.0,-9.0,-4.0,194.0,3.0,57.0,48.0,0.0
41.0,22.0,22.0,1.0,-10.0,0.0,192.0,-5.0,41.0,58.0,0.0
8.0,16.0,-7.0,-10.0,-8.0,6.0,162.0,2.0,-4.0,27.0,0.0
-16.0,2.0,-45.0,-5.0,-4.0,-2.0,146.0,-5.0,-30.0,-10.0,0.0
-45.0,-2.0,-33.0,1.0,-6.0,2.0,159.0,-15.0,-41.0,-34.0,0.0
-53.0,-35.0,20.0,1.0,-8.0,9.0,151.0,-17.0,-101.0,-53.0,0.0
-45.0,-55.0,15.0,-20.0,0.0,-6.0,129.0,-23.0,-212.0,-51.0,0.0
-26.0,-26.0,14.0,-4.0,18.0,15.0,187.0,0.0,-25.0,-44.0,0.0
-21.0,-4.0,17.0,2.0,21.0,21.0,210.0,9.0,19.0,-26.0,0.0
-17.0,-7.0,13.0,-10.0,13.0,36.0,232.0,23.0,15.0,-15.0,0.0
1.0,-12.0,22.0,-10.0,9.0,33.0,254.0,10.0,11.0,-12.0,0.0
0.0,-11.0,22.0,-3.0,12.0,30.0,264.0,-5.0,1.0,-10.0,0.0
6.0,1.0,9.0,-1.0,25.0,30.0,245.0,0.0,-11.0,0.0,0.0
24.0,26.0,4.0,-4.0,29.0,26.0,235.0,11.0,-2.0,17.0,0.0
36.0,32.0,5.0,-19.0,27.0,15.0,241.0,16.0,14.0,37.0,0.0
41.0,28.0,8.0,-27.0,13.0,9.0,231.0,14.0,16.0,30.0,0.0
35.0,43.0,-30.0,-27.0,8.0,2.0,218.0,8.0,24.0,21.0,0.0
20.0,37.0,-19.0,-15.0,5.0,9.0,209.0,7.0,28.0,17.0,0.0
-6.0,24.0,-10.0,-16.0,-3.0,17.0,198.0,6.0,25.0,-8.0,0.0
-11.0,36.0,-7.0,-16.0,1.0,8.0,186.0,4.0,50.0,-21.0,0.0
18.0,43.0,0.0,1.0,11.0,4.0,212.0,14.0,66.0,0.0,0.0
29.0,27.0,5.0,8.0,2.0,17.0,250.0,20.0,58.0,43.0,0.0
16.0,26.0,-41.0,12.0,-1.0,33.0,263.0,20.0,61.0,40.0,0.0
-7.0,24.0,-107.0,11.0,-4.0,40.0,265.0,13.0,34.0,-4.0,0.0
-20.0,-2.0,-20.0,4.0,0.0,43.0,255.0,-10.0,-13.0,-40.0,0.0
3.0,1.0,6.0,3.0,3.0,31.0,267.0,-24.0,-28.0,-31.0,0.0
13.0,-1.0,-57.0,11.0,-1.0,18.0,297.0,-12.0,0.0,-25.0,0.0
-10.0,-1.0,-80.0,24.0,-3.0,14.0,312.0,0.0,17.0,-56.0,0.0
-54.0,-19.0,2.0,32.0,-1.0,27.0,306.0,-2.0,-9.0,-79.0,0.0
-72.0,-35.0,27.0,26.0,6.0,20.0,269.0,-14.0,-42.0,-103.0,0.0
-51.0,-31.0,11.0,16.0,0.0,17.0,225.0,-21.0,-55.0,-106.0,0.0
-20.0,-26.0,5.0,1.0,-13.0,18.0,199.0,-29.0,-42.0,-89.0,0.0
11.0,-14.0,-8.0,-17.0,-40.0,9.0,202.0,-26.0,-27.0,-67.0,0.0
35.0,11.0,-99.0,-26.0,-48.0,-9.0,213.0,-12.0,-25.0,-18.0,0.0
48.0,8.0,-70.0,-28.0,-37.0,-11.0,205.0,-11.0,-28.0,-4.0,0.0
39.0,18.0,-8.0,-24.0,-32.0,-11.0,193.0,-13.0,-34.0,-22.0,0.0
28.0,36.0,35.0,-30.0,-17.0,-13.0,191.0,-26.0,-46.0,-21.0,0.0
24.0,16.0,45.0,-30.0,-5.0,-23.0,188.0,-35.0,-32.0,38.0,0.0
19.0,0.0,-32.0,-35.0,-2.0,-9.0,198.0,-24.0,-14.0,108.0,0.0
1.0,-10.0,-133.0,-37.0,-1.0,-8.0,209.0,-22.0,1.0,109.0,0.0
-8.0,-8.0,-47.0,-30.0,1.0,-22.0,211.0,-26.0,4.0,71.0,0.0
-3.0,5.0,0.0,-26.0,0.0,-5.0,242.0,-14.0,-1.0,31.0,0.0
-8.0,0.0,5.0,-10.0,10.0,10.0,261.0,4.0,42.0,11.0,0.0
-26.0,21.0,16.0,-7.0,9.0,-4.0,283.0,14.0,108.0,4.0,0.0
-25.0,7.0,0.0,-10.0,10.0,-9.0,323.0,27.0,139.0,6.0,0.0
-16.0,0.0,-76.0,-2.0,16.0,1.0,311.0,29.0,142.0,3.0,0.0
-11.0,7.0,-26.0,7.0,16.0,8.0,288.0,39.0,158.0,-1.0,0.0
1.0,4.0,-44.0,13.0,22.0,-2.0,262.0,30.0,184.0,-2.0,0.0
0.0,18.0,-34.0,9.0,12.0,-14.0,219.0,21.0,140.0,5.0,0.0
8.0,4.0,49.0,-12.0,2.0,-11.0,212.0,19.0,91.0,18.0,0.0
12.0,-1.0,73.0,-13.0,8.0,-1.0,179.0,13.0,30.0,17.0,0.0
0.0,19.0,76.0,-11.0,5.0,1.0,139.0,4.0,-5.0,1.0,0.0
19.0,16.0,85.0,-11.0,0.0,-13.0,141.0,5.0,-8.0,9.0,0.0
35.0,24.0,75.0,-6.0,1.0,-21.0,166.0,-15.0,37.0,23.0,0.0
46.0,29.0,52.0,9.0,0.0,-12.0,165.0,-30.0,69.0,35.0,0.0
37.0,3.0,40.0,7.0,9.0,-3.0,168.0,-23.0,48.0,18.0,0.0
23.0,6.0,10.0,3.0,16.0,6.0,162.0,-13.0,22.0,-16.0,0.0
13.0,14.0,22.0,0.0,11.0,28.0,161.0,3.0,3.0,-25.0,0.0
8.0,16.0,34.0,9.0,11.0,38.0,184.0,6.0,-22.0,-41.0,0.0
0.0,28.0,48.0,16.0,17.0,43.0,201.0,0.0,-32.0,-46.0,0.0
-19.0,34.0,63.0,18.0,12.0,14.0,204.0,-17.0,-77.0,-32.0,0.0
-26.0,21.0,44.0,-4.0,6.0,-19.0,209.0,-25.0,-81.0,40.0,0.0
0.0,-7.0,16.0,-18.0,-2.0,-9.0,197.0,-7.0,-37.0,90.0,0.0
9.0,-5.0,-36.0,-13.0,-10.0,13.0,175.0,11.0,-15.0,98.0,0.0
12.0,-15.0,-52.0,-6.0,-9.0,0.0,166.0,20.0,-15.0,84.0,0.0
16.0,-9.0,11.0,-4.0,-4.0,-15.0,155.0,26.0,19.0,70.0,0.0
-5.0,-23.0,34.0,11.0,3.0,-17.0,141.0,29.0,40.0,50.0,0.0
-30.0,-29.0,29.0,16.0,-9.0,-15.0,120.0,34.0,23.0,30.0,0.0
-14.0,-13.0,23.0,17.0,0.0,-21.0,124.0,27.0,9.0,11.0,0.0
-25.0,0.0,23.0,14.0,7.0,-6.0,118.0,16.0,26.0,-6.0,0.0
-71.0,-6.0,21.0,14.0,19.0,10.0,104.0,6.0,24.0,-26.0,0.0
-81.0,-24.0,17.0,15.0,22.0,22.0,104.0,4.0,3.0,-34.0,0.0
-61.0,-2.0,10.0,24.0,16.0,20.0,121.0,4.0,14.0,-40.0,0.0
-38.0,-5.0,22.0,24.0,4.0,7.0,144.0,3.0,10.0,-30.0,0.0
-27.0,-11.0,29.0,11.0,-9.0,-21.0,123.0,-33.0,-157.0,-23.0,0.0
-29.0,2.0,28.0,4.0,-8.0,-12.0,155.0,-53.0,-150.0,-29.0,0.0
-19.0,3.0,14.0,1.0,-7.0,4.0,210.0,-21.0,-5.0,-32.0,0.0
-26.0,12.0,18.0,-1.0,-7.0,-4.0,211.0,-10.0,20.0,-21.0,0.0
-37.0,11.0,41.0,10.0,-12.0,-12.0,186.0,-6.0,11.0,-17.0,0.0
-38.0,-21.0,43.0,22.0,0.0,-7.0,160.0,-12.0,-15.0,-21.0,0.0
-29.0,-16.0,21.0,20.0,9.0,5.0,137.0,-10.0,-14.0,-18.0,0.0
-30.0,-8.0,30.0,16.0,10.0,8.0,120.0,1.0,5.0,4.0,0.0
-36.0,10.0,41.0,31.0,13.0,-1.0,83.0,-8.0,-7.0,17.0,0.0
-43.0,8.0,10.0,29.0,0.0,2.0,79.0,-15.0,-37.0,-5.0,0.0
-37.0,1.0,7.0,14.0,-6.0,1.0,63.0,-21.0,-35.0,-20.0,0.0
-30.0,9.0,13.0,2.0,0.0,8.0,44.0,-32.0,-30.0,-17.0,0.0
-14.0,11.0,-6.0,11.0,-2.0,-5.0,52.0,-25.0,-36.0,-12.0,0.0
9.0,11.0,-74.0,0.0,-8.0,-17.0,58.0,-7.0,-31.0,-12.0,0.0
36.0,19.0,-137.0,-3.0,-4.0,-25.0,73.0,3.0,-28.0,1.0,0.0
44.0,6.0,-132.0,-12.0,-9.0,-30.0,98.0,0.0,-38.0,6.0,0.0
35.0,10.0,-46.0,-1.0,-4.0,-22.0,122.0,-4.0,-65.0,4.0,0.0
12.0,14.0,44.0,-1.0,4.0,-9.0,140.0,-10.0,-88.0,-27.0,0.0
-26.0,-12.0,53.0,-17.0,0.0,-9.0,148.0,-15.0,-69.0,-54.0,0.0
-27.0,-9.0,47.0,-25.0,-11.0,0.0,155.0,-11.0,-49.0,-44.0,0.0
4.0,0.0,45.0,-27.0,-14.0,8.0,185.0,2.0,-19.0,-4.0,0.0
19.0,20.0,50.0,-29.0,-5.0,-3.0,201.0,16.0,40.0,38.0,0.0
24.0,40.0,44.0,-19.0,-5.0,2.0,174.0,12.0,49.0,46.0,0.0
8.0,32.0,32.0,-1.0,-14.0,1.0,131.0,14.0,17.0,25.0,0.0
-7.0,8.0,31.0,11.0,-26.0,1.0,116.0,20.0,10.0,16.0,0.0
-8.0,19.0,-6.0,8.0,-31.0,-14.0,98.0,18.0,23.0,16.0,0.0
-21.0,30.0,6.0,14.0,-30.0,-23.0,94.0,13.0,20.0,18.0,0.0
-16.0,1.0,18.0,-1.0,-24.0,-42.0,62.0,-11.0,-109.0,0.0,0.0
-14.0,-20.0,17.0,-6.0,-21.0,-44.0,56.0,-5.0,-103.0,-12.0,0.0
-20.0,8.0,17.0,6.0,-14.0,-11.0,83.0,11.0,49.0,-6.0,0.0
4.0,25.0,15.0,6.0,-15.0,-19.0,96.0,2.0,77.0,23.0,0.0
43.0,12.0,5.0,9.0,-34.0,-25.0,125.0,-4.0,84.0,74.0,0.0
26.0,15.0,0.0,8.0,-33.0,-7.0,155.0,-7.0,67.0,82.0,0.0
-19.0,-3.0,0.0,5.0,-22.0,0.0,162.0,-3.0,31.0,36.0,0.0
-26.0,-38.0,-4.0,5.0,-29.0,-6.0,160.0,10.0,9.0,12.0,0.0
-20.0,-43.0,-23.0,9.0,-20.0,1.0,164.0,1.0,-22.0,-4.0,0.0
-30.0,-42.0,-88.0,4.0,-7.0,-1.0,167.0,0.0,-43.0,-6.0,0.0
-19.0,-12.0,-71.0,2.0,-10.0,-6.0,155.0,0.0,-50.0,0.0,0.0
-19.0,-8.0,-20.0,-7.0,-15.0,5.0,135.0,-11.0,-36.0,0.0,0.0
-14.0,0.0,-46.0,0.0,-18.0,0.0,103.0,-6.0,-3.0,13.0,0.0
-20.0,-7.0,-10.0,13.0,-9.0,-16.0,65.0,-6.0,37.0,22.0,0.0
-40.0,-17.0,-41.0,19.0,0.0,2.0,35.0,1.0,86.0,12.0,0.0
-35.0,-13.0,-88.0,13.0,9.0,15.0,0.0,22.0,112.0,13.0,0.0
-23.0,-26.0,-85.0,7.0,32.0,5.0,-24.0,23.0,102.0,-5.0,0.0
-11.0,-10.0,-80.0,4.0,34.0,0.0,-13.0,31.0,71.0,4.0,0.0
-18.0,-7.0,17.0,7.0,20.0,4.0,-5.0,29.0,30.0,0.0,0.0
-25.0,7.0,29.0,-5.0,0.0,-3.0,-2.0,27.0,6.0,-2.0,0.0
-17.0,2.0,32.0,-11.0,-4.0,4.0,5.0,27.0,5.0,-5.0,0.0
-13.0,-5.0,20.0,-3.0,2.0,16.0,32.0,19.0,7.0,-14.0,0.0
-23.0,-12.0,-18.0,-4.0,3.0,13.0,48.0,-8.0,28.0,-24.0,0.0
-19.0,-20.0,-16.0,-8.0,9.0,-1.0,63.0,-29.0,47.0,-20.0,0.0
2.0,-8.0,35.0,-3.0,20.0,2.0,106.0,-28.0,52.0,-13.0,0.0
10.0,-12.0,37.0,5.0,27.0,3.0,132.0,-8.0,46.0,-5.0,0.0
25.0,7.0,26.0,8.0,15.0,-3.0,147.0,6.0,50.0,-17.0,0.0
30.0,6.0,23.0,13.0,12.0,4.0,151.0,23.0,14.0,-43.0,0.0
19.0,-7.0,-19.0,26.0,16.0,18.0,117.0,21.0,-1.0,-51.0,0.0
22.0,-8.0,-55.0,19.0,11.0,18.0,86.0,6.0,-15.0,-7.0,0.0
41.0,-23.0,11.0,9.0,13.0,-2.0,61.0,-4.0,-11.0,43.0,0.0
51.0,1.0,26.0,-6.0,12.0,-4.0,34.0,-10.0,4.0,39.0,0.0
55.0,-2.0,19.0,-16.0,0.0,3.0,43.0,-14.0,-1.0,5.0,0.0
69.0,12.0,-40.0,-11.0,0.0,-7.0,33.0,-18.0,13.0,0.0,0.0
84.0,20.0,-104.0,0.0,1.0,-8.0,19.0,-13.0,24.0,16.0,0.0
58.0,7.0,-48.0,3.0,0.0,14.0,19.0,-10.0,-17.0,-12.0,0.0
47.0,13.0,39.0,5.0,-14.0,6.0,26.0,-9.0,-25.0,-48.0,0.0
63.0,-2.0,-14.0,5.0,-21.0,-9.0,31.0,-18.0,-12.0,-7.0,0.0
47.0,-9.0,-12.0,11.0,-33.0,-12.0,39.0,-18.0,6.0,54.0,0.0
43.0,-16.0,31.0,2.0,-16.0,-12.0,90.0,-8.0,-22.0,20.0,0.0
35.0,-28.0,-15.0,-8.0,-13.0,-3.0,115.0,-13.0,-20.0,7.0,0.0
12.0,-50.0,-94.0,-18.0,-10.0,-5.0,76.0,-34.0,-173.0,-12.0,0.0
3.0,-100.0,-81.0,-45.0,-13.0,-56.0,-88.0,-91.0,-621.0,-43.0,0.0
11.0,-72.0,36.0,-20.0,-7.0,-41.0,-12.0,-59.0,-356.0,-43.0,0.0
17.0,-2.0,61.0,19.0,2.0,10.0,99.0,-5.0,29.0,-32.0,0.0
-5.0,-22.0,47.0,23.0,13.0,38.0,61.0,-22.0,13.0,-54.0,0.0
-17.0,-20.0,52.0,12.0,8.0,38.0,39.0,-15.0,-16.0,-55.0,0.0
-2.0,-30.0,56.0,-5.0,-7.0,22.0,33.0,-3.0,-10.0,-33.0,0.0
16.0,-20.0,49.0,-22.0,-11.0,-10.0,50.0,-6.0,5.0,-25.0,0.0
27.0,-4.0,35.0,-8.0,-13.0,-6.0,52.0,-5.0,43.0,-12.0,0.0
41.0,5.0,29.0,4.0,-15.0,0.0,50.0,-8.0,71.0,6.0,0.0
42.0,0.0,25.0,7.0,-21.0,-15.0,82.0,4.0,78.0,17.0,0.0
31.0,0.0,10.0,8.0,-24.0,-5.0,101.0,34.0,90.0,11.0,0.0
20.0,-6.0,12.0,6.0,-4.0,9.0,110.0,25.0,87.0,23.0,0.0
29.0,1.0,18.0,2.0,10.0,-2.0,118.0,14.0,58.0,42.0,0.0
30.0,3.0,23.0,0.0,17.0,6.0,124.0,12.0,43.0,37.0,0.0
22.0,-2.0,16.0,-2.0,19.0,21.0,138.0,16.0,41.0,16.0,0.0
21.0,-6.0,13.0,17.0,20.0,25.0,168.0,14.0,52.0,1.0,0.0
5.0,-2.0,-26.0,22.0,24.0,27.0,200.0,5.0,17.0,-22.0,0.0
10.0,2.0,-23.0,38.0,34.0,29.0,209.0,-8.0,3.0,-31.0,0.0
23.0,11.0,34.0,47.0,27.0,22.0,188.0,-6.0,21.0,-11.0,0.0
17.0,5.0,27.0,36.0,12.0,24.0,161.0,0.0,34.0,-6.0,0.0
6.0,16.0,21.0,24.0,6.0,27.0,147.0,5.0,35.0,0.0,0.0
-13.0,7.0,24.0,16.0,3.0,17.0,123.0,11.0,24.0,4.0,0.0
-16.0,4.0,25.0,12.0,13.0,3.0,108.0,10.0,14.0,-7.0,0.0
-2.0,-6.0,16.0,16.0,16.0,3.0,90.0,11.0,11.0,-16.0,0.0
11.0,8.0,16.0,11.0,10.0,22.0,75.0,26.0,46.0,3.0,0.0
29.0,1.0,25.0,0.0,6.0,12.0,62.0,15.0,8.0,13.0,0.0
30.0,-19.0,26.0,0.0,5.0,-5.0,50.0,-15.0,-95.0,17.0,0.0
24.0,3.0,24.0,12.0,1.0,20.0,119.0,7.0,69.0,46.0,0.0
37.0,5.0,-15.0,6.0,-1.0,6.0,145.0,13.0,83.0,87.0,0.0
40.0,8.0,-62.0,1.0,-8.0,2.0,147.0,18.0,48.0,86.0,0.0
36.0,-2.0,-99.0,0.0,-5.0,-3.0,160.0,20.0,11.0,83.0,0.0
18.0,5.0,-44.0,-1.0,0.0,-14.0,163.0,7.0,-29.0,62.0,0.0
14.0,-9.0,11.0,5.0,3.0,-18.0,152.0,-9.0,-72.0,33.0,0.0
-4.0,0.0,23.0,-9.0,4.0,0.0,157.0,-19.0,-82.0,8.0,0.0
-31.0,-5.0,22.0,-6.0,16.0,15.0,159.0,-11.0,-42.0,0.0,0.0
-23.0,13.0,25.0,5.0,14.0,18.0,141.0,-3.0,39.0,-5.0,0.0
-3.0,12.0,22.0,-4.0,15.0,7.0,109.0,-6.0,128.0,-8.0,0.0
11.0,27.0,13.0,-6.0,9.0,-14.0,83.0,-5.0,147.0,-7.0,0.0
24.0,49.0,-21.0,-5.0,1.0,-2.0,37.0,8.0,114.0,1.0,0.0
30.0,37.0,-39.0,-9.0,0.0,21.0,7.0,17.0,57.0,-3.0,0.0
37.0,49.0,-57.0,-3.0,2.0,20.0,-30.0,23.0,0.0,-9.0,0.0
35.0,54.0,10.0,6.0,12.0,1.0,-33.0,23.0,-14.0,-19.0,0.0
28.0,46.0,58.0,8.0,28.0,0.0,-53.0,8.0,-52.0,-33.0,0.0
4.0,0.0,37.0,-11.0,23.0,-12.0,-125.0,-29.0,-242.0,-41.0,0.0
-9.0,-2.0,27.0,-4.0,17.0,8.0,-109.0,-20.0,-137.0,-40.0,0.0
-19.0,-5.0,37.0,7.0,16.0,28.0,-85.0,-25.0,-86.0,-44.0,0.0
-4.0,-32.0,39.0,-2.0,20.0,20.0,-71.0,-35.0,-111.0,-46.0,0.0
7.0,-30.0,6.0,-17.0,5.0,-2.0,-57.0,-29.0,-69.0,-27.0,0.0
12.0,-34.0,-33.0,-9.0,11.0,-6.0,-49.0,-17.0,-40.0,-22.0,0.0
13.0,-16.0,-3.0,-3.0,33.0,9.0,-30.0,0.0,-35.0,-17.0,0.0
16.0,-14.0,14.0,6.0,42.0,21.0,-22.0,7.0,-6.0,-20.0,0.0
11.0,2.0,-13.0,6.0,37.0,32.0,-46.0,-1.0,-5.0,-18.0,0.0
-37.0,-26.0,-23.0,5.0,32.0,31.0,-91.0,-8.0,-30.0,-20.0,0.0
-91.0,-53.0,18.0,-14.0,2.0,18.0,-150.0,-2.0,-41.0,-19.0,0.0
-108.0,-45.0,10.0,-33.0,-16.0,2.0,-172.0,2.0,-1.0,-2.0,0.0
-83.0,-49.0,5.0,-17.0,-3.0,0.0,-193.0,6.0,7.0,-4.0,0.0
-69.0,-42.0,14.0,-10.0,5.0,-5.0,-216.0,15.0,11.0,-5.0,0.0
-58.0,-35.0,5.0,-16.0,9.0,0.0,-232.0,32.0,26.0,14.0,0.0
-34.0,-30.0,9.0,-1.0,9.0,3.0,-222.0,41.0,72.0,21.0,0.0
-20.0,-17.0,13.0,2.0,15.0,0.0,-215.0,47.0,87.0,11.0,0.0
-21.0,-1.0,27.0,8.0,7.0,-7.0,-225.0,28.0,54.0,5.0,0.0
-25.0,4.0,-17.0,16.0,-5.0,-12.0,-219.0,9.0,6.0,6.0,0.0
-14.0,-12.0,-107.0,13.0,-6.0,-9.0,-207.0,-4.0,-19.0,-14.0,0.0
-3.0,-10.0,-77.0,7.0,-4.0,-8.0,-187.0,2.0,2.0,2.0,0.0
14.0,0.0,-36.0,-2.0,-6.0,-21.0,-131.0,16.0,62.0,48.0,0.0
43.0,10.0,24.0,-10.0,-11.0,-15.0,-84.0,15.0,113.0,72.0,0.0
63.0,16.0,38.0,2.0,-15.0,-4.0,-60.0,12.0,101.0,83.0,0.0
59.0,9.0,28.0,0.0,-12.0,-12.0,-79.0,9.0,19.0,76.0,0.0
49.0,-37.0,13.0,-3.0,-12.0,-42.0,-164.0,-25.0,-168.0,42.0,0.0
49.0,-10.0,4.0,13.0,0.0,-18.0,-151.0,-18.0,-37.0,44.0,0.0
54.0,23.0,-11.0,6.0,-5.0,-1.0,-154.0,-5.0,24.0,58.0,0.0
46.0,44.0,-8.0,-6.0,-17.0,-9.0,-155.0,-6.0,21.0,61.0,0.0
35.0,29.0,10.0,-10.0,-15.0,-21.0,-155.0,11.0,0.0,26.0,0.0
-8.0,24.0,15.0,-5.0,4.0,-3.0,-183.0,7.0,-41.0,-40.0,0.0
-46.0,17.0,29.0,4.0,14.0,11.0,-192.0,-9.0,-76.0,-75.0,0.0
-47.0,7.0,25.0,21.0,19.0,19.0,-190.0,-14.0,-75.0,-96.0,0.0
-39.0,6.0,26.0,24.0,27.0,19.0,-188.0,0.0,-42.0,-103.0,0.0
-62.0,4.0,12.0,21.0,24.0,11.0,-180.0,10.0,-33.0,-119.0,0.0
-69.0,2.0,14.0,14.0,10.0,-10.0,-154.0,-9.0,-17.0,-104.0,0.0
-33.0,2.0,19.0,-2.0,-4.0,-26.0,-118.0,-20.0,7.0,-44.0,0.0
-28.0,2.0,5.0,-16.0,-12.0,-41.0,-90.0,-17.0,11.0,17.0,0.0
-41.0,-22.0,-91.0,-9.0,-15.0,-24.0,-72.0,-8.0,42.0,16.0,0.0
-35.0,-24.0,-132.0,-11.0,-6.0,-6.0,-61.0,-5.0,53.0,5.0,0.0
-37.0,-24.0,-30.0,-4.0,3.0,-1.0,-43.0,-12.0,52.0,-16.0,0.0
-17.0,-23.0,25.0,-2.0,1.0,-3.0,-55.0,-6.0,48.0,-28.0,0.0
-12.0,-13.0,25.0,-18.0,11.0,-14.0,-145.0,-22.0,-120.0,-34.0,0.0
-27.0,-11.0,14.0,-16.0,13.0,-3.0,-180.0,-13.0,-119.0,-23.0,0.0
-12.0,15.0,-59.0,-14.0,5.0,10.0,-162.0,3.0,26.0,8.0,0.0
11.0,13.0,-29.0,-5.0,3.0,0.0,-176.0,11.0,32.0,36.0,0.0
32.0,10.0,12.0,11.0,4.0,-6.0,-184.0,4.0,50.0,70.0,0.0
31.0,9.0,13.0,18.0,0.0,11.0,-186.0,-6.0,16.0,95.0,0.0
27.0,-4.0,16.0,21.0,0.0,8.0,-201.0,-8.0,13.0,81.0,0.0
19.0,-2.0,-4.0,19.0,10.0,0.0,-219.0,-1.0,8.0,68.0,0.0
20.0,18.0,10.0,10.0,6.0,-8.0,-209.0,-7.0,-18.0,61.0,0.0
22.0,37.0,20.0,7.0,-1.0,-1.0,-171.0,2.0,-32.0,53.0,0.0
33.0,24.0,28.0,-8.0,-4.0,5.0,-147.0,-3.0,-35.0,40.0,0.0
31.0,25.0,38.0,-6.0,-4.0,8.0,-135.0,-19.0,-44.0,31.0,0.0
7.0,15.0,46.0,0.0,-3.0,2.0,-131.0,-28.0,-61.0,11.0,0.0
1.0,13.0,27.0,-2.0,0.0,15.0,-115.0,-23.0,-70.0,-4.0,0.0
3.0,14.0,16.0,-3.0,-16.0,19.0,-93.0,-18.0,-63.0,9.0,0.0
-24.0,1.0,11.0,0.0,-16.0,12.0,-89.0,-21.0,-51.0,4.0,0.0
-31.0,15.0,17.0,5.0,-5.0,2.0,-84.0,-14.0,-18.0,-4.0,0.0
-23.0,14.0,10.0,-7.0,4.0,-8.0,-94.0,-12.0,24.0,2.0,0.0
-24.0,19.0,-3.0,-5.0,-2.0,-6.0,-113.0,-13.0,54.0,9.0,0.0
-30.0,10.0,0.0,0.0,-9.0,-7.0,-133.0,-4.0,43.0,7.0,0.0
-35.0,-2.0,-1.0,4.0,-8.0,-11.0,-135.0,16.0,28.0,0.0,0.0
-31.0,11.0,0.0,-2.0,3.0,5.0,-147.0,31.0,33.0,-5.0,0.0
-43.0,14.0,7.0,-1.0,11.0,17.0,-156.0,45.0,92.0,-5.0,0.0
-42.0,36.0,13.0,0.0,6.0,26.0,-146.0,49.0,131.0,-4.0,0.0
-6.0,49.0,-7.0,1.0,16.0,32.0,-133.0,35.0,116.0,-10.0,0.0
11.0,52.0,-110.0,-8.0,22.0,23.0,-124.0,23.0,67.0,-12.0,0.0
0.0,35.0,-96.0,-6.0,8.0,15.0,-118.0,9.0,19.0,-32.0,0.0
-19.0,33.0,8.0,1.0,0.0,5.0,-100.0,7.0,-13.0,-56.0,0.0
-34.0,31.0,37.0,6.0,8.0,8.0,-67.0,25.0,-21.0,-65.0,0.0
-35.0,5.0,41.0,6.0,8.0,12.0,-21.0,14.0,-35.0,-67.0,0.0
5.0,12.0,32.0,0.0,0.0,8.0,13.0,-9.0,-49.0,-6.0,0.0
43.0,23.0,18.0,4.0,-10.0,-4.0,42.0,-18.0,-50.0,99.0,0.0
47.0,28.0,13.0,-10.0,-13.0,-5.0,49.0,-11.0,-25.0,136.0,0.0
57.0,26.0,8.0,-13.0,-1.0,5.0,23.0,-12.0,-14.0,97.0,0.0
39.0,17.0,9.0,-3.0,16.0,19.0,2.0,-10.0,-27.0,61.0,0.0
14.0,-8.0,21.0,14.0,14.0,2.0,-5.0,-22.0,-50.0,19.0,0.0
-6.0,-8.0,20.0,9.0,4.0,-20.0,-41.0,-30.0,-65.0,-18.0,0.0
-34.0,-12.0,-6.0,5.0,2.0,-21.0,-84.0,-33.0,-79.0,-29.0,0.0
-68.0,-42.0,-42.0,0.0,-6.0,-9.0,-96.0,-17.0,-80.0,-36.0,0.0
-71.0,-44.0,-37.0,2.0,-11.0,-12.0,-94.0,-12.0,-59.0,-29.0,0.0
-63.0,-31.0,-105.0,5.0,-11.0,-12.0,-81.0,2.0,-42.0,-8.0,0.0
-59.0,-18.0,-70.0,2.0,-15.0,-4.0,-75.0,5.0,-33.0,2.0,0.0
-62.0,-37.0,-102.0,2.0,-9.0,0.0,-76.0,-7.0,-38.0,-11.0,0.0
-62.0,-41.0,-26.0,0.0,-10.0,-5.0,-59.0,-12.0,-51.0,-33.0,0.0
-40.0,-26.0,14.0,-9.0,-9.0,-14.0,-36.0,-14.0,-65.0,-45.0,0.0
-38.0,-16.0,25.0,-16.0,-13.0,0.0,-3.0,-4.0,-45.0,-39.0,0.0
-31.0,-19.0,34.0,-13.0,-23.0,0.0,45.0,7.0,-1.0,-21.0,0.0
-13.0,-21.0,42.0,2.0,-16.0,-11.0,70.0,7.0,17.0,21.0,0.0
-5.0,5.0,39.0,11.0,-3.0,-14.0,90.0,-8.0,4.0,28.0,0.0
-17.0,0.0,32.0,20.0,1.0,4.0,81.0,-2.0,0.0,15.0,0.0
-34.0,-4.0,20.0,15.0,2.0,9.0,64.0,16.0,-3.0,-12.0,0.0
-4.0,-8.0,22.0,13.0,-13.0,-7.0,42.0,29.0,11.0,-9.0,0.0
19.0,2.0,29.0,0.0,-19.0,-11.0,32.0,33.0,34.0,18.0,0.0
6.0,5.0,37.0,7.0,-20.0,4.0,15.0,38.0,40.0,12.0,0.0
-16.0,-8.0,29.0,16.0,-10.0,12.0,-4.0,33.0,43.0,5.0,0.0
-20.0,-6.0,18.0,28.0,-4.0,16.0,-20.0,23.0,33.0,-5.0,0.0
-19.0,-13.0,14.0,29.0,-5.0,16.0,-46.0,3.0,-11.0,-26.0,0.0
-3.0,-2.0,14.0,20.0,-2.0,12.0,-43.0,-12.0,-36.0,-40.0,0.0
23.0,-8.0,-40.0,9.0,-12.0,8.0,-27.0,0.0,-32.0,-27.0,0.0
21.0,-4.0,-139.0,15.0,-14.0,9.0,-18.0,5.0,-32.0,-25.0,0.0
0.0,-14.0,-143.0,-5.0,-15.0,-7.0,-19.0,7.0,-27.0,-28.0,0.0
-23.0,-5.0,-103.0,-29.0,-45.0,-18.0,-3.0,16.0,-13.0,-15.0,0.0
-22.0,13.0,5.0,-29.0,-61.0,-17.0,25.0,17.0,-15.0,-11.0,0.0
-18.0,18.0,59.0,-24.0,-48.0,-26.0,55.0,14.0,-11.0,-21.0,0.0
-26.0,-9.0,53.0,-21.0,-25.0,-26.0,95.0,18.0,43.0,-27.0,0.0
-35.0,-16.0,44.0,-25.0,-19.0,-12.0,115.0,25.0,110.0,6.0,0.0
-16.0,-35.0,39.0,-41.0,-19.0,-28.0,62.0,0.0,-19.0,49.0,0.0
-2.0,-27.0,37.0,-32.0,-4.0,-35.0,56.0,10.0,-8.0,37.0,0.0
8.0,-11.0,38.0,-13.0,6.0,-18.0,60.0,26.0,89.0,24.0,0.0
30.0,4.0,44.0,-19.0,-7.0,1.0,49.0,27.0,60.0,20.0,0.0
28.0,2.0,2.0,-11.0,-14.0,0.0,34.0,30.0,31.0,22.0,0.0
16.0,2.0,-112.0,-10.0,-4.0,-12.0,17.0,23.0,-12.0,14.0,0.0
2.0,1.0,-139.0,-16.0,9.0,13.0,6.0,2.0,-68.0,-11.0,0.0
11.0,10.0,-113.0,-5.0,16.0,29.0,5.0,-15.0,-82.0,-27.0,0.0
12.0,31.0,-9.0,-1.0,15.0,24.0,28.0,-35.0,-98.0,-37.0,0.0
6.0,20.0,43.0,-5.0,11.0,9.0,41.0,-31.0,-109.0,-39.0,0.0
7.0,21.0,51.0,-7.0,4.0,-1.0,50.0,-19.0,-75.0,-31.0,0.0
-8.0,13.0,44.0,-12.0,4.0,-1.0,82.0,-19.0,-65.0,-36.0,0.0
-1.0,13.0,40.0,-23.0,0.0,-1.0,103.0,-16.0,-55.0,-39.0,0.0
6.0,17.0,12.0,-26.0,8.0,-1.0,118.0,2.0,-55.0,-49.0,0.0
-7.0,3.0,-95.0,-12.0,12.0,3.0,136.0,10.0,-31.0,-74.0,0.0
-6.0,1.0,-123.0,1.0,6.0,9.0,163.0,3.0,35.0,-53.0,0.0
-10.0,-13.0,-12.0,1.0,7.0,16.0,184.0,0.0,104.0,-20.0,0.0
-11.0,-12.0,45.0,3.0,14.0,9.0,182.0,11.0,111.0,-22.0,0.0
-12.0,-18.0,33.0,-6.0,4.0,5.0,166.0,36.0,82.0,-39.0,0.0
0.0,-21.0,36.0,0.0,-6.0,-1.0,155.0,49.0,83.0,-15.0,0.0
7.0,-24.0,40.0,-2.0,-11.0,-4.0,143.0,60.0,127.0,91.0,0.0
6.0,-11.0,21.0,0.0,-13.0,-5.0,115.0,53.0,150.0,113.0,0.0
3.0,-21.0,34.0,-1.0,4.0,-21.0,105.0,35.0,130.0,56.0,0.0
8.0,-22.0,29.0,-5.0,15.0,-11.0,91.0,14.0,97.0,1.0,0.0
-7.0,-27.0,29.0,-8.0,10.0,7.0,82.0,26.0,71.0,-21.0,0.0
-30.0,-27.0,38.0,2.0,21.0,1.0,81.0,35.0,49.0,-26.0,0.0
-28.0,-29.0,37.0,-1.0,26.0,-6.0,91.0,35.0,19.0,-55.0,0.0
-20.0,-26.0,27.0,-11.0,19.0,0.0,81.0,20.0,-4.0,-66.0,0.0
-18.0,-15.0,21.0,-17.0,10.0,0.0,97.0,13.0,-9.0,-44.0,0.0
-8.0,-1.0,39.0,-17.0,2.0,-20.0,106.0,7.0,-38.0,-46.0,0.0
5.0,10.0,32.0,-10.0,-4.0,-20.0,130.0,-3.0,-60.0,-47.0,0.0
21.0,6.0,-17.0,-6.0,-1.0,-2.0,165.0,-9.0,-34.0,10.0,0.0
21.0,5.0,10.0,-2.0,12.0,0.0,177.0,1.0,15.0,62.0,0.0
20.0,-12.0,15.0,0.0,25.0,5.0,157.0,8.0,20.0,34.0,0.0
1.0,-15.0,8.0,-4.0,22.0,16.0,107.0,10.0,8.0,0.0,0.0
6.0,-12.0,8.0,0.0,12.0,27.0,72.0,3.0,-12.0,-34.0,0.0
13.0,-17.0,5.0,-9.0,5.0,31.0,79.0,7.0,-22.0,-35.0,0.0
18.0,-1.0,3.0,-8.0,6.0,36.0,75.0,13.0,-11.0,-16.0,0.0
35.0,13.0,1.0,-11.0,-3.0,19.0,66.0,8.0,22.0,38.0,0.0
47.0,17.0,4.0,-2.0,-9.0,-17.0,66.0,12.0,30.0,83.0,0.0
45.0,20.0,10.0,0.0,5.0,-6.0,60.0,10.0,30.0,72.0,0.0
39.0,11.0,9.0,0.0,3.0,7.0,54.0,15.0,11.0,37.0,0.0
7.0,13.0,8.0,-1.0,-4.0,-8.0,53.0,8.0,-9.0,-1.0,0.0
-11.0,1.0,8.0,0.0,-4.0,-10.0,60.0,-9.0,-55.0,-6.0,0.0
7.0,10.0,23.0,0.0,-1.0,-6.0,69.0,-2.0,-67.0,12.0,0.0
18.0,3.0,22.0,-1.0,-4.0,-5.0,72.0,-4.0,-72.0,14.0,0.0
11.0,2.0,15.0,2.0,5.0,-10.0,92.0,-6.0,-51.0,-5.0,0.0
17.0,-7.0,12.0,2.0,12.0,-10.0,122.0,-5.0,-21.0,-15.0,0.0
27.0,-15.0,-15.0,7.0,10.0,3.0,147.0,2.0,37.0,-5.0,0.0
30.0,-28.0,-3.0,-1.0,18.0,5.0,142.0,11.0,64.0,4.0,0.0
28.0,-22.0,4.0,-4.0,14.0,2.0,111.0,15.0,48.0,-15.0,0.0
17.0,-19.0,-15.0,10.0,14.0,2.0,94.0,18.0,48.0,-28.0,0.0
29.0,-29.0,-20.0,17.0,20.0,12.0,66.0,27.0,29.0,-24.0,0.0
23.0,-33.0,-53.0,12.0,20.0,27.0,60.0,18.0,43.0,-34.0,0.0
24.0,-19.0,-137.0,11.0,8.0,37.0,60.0,12.0,60.0,-43.0,0.0
34.0,-8.0,-114.0,12.0,1.0,36.0,32.0,2.0,38.0,-31.0,0.0
30.0,-10.0,5.0,9.0,10.0,32.0,-4.0,-17.0,24.0,-27.0,0.0
19.0,3.0,42.0,16.0,17.0,27.0,-15.0,-32.0,5.0,-33.0,0.0
17.0,18.0,-48.0,15.0,16.0,14.0,-12.0,-21.0,-2.0,-36.0,0.0
29.0,9.0,-58.0,3.0,7.0,20.0,-6.0,-24.0,-6.0,-22.0,0.0
44.0,20.0,27.0,-6.0,9.0,21.0,-8.0,-16.0,-3.0,-12.0,0.0
33.0,13.0,51.0,-8.0,9.0,11.0,11.0,-26.0,-2.0,1.0,0.0
3.0,16.0,58.0,3.0,9.0,10.0,34.0,-36.0,-12.0,-1.0,0.0
2.0,6.0,39.0,10.0,0.0,16.0,58.0,-32.0,-33.0,-17.0,0.0
27.0,12.0,25.0,-1.0,-8.0,6.0,85.0,-29.0,-40.0,-25.0,0.0
13.0,0.0,27.0,-14.0,-11.0,-4.0,73.0,-23.0,12.0,-17.0,0.0
0.0,8.0,33.0,-7.0,-10.0,-4.0,64.0,-12.0,58.0,-19.0,0.0
0.0,-2.0,29.0,4.0,-12.0,-13.0,44.0,-2.0,73.0,-16.0,0.0
10.0,15.0,20.0,2.0,-17.0,-12.0,30.0,14.0,85.0,0.0,0.0
28.0,5.0,22.0,1.0,-6.0,-14.0,2.0,16.0,67.0,9.0,0.0
32.0,7.0,10.0,12.0,1.0,-15.0,-32.0,22.0,46.0,5.0,0.0
23.0,8.0,13.0,14.0,-11.0,-12.0,-59.0,23.0,8.0,-4.0,0.0
27.0,13.0,21.0,7.0,-7.0,-2.0,-48.0,12.0,-26.0,-11.0,0.0
29.0,13.0,24.0,1.0,1.0,-2.0,-45.0,1.0,-34.0,-7.0,0.0
30.0,21.0,25.0,10.0,0.0,-18.0,-23.0,-26.0,-35.0,-3.0,0.0
19.0,20.0,23.0,-3.0,-15.0,-19.0,-21.0,-50.0,-74.0,-9.0,0.0
-7.0,10.0,7.0,-10.0,-13.0,-11.0,-7.0,-49.0,-104.0,-14.0,0.0
-12.0,-7.0,-7.0,3.0,0.0,0.0,45.0,-38.0,-73.0,-28.0,0.0
-1.0,-6.0,-14.0,-1.0,3.0,-16.0,85.0,-25.0,-20.0,3.0,0.0
-1.0,-50.0,-21.0,-21.0,1.0,-43.0,46.0,-61.0,-229.0,7.0,0.0
-17.0,-62.0,-16.0,-32.0,2.0,-61.0,-32.0,-98.0,-420.0,-6.0,0.0
-38.0,3.0,7.0,26.0,7.0,1.0,137.0,-25.0,42.0,-34.0,0.0
-37.0,25.0,11.0,34.0,10.0,6.0,166.0,-16.0,107.0,-53.0,0.0
-16.0,21.0,-5.0,30.0,12.0,-2.0,160.0,-6.0,108.0,-38.0,0.0
11.0,19.0,-19.0,16.0,1.0,-4.0,126.0,4.0,107.0,1.0,0.0
34.0,19.0,-12.0,2.0,-18.0,-2.0,93.0,15.0,88.0,0.0,0.0
23.0,16.0,-29.0,-4.0,-22.0,-8.0,54.0,18.0,64.0,-18.0,0.0
-2.0,22.0,-125.0,3.0,-19.0,-7.0,30.0,0.0,23.0,-53.0,0.0
-17.0,14.0,-131.0,7.0,-5.0,9.0,18.0,-18.0,-16.0,-97.0,0.0
-16.0,0.0,-28.0,10.0,-6.0,18.0,12.0,-13.0,-36.0,-102.0,0.0
-26.0,-2.0,9.0,-1.0,-14.0,1.0,33.0,-12.0,-23.0,-27.0,0.0
-17.0,-8.0,5.0,-14.0,-42.0,-18.0,43.0,-2.0,8.0,63.0,0.0
0.0,-12.0,-3.0,-20.0,-47.0,-12.0,48.0,15.0,49.0,112.0,0.0
7.0,-3.0,-39.0,-22.0,-32.0,-8.0,80.0,30.0,88.0,163.0,0.0
13.0,-9.0,-26.0,-11.0,-10.0,-11.0,102.0,24.0,102.0,181.0,0.0
27.0,-8.0,26.0,9.0,-7.0,-14.0,122.0,25.0,86.0,165.0,0.0
30.0,-5.0,0.0,10.0,-11.0,2.0,159.0,30.0,56.0,134.0,0.0
34.0,8.0,-44.0,4.0,-11.0,0.0,171.0,36.0,26.0,115.0,0.0
24.0,1.0,-12.0,8.0,-1.0,-4.0,153.0,27.0,12.0,96.0,0.0
10.0,4.0,-78.0,8.0,13.0,-3.0,110.0,23.0,-12.0,73.0,0.0
0.0,0.0,-14.0,2.0,23.0,11.0,100.0,21.0,-29.0,54.0,0.0
0.0,2.0,52.0,-1.0,18.0,10.0,93.0,10.0,-43.0,43.0,0.0
1.0,7.0,49.0,-1.0,20.0,-5.0,96.0,5.0,-20.0,39.0,0.0
-2.0,13.0,42.0,-7.0,31.0,-17.0,97.0,6.0,-21.0,12.0,0.0
-8.0,2.0,37.0,-16.0,21.0,-14.0,85.0,6.0,-31.0,-9.0,0.0
2.0,2.0,17.0,-21.0,10.0,-15.0,90.0,9.0,-17.0,-8.0,0.0
28.0,11.0,13.0,-33.0,3.0,-11.0,100.0,20.0,2.0,-4.0,0.0
25.0,13.0,26.0,-35.0,-5.0,1.0,125.0,21.0,17.0,-15.0,0.0
14.0,21.0,28.0,-18.0,-16.0,0.0,136.0,15.0,8.0,-13.0,0.0
1.0,13.0,-5.0,-6.0,-20.0,-11.0,149.0,22.0,34.0,-21.0,0.0
-49.0,6.0,1.0,-2.0,-24.0,-2.0,127.0,20.0,66.0,-38.0,0.0
-80.0,-14.0,10.0,-2.0,-2.0,26.0,114.0,3.0,44.0,-54.0,0.0
-75.0,0.0,3.0,15.0,16.0,42.0,134.0,5.0,13.0,-39.0,0.0
-64.0,-14.0,40.0,18.0,37.0,37.0,164.0,10.0,0.0,-34.0,0.0
-66.0,-23.0,49.0,17.0,56.0,33.0,172.0,28.0,3.0,-28.0,0.0
-63.0,-20.0,41.0,7.0,55.0,24.0,142.0,20.0,-15.0,-23.0,0.0
-30.0,10.0,31.0,15.0,52.0,10.0,118.0,2.0,-37.0,12.0,0.0
0.0,8.0,38.0,17.0,52.0,8.0,87.0,-15.0,-77.0,21.0,0.0
19.0,24.0,38.0,11.0,43.0,9.0,53.0,-34.0,-115.0,13.0,0.0
35.0,33.0,36.0,5.0,24.0,2.0,51.0,-40.0,-99.0,14.0,0.0
41.0,42.0,27.0,-3.0,19.0,-10.0,34.0,-36.0,-69.0,30.0,0.0
18.0,55.0,-23.0,0.0,14.0,-16.0,12.0,-25.0,-59.0,35.0,0.0
12.0,37.0,-15.0,-9.0,5.0,-13.0,5.0,-16.0,-44.0,40.0,0.0
-3.0,1.0,7.0,-30.0,-2.0,-16.0,-7.0,-22.0,-47.0,1.0,0.0
0.0,-3.0,1.0,-25.0,-10.0,-22.0,-8.0,-19.0,-54.0,-19.0,0.0
-1.0,-19.0,5.0,-18.0,0.0,-19.0,-5.0,-13.0,-40.0,-7.0,0.0
-21.0,-18.0,-3.0,-29.0,12.0,-9.0,-14.0,0.0,-3.0,-21.0,0.0
-44.0,-18.0,-53.0,-21.0,16.0,-16.0,-1.0,6.0,16.0,-35.0,0.0
-7.0,-11.0,-50.0,-3.0,26.0,-14.0,51.0,-6.0,64.0,2.0,0.0
22.0,-5.0,5.0,3.0,28.0,3.0,98.0,-8.0,118.0,24.0,0.0
19.0,26.0,-44.0,12.0,27.0,0.0,86.0,2.0,120.0,1.0,0.0
16.0,34.0,-23.0,9.0,14.0,-9.0,80.0,8.0,81.0,-6.0,0.0
25.0,20.0,16.0,1.0,12.0,-2.0,50.0,6.0,6.0,-7.0,0.0
11.0,-16.0,26.0,-9.0,11.0,-9.0,-35.0,-9.0,-167.0,-20.0,0.0
-8.0,-20.0,24.0,-3.0,12.0,4.0,-20.0,10.0,-28.0,-34.0,0.0
-5.0,-8.0,27.0,-11.0,13.0,-7.0,-30.0,-1.0,-14.0,-23.0,0.0
3.0,-15.0,34.0,-6.0,12.0,-3.0,-43.0,-15.0,-26.0,9.0,0.0
-6.0,-30.0,23.0,-11.0,6.0,-6.0,-59.0,-26.0,-28.0,28.0,0.0
-1.0,-36.0,2.0,-13.0,-2.0,-16.0,-69.0,-26.0,-10.0,17.0,0.0
10.0,-22.0,-16.0,-14.0,-7.0,-21.0,-65.0,-12.0,13.0,9.0,0.0
4.0,-17.0,7.0,-13.0,-11.0,-7.0,-53.0,-9.0,-9.0,-11.0,0.0
1.0,-11.0,8.0,-16.0,-15.0,-22.0,-62.0,-13.0,-35.0,-26.0,0.0
10.0,-24.0,21.0,-12.0,-20.0,-26.0,-45.0,-14.0,-51.0,-42.0,0.0
11.0,-27.0,12.0,-17.0,-25.0,-29.0,-9.0,0.0,-45.0,-38.0,0.0
6.0,-31.0,-3.0,-22.0,-27.0,-35.0,7.0,9.0,-18.0,-31.0,0.0
19.0,-30.0,1.0,-15.0,-15.0,-12.0,31.0,16.0,25.0,-43.0,0.0
17.0,-13.0,15.0,2.0,-14.0,-7.0,71.0,12.0,53.0,-52.0,0.0
-6.0,-6.0,21.0,10.0,-4.0,-13.0,95.0,9.0,93.0,-65.0,0.0
-16.0,6.0,15.0,5.0,-1.0,0.0,83.0,7.0,77.0,-80.0,0.0
0.0,12.0,5.0,12.0,0.0,-6.0,72.0,4.0,29.0,-81.0,0.0
5.0,23.0,-63.0,10.0,7.0,-4.0,45.0,-2.0,-1.0,-78.0,0.0
-17.0,-5.0,-73.0,24.0,18.0,-1.0,4.0,-13.0,-33.0,-98.0,0.0
-19.0,-19.0,7.0,25.0,17.0,-18.0,-17.0,-19.0,-42.0,-78.0,0.0
-14.0,-24.0,2.0,14.0,-1.0,-23.0,-19.0,-28.0,-35.0,11.0,0.0
-17.0,-21.0,-31.0,7.0,-5.0,0.0,-18.0,-44.0,-30.0,28.0,0.0
5.0,0.0,-18.0,13.0,11.0,1.0,-36.0,-62.0,-47.0,18.0,0.0
28.0,6.0,-5.0,14.0,26.0,8.0,-6.0,-46.0,-13.0,68.0,0.0
42.0,33.0,17.0,19.0,21.0,20.0,22.0,-22.0,66.0,106.0,0.0
23.0,34.0,25.0,11.0,12.0,13.0,27.0,-12.0,65.0,98.0,0.0
12.0,29.0,22.0,12.0,4.0,-1.0,39.0,-7.0,48.0,65.0,0.0
7.0,23.0,23.0,8.0,-5.0,11.0,57.0,5.0,58.0,44.0,0.0
18.0,4.0,29.0,1.0,-1.0,9.0,89.0,13.0,60.0,36.0,0.0
25.0,14.0,32.0,5.0,3.0,-6.0,96.0,5.0,53.0,20.0,0.0
39.0,21.0,26.0,21.0,8.0,-2.0,112.0,4.0,41.0,16.0,0.0
42.0,21.0,19.0,22.0,2.0,-1.0,106.0,21.0,15.0,8.0,0.0
36.0,34.0,13.0,17.0,1.0,-15.0,63.0,14.0,7.0,6.0,0.0
21.0,28.0,21.0,13.0,-3.0,-19.0,14.0,3.0,1.0,0.0,0.0
14.0,27.0,16.0,7.0,-10.0,-16.0,-9.0,1.0,2.0,-22.0,0.0
15.0,41.0,16.0,0.0,-28.0,-26.0,-26.0,13.0,19.0,-25.0,0.0
46.0,30.0,14.0,-6.0,-41.0,-13.0,-30.0,21.0,44.0,19.0,0.0
31.0,27.0,-2.0,4.0,-29.0,-7.0,-34.0,15.0,37.0,35.0,0.0
4.0,28.0,-72.0,6.0,-17.0,4.0,-50.0,5.0,44.0,13.0,0.0
-34.0,-2.0,-36.0,5.0,-4.0,16.0,-81.0,7.0,50.0,-11.0,0.0
-47.0,-29.0,9.0,5.0,8.0,18.0,-94.0,14.0,31.0,-27.0,0.0
-18.0,-23.0,-11.0,7.0,11.0,9.0,-67.0,30.0,22.0,-10.0,0.0
-7.0,3.0,-4.0,16.0,4.0,0.0,-38.0,35.0,39.0,-6.0,0.0
-23.0,-10.0,12.0,8.0,4.0,-1.0,-79.0,14.0,-89.0,-19.0,0.0
-29.0,-26.0,25.0,-3.0,3.0,-10.0,-95.0,-9.0,-206.0,-34.0,0.0
-12.0,5.0,7.0,4.0,-2.0,1.0,-33.0,7.0,-41.0,-22.0,0.0
0.0,-2.0,6.0,4.0,-15.0,8.0,-9.0,7.0,-27.0,13.0,0.0
15.0,0.0,18.0,0.0,-21.0,14.0,9.0,4.0,-24.0,35.0,0.0
7.0,-12.0,10.0,1.0,-2.0,2.0,-19.0,8.0,-20.0,15.0,0.0
-8.0,-16.0,2.0,-3.0,1.0,0.0,-57.0,5.0,-25.0,-11.0,0.0
-21.0,-22.0,0.0,-8.0,-2.0,8.0,-72.0,4.0,-30.0,-17.0,0.0
-16.0,-22.0,-15.0,-5.0,-7.0,-9.0,-85.0,15.0,-35.0,-11.0,0.0
4.0,-29.0,-92.0,-10.0,-7.0,-9.0,-122.0,14.0,-17.0,-7.0,0.0
12.0,-22.0,-110.0,-8.0,-4.0,18.0,-147.0,18.0,39.0,7.0,0.0
15.0,-18.0,-8.0,9.0,6.0,20.0,-147.0,22.0,92.0,29.0,0.0
-2.0,-2.0,-9.0,10.0,2.0,-2.0,-136.0,17.0,120.0,44.0,0.0
-22.0,-7.0,-62.0,0.0,-4.0,0.0,-134.0,24.0,122.0,30.0,0.0
-20.0,-11.0,-24.0,0.0,-13.0,1.0,-166.0,22.0,0.0,14.0,0.0
-22.0,-28.0,14.0,5.0,-9.0,-19.0,-205.0,14.0,-124.0,10.0,0.0
-8.0,0.0,11.0,26.0,-3.0,-7.0,-128.0,22.0,52.0,10.0,0.0
-10.0,9.0,-11.0,31.0,-9.0,2.0,-82.0,9.0,85.0,-1.0,0.0
-9.0,28.0,-93.0,31.0,-4.0,8.0,-58.0,0.0,40.0,-9.0,0.0
3.0,21.0,-43.0,19.0,2.0,0.0,-41.0,-10.0,-5.0,-12.0,0.0
17.0,15.0,13.0,9.0,0.0,-5.0,-8.0,-8.0,-1.0,-3.0,0.0
43.0,12.0,14.0,0.0,-3.0,-17.0,30.0,-2.0,-2.0,10.0,0.0
61.0,13.0,14.0,3.0,2.0,-29.0,36.0,0.0,-18.0,27.0,0.0
70.0,15.0,5.0,-11.0,-9.0,-24.0,10.0,1.0,-23.0,35.0,0.0
73.0,6.0,7.0,-11.0,-16.0,-27.0,-26.0,1.0,-14.0,32.0,0.0
49.0,10.0,1.0,-13.0,-17.0,-19.0,-59.0,-9.0,-27.0,24.0,0.0
5.0,-2.0,-2.0,-8.0,-18.0,-19.0,-85.0,-14.0,-35.0,19.0,0.0
-35.0,-17.0,12.0,-11.0,-17.0,-14.0,-93.0,-11.0,-31.0,-7.0,0.0
-44.0,-29.0,8.0,-12.0,-22.0,4.0,-104.0,-6.0,-33.0,-3.0,0.0
-50.0,-28.0,6.0,-16.0,-15.0,-4.0,-88.0,3.0,-10.0,1.0,0.0
-52.0,-19.0,19.0,-32.0,-4.0,7.0,-64.0,12.0,58.0,0.0,0.0
-61.0,-11.0,20.0,-23.0,7.0,18.0,-62.0,24.0,90.0,-24.0,0.0
-76.0,-7.0,13.0,-2.0,11.0,18.0,-45.0,13.0,63.0,-47.0,0.0
-71.0,15.0,12.0,7.0,5.0,18.0,-21.0,-9.0,6.0,-44.0,0.0
-61.0,17.0,11.0,5.0,9.0,20.0,9.0,-16.0,-18.0,-36.0,0.0
-61.0,-4.0,13.0,7.0,4.0,7.0,41.0,-7.0,-38.0,-55.0,0.0
-64.0,-22.0,29.0,11.0,-11.0,0.0,66.0,-8.0,-43.0,-66.0,0.0
-51.0,-26.0,20.0,14.0,-20.0,6.0,82.0,-20.0,-40.0,-54.0,0.0
-44.0,-13.0,7.0,27.0,-10.0,12.0,114.0,-41.0,-33.0,-38.0,0.0
-38.0,4.0,0.0,21.0,-12.0,0.0,97.0,-53.0,-25.0,-33.0,0.0
-37.0,-1.0,-21.0,19.0,-21.0,-7.0,77.0,-52.0,-29.0,-26.0,0.0
-22.0,12.0,-97.0,11.0,-30.0,-3.0,58.0,-32.0,-11.0,2.0,0.0
4.0,7.0,-85.0,0.0,-36.0,-14.0,42.0,-13.0,16.0,46.0,0.0
8.0,26.0,0.0,-3.0,-21.0,0.0,28.0,-5.0,30.0,49.0,0.0
-7.0,30.0,6.0,-13.0,-8.0,2.0,-1.0,-5.0,29.0,21.0,0.0
-14.0,33.0,0.0,-15.0,-6.0,-3.0,-40.0,-3.0,18.0,9.0,0.0
6.0,48.0,-3.0,-7.0,-14.0,-5.0,-44.0,-7.0,42.0,27.0,0.0
21.0,36.0,-4.0,0.0,-19.0,-9.0,-36.0,-6.0,65.0,21.0,0.0
14.0,23.0,-11.0,3.0,-16.0,-6.0,-36.0,1.0,87.0,11.0,0.0
-3.0,22.0,0.0,0.0,-3.0,3.0,-28.0,4.0,69.0,2.0,0.0
0.0,6.0,6.0,1.0,3.0,7.0,-17.0,-10.0,53.0,-8.0,0.0
16.0,-19.0,12.0,9.0,-3.0,5.0,5.0,-13.0,40.0,10.0,0.0
9.0,-8.0,18.0,12.0,-1.0,6.0,28.0,-17.0,20.0,34.0,0.0
3.0,13.0,29.0,10.0,-3.0,3.0,44.0,-2.0,28.0,52.0,0.0
6.0,29.0,27.0,9.0,-4.0,-11.0,39.0,-9.0,-10.0,41.0,0.0
-1.0,17.0,29.0,-9.0,12.0,3.0,27.0,-28.0,-61.0,13.0,0.0
-32.0,4.0,33.0,-13.0,6.0,18.0,-15.0,-46.0,-92.0,-37.0,0.0
-36.0,-1.0,18.0,-23.0,-10.0,6.0,-46.0,-48.0,-118.0,-59.0,0.0
-12.0,-14.0,-6.0,-42.0,-29.0,0.0,-46.0,-32.0,-89.0,-32.0,0.0
-3.0,-10.0,-15.0,-49.0,-30.0,-2.0,-53.0,-12.0,-60.0,-3.0,0.0
0.0,-12.0,-14.0,-44.0,-26.0,-16.0,-74.0,0.0,-52.0,-3.0,0.0
-5.0,4.0,-23.0,-20.0,-24.0,-23.0,-80.0,-8.0,-36.0,-26.0,0.0
-49.0,-9.0,-32.0,-26.0,-13.0,-15.0,-104.0,-4.0,-10.0,-89.0,0.0
-55.0,1.0,-45.0,-27.0,-8.0,-13.0,-109.0,0.0,15.0,-105.0,0.0
-35.0,5.0,-18.0,-14.0,-13.0,-15.0,-82.0,-8.0,29.0,-56.0,0.0
-8.0,17.0,-7.0,-6.0,-1.0,-11.0,-57.0,-1.0,39.0,17.0,0.0
-9.0,12.0,-10.0,11.0,8.0,10.0,-45.0,10.0,19.0,40.0,0.0
-42.0,-18.0,-15.0,23.0,16.0,24.0,-38.0,21.0,9.0,25.0,0.0
-45.0,-10.0,-73.0,33.0,32.0,23.0,-39.0,18.0,-22.0,3.0,0.0
-12.0,-8.0,-88.0,40.0,45.0,18.0,-12.0,-1.0,-41.0,17.0,0.0
5.0,11.0,18.0,39.0,40.0,13.0,15.0,-29.0,-26.0,68.0,0.0
0.0,10.0,33.0,28.0,29.0,14.0,48.0,-38.0,2.0,74.0,0.0
5.0,5.0,27.0,17.0,17.0,1.0,48.0,-23.0,3.0,44.0,0.0
28.0,11.0,17.0,13.0,9.0,11.0,17.0,-2.0,12.0,30.0,0.0
53.0,0.0,12.0,-3.0,-20.0,7.0,-47.0,1.0,-65.0,32.0,0.0
57.0,-8.0,18.0,-17.0,-34.0,-4.0,-109.0,12.0,-129.0,37.0,0.0
41.0,19.0,25.0,8.0,-19.0,5.0,-78.0,40.0,14.0,41.0,0.0
33.0,0.0,25.0,2.0,-6.0,2.0,-106.0,31.0,-12.0,40.0,0.0
29.0,-10.0,12.0,-6.0,1.0,11.0,-140.0,20.0,-13.0,28.0,0.0
31.0,-24.0,1.0,1.0,5.0,11.0,-150.0,23.0,-24.0,7.0,0.0
35.0,-34.0,-30.0,12.0,7.0,8.0,-124.0,28.0,-3.0,-5.0,0.0
22.0,-33.0,-62.0,8.0,4.0,14.0,-85.0,46.0,65.0,-11.0,0.0
17.0,-13.0,-74.0,-2.0,7.0,21.0,-51.0,45.0,129.0,-16.0,0.0
15.0,-24.0,-18.0,-4.0,12.0,23.0,-32.0,31.0,138.0,-11.0,0.0
6.0,-21.0,17.0,-11.0,3.0,12.0,-14.0,17.0,84.0,-16.0,0.0
-1.0,-20.0,15.0,-19.0,-16.0,5.0,0.0,21.0,18.0,-20.0,0.0
4.0,6.0,16.0,-22.0,-31.0,18.0,8.0,31.0,10.0,-9.0,0.0
19.0,6.0,26.0,-19.0,-26.0,23.0,36.0,28.0,7.0,7.0,0.0
18.0,11.0,7.0,-12.0,-20.0,12.0,57.0,32.0,17.0,1.0,0.0
5.0,6.0,-5.0,-2.0,-21.0,11.0,65.0,30.0,39.0,3.0,0.0
-2.0,8.0,-54.0,11.0,-21.0,12.0,41.0,13.0,25.0,7.0,0.0
-1.0,3.0,-16.0,19.0,-5.0,21.0,-3.0,0.0,-35.0,-3.0,0.0
12.0,-12.0,8.0,17.0,4.0,21.0,-58.0,-8.0,-74.0,-23.0,0.0
0.0,-1.0,14.0,15.0,8.0,4.0,-73.0,-14.0,-94.0,-51.0,0.0
-17.0,-12.0,16.0,6.0,10.0,-2.0,-84.0,-4.0,-78.0,-49.0,0.0
-17.0,-1.0,-30.0,0.0,14.0,11.0,-87.0,11.0,-56.0,-25.0,0.0
-4.0,-4.0,-61.0,7.0,17.0,24.0,-72.0,11.0,-32.0,-21.0,0.0
-9.0,15.0,5.0,11.0,13.0,11.0,-42.0,15.0,-14.0,-39.0,0.0
-32.0,2.0,23.0,0.0,2.0,3.0,-24.0,17.0,10.0,-52.0,0.0
-37.0,3.0,-26.0,-7.0,-1.0,-5.0,-20.0,8.0,-20.0,-60.0,0.0
-26.0,0.0,-66.0,-15.0,-8.0,-4.0,-1.0,-1.0,-45.0,-45.0,0.0
-1.0,-3.0,-3.0,-18.0,1.0,-3.0,16.0,-9.0,-20.0,33.0,0.0
-2.0,-1.0,6.0,-17.0,7.0,-8.0,30.0,5.0,6.0,90.0,0.0
-25.0,0.0,-67.0,-7.0,15.0,1.0,65.0,7.0,6.0,51.0,0.0
-28.0,22.0,-149.0,-2.0,24.0,11.0,71.0,-7.0,8.0,21.0,0.0
-33.0,10.0,-134.0,-3.0,20.0,13.0,67.0,-8.0,28.0,8.0,0.0
-40.0,-1.0,-113.0,0.0,23.0,20.0,26.0,-6.0,19.0,-12.0,0.0
-55.0,-14.0,-23.0,-3.0,21.0,13.0,-15.0,-20.0,36.0,-26.0,0.0
-65.0,-7.0,56.0,-13.0,17.0,8.0,-41.0,-5.0,57.0,-18.0,0.0
-56.0,-2.0,65.0,0.0,22.0,3.0,-91.0,15.0,41.0,-5.0,0.0
-44.0,-9.0,54.0,11.0,20.0,12.0,-141.0,27.0,43.0,-2.0,0.0
-22.0,1.0,-50.0,7.0,4.0,8.0,-153.0,33.0,55.0,25.0,0.0
15.0,6.0,-98.0,2.0,-16.0,-16.0,-137.0,19.0,41.0,32.0,0.0
21.0,7.0,0.0,14.0,-15.0,-23.0,-154.0,7.0,10.0,23.0,0.0
28.0,0.0,74.0,16.0,-9.0,-7.0,-170.0,-11.0,-26.0,32.0,0.0
27.0,19.0,54.0,4.0,-9.0,-4.0,-158.0,-29.0,-24.0,27.0,0.0
36.0,18.0,-50.0,-12.0,-16.0,-1.0,-161.0,-36.0,-35.0,14.0,0.0
48.0,2.0,-87.0,-16.0,-12.0,-2.0,-140.0,-38.0,-38.0,-5.0,0.0
41.0,17.0,1.0,-5.0,-7.0,8.0,-101.0,-36.0,-12.0,-12.0,0.0
30.0,-5.0,66.0,-2.0,-3.0,15.0,-77.0,-35.0,-5.0,-15.0,0.0
25.0,-17.0,64.0,-13.0,-10.0,7.0,-60.0,-33.0,20.0,-23.0,0.0
53.0,-13.0,57.0,-20.0,-15.0,-2.0,-52.0,-16.0,23.0,-16.0,0.0
58.0,2.0,43.0,-14.0,-21.0,-6.0,-53.0,-4.0,15.0,-10.0,0.0
51.0,4.0,34.0,-9.0,-20.0,3.0,-89.0,0.0,-5.0,12.0,0.0
53.0,5.0,33.0,-7.0,-20.0,10.0,-117.0,10.0,10.0,56.0,0.0
42.0,31.0,41.0,-5.0,-10.0,7.0,-136.0,9.0,8.0,45.0,0.0
32.0,23.0,54.0,13.0,-3.0,5.0,-146.0,-4.0,-36.0,11.0,0.0
39.0,27.0,53.0,7.0,-4.0,3.0,-165.0,-33.0,-76.0,-1.0,0.0
43.0,29.0,47.0,-6.0,-9.0,0.0,-166.0,-36.0,-71.0,-4.0,0.0
23.0,17.0,30.0,1.0,-14.0,13.0,-149.0,-31.0,-45.0,-24.0,0.0
5.0,12.0,36.0,4.0,-2.0,12.0,-144.0,-17.0,-23.0,-32.0,0.0
-6.0,21.0,9.0,4.0,2.0,0.0,-110.0,-13.0,-23.0,-45.0,0.0
-16.0,24.0,40.0,0.0,0.0,0.0,-70.0,-19.0,-13.0,-52.0,0.0
0.0,15.0,47.0,0.0,-4.0,1.0,-32.0,-14.0,5.0,-31.0,0.0
24.0,23.0,44.0,-5.0,-15.0,2.0,-5.0,-6.0,5.0,3.0,0.0
33.0,14.0,39.0,-6.0,-8.0,2.0,5.0,-1.0,-12.0,15.0,0.0
18.0,6.0,27.0,-5.0,-8.0,-3.0,53.0,-14.0,-31.0,2.0,0.0
9.0,23.0,-9.0,11.0,-19.0,-7.0,86.0,-29.0,-39.0,-28.0,0.0
-24.0,13.0,46.0,20.0,-24.0,-3.0,89.0,-40.0,-38.0,-65.0,0.0
-33.0,-16.0,43.0,-2.0,-19.0,-9.0,74.0,-31.0,-21.0,-60.0,0.0
-32.0,-14.0,36.0,-2.0,-17.0,-6.0,63.0,-18.0,10.0,-56.0,0.0
-62.0,-26.0,32.0,-7.0,-16.0,-8.0,29.0,-17.0,-7.0,-61.0,0.0
-78.0,-37.0,22.0,-20.0,-19.0,-23.0,-23.0,-34.0,-83.0,-30.0,0.0
-32.0,-9.0,-42.0,-1.0,-18.0,-1.0,24.0,17.0,156.0,80.0,0.0
-2.0,-8.0,-87.0,7.0,-21.0,-5.0,45.0,43.0,219.0,127.0,0.0
1.0,-4.0,2.0,20.0,-15.0,-4.0,48.0,41.0,184.0,111.0,0.0
-15.0,-16.0,29.0,25.0,-6.0,12.0,55.0,40.0,163.0,98.0,0.0
-13.0,-2.0,41.0,12.0,6.0,11.0,85.0,39.0,135.0,78.0,0.0
-2.0,-6.0,51.0,10.0,4.0,3.0,123.0,39.0,127.0,44.0,0.0
19.0,2.0,40.0,7.0,-2.0,-7.0,129.0,29.0,87.0,44.0,0.0
43.0,20.0,15.0,38.0,-2.0,11.0,136.0,25.0,25.0,55.0,0.0
49.0,13.0,-64.0,41.0,-7.0,16.0,136.0,11.0,-15.0,42.0,0.0
35.0,14.0,-39.0,20.0,-10.0,18.0,136.0,0.0,-14.0,25.0,0.0
-1.0,11.0,20.0,20.0,0.0,19.0,142.0,0.0,-23.0,-7.0,0.0
-21.0,10.0,32.0,11.0,5.0,17.0,164.0,-10.0,-53.0,-29.0,0.0
-29.0,23.0,34.0,0.0,-3.0,4.0,167.0,-19.0,-47.0,-23.0,0.0
-18.0,20.0,23.0,-13.0,-9.0,7.0,151.0,-10.0,-23.0,8.0,0.0
-32.0,-2.0,14.0,-14.0,-9.0,18.0,97.0,3.0,-3.0,29.0,0.0
-63.0,-15.0,-29.0,0.0,-5.0,19.0,7.0,1.0,22.0,40.0,0.0
-79.0,-25.0,-7.0,7.0,3.0,27.0,-42.0,8.0,27.0,32.0,0.0
-79.0,-19.0,14.0,6.0,19.0,45.0,-59.0,6.0,29.0,17.0,0.0
-69.0,-8.0,18.0,9.0,24.0,37.0,-58.0,1.0,44.0,5.0,0.0
-56.0,-3.0,10.0,5.0,17.0,22.0,-80.0,-4.0,45.0,1.0,0.0
-41.0,0.0,-7.0,9.0,12.0,19.0,-117.0,-7.0,21.0,2.0,0.0
-46.0,-17.0,-41.0,17.0,13.0,18.0,-147.0,-13.0,10.0,-20.0,0.0
-45.0,-27.0,-131.0,37.0,14.0,20.0,-173.0,-17.0,-20.0,-22.0,0.0
-40.0,-37.0,-107.0,28.0,28.0,10.0,-166.0,-13.0,-45.0,-29.0,0.0
-22.0,-25.0,-30.0,23.0,20.0,9.0,-149.0,-7.0,-51.0,-28.0,0.0
-1.0,-7.0,22.0,32.0,-7.0,12.0,-121.0,-27.0,-67.0,-29.0,0.0
13.0,-5.0,27.0,30.0,-16.0,17.0,-103.0,-41.0,-80.0,-29.0,0.0
21.0,-8.0,26.0,8.0,-11.0,10.0,-91.0,-38.0,-81.0,-18.0,0.0
40.0,1.0,22.0,0.0,-9.0,4.0,-88.0,-36.0,-75.0,-8.0,0.0
30.0,-11.0,-41.0,4.0,-14.0,-14.0,-97.0,-43.0,-72.0,-19.0,0.0
6.0,23.0,-75.0,-3.0,-10.0,-25.0,-129.0,-38.0,-78.0,-63.0,0.0
-6.0,16.0,-2.0,-12.0,-8.0,-12.0,-124.0,-36.0,-86.0,-88.0,0.0
-22.0,-2.0,-47.0,-12.0,-8.0,1.0,-108.0,-32.0,-79.0,-66.0,0.0
-21.0,-4.0,-48.0,-10.0,5.0,17.0,-94.0,-21.0,-47.0,-6.0,0.0
-19.0,-15.0,-22.0,-12.0,5.0,17.0,-73.0,-8.0,-12.0,26.0,0.0
-37.0,-4.0,-29.0,-3.0,10.0,21.0,-76.0,3.0,-7.0,17.0,0.0
-32.0,-4.0,15.0,12.0,19.0,20.0,-101.0,5.0,0.0,-5.0,0.0
-27.0,7.0,27.0,12.0,15.0,2.0,-117.0,14.0,50.0,-8.0,0.0
-15.0,10.0,28.0,26.0,7.0,-4.0,-104.0,17.0,103.0,9.0,0.0
-10.0,10.0,36.0,30.0,16.0,-7.0,-59.0,16.0,109.0,6.0,0.0
-21.0,15.0,29.0,10.0,13.0,-9.0,-26.0,26.0,100.0,-8.0,0.0
-32.0,-7.0,21.0,-6.0,10.0,-21.0,-47.0,21.0,-38.0,-15.0,0.0
-13.0,-20.0,18.0,-23.0,7.0,-43.0,-55.0,19.0,-176.0,15.0,0.0
-12.0,-25.0,4.0,-12.0,8.0,-50.0,6.0,28.0,-125.0,43.0,0.0
-9.0,-4.0,-9.0,10.0,14.0,-27.0,88.0,40.0,53.0,44.0,0.0
7.0,19.0,-19.0,9.0,12.0,-22.0,91.0,22.0,66.0,40.0,0.0
24.0,-22.0,-39.0,-8.0,4.0,-27.0,32.0,0.0,-65.0,33.0,0.0
36.0,-31.0,-2.0,-27.0,0.0,-25.0,-3.0,3.0,-88.0,12.0,0.0
30.0,-9.0,15.0,-5.0,0.0,-8.0,32.0,40.0,66.0,-13.0,0.0
12.0,-8.0,11.0,1.0,10.0,-13.0,28.0,45.0,51.0,-39.0,0.0
-14.0,-36.0,4.0,-10.0,23.0,-14.0,-39.0,7.0,-133.0,-64.0,0.0
-12.0,-30.0,-33.0,-1.0,16.0,1.0,-72.0,-1.0,-136.0,-72.0,0.0
8.0,15.0,-27.0,-5.0,3.0,3.0,-15.0,17.0,13.0,-27.0,0.0
34.0,8.0,3.0,-8.0,5.0,-19.0,12.0,-5.0,58.0,24.0,0.0
33.0,10.0,4.0,-2.0,3.0,-18.0,23.0,-22.0,56.0,23.0,0.0
29.0,12.0,5.0,-7.0,2.0,-5.0,36.0,-19.0,15.0,-3.0,0.0
50.0,31.0,5.0,-9.0,6.0,-9.0,74.0,-21.0,19.0,0.0,0.0
50.0,36.0,0.0,-5.0,3.0,-8.0,122.0,-14.0,12.0,15.0,0.0
34.0,-20.0,-4.0,-12.0,3.0,-18.0,115.0,-28.0,-112.0,-17.0,0.0
4.0,-33.0,-4.0,-14.0,0.0,-16.0,126.0,-31.0,-168.0,-48.0,0.0
-13.0,-7.0,-1.0,-2.0,-4.0,4.0,210.0,-1.0,-15.0,-31.0,0.0
-2.0,-6.0,-4.0,1.0,0.0,6.0,223.0,-1.0,-2.0,5.0,0.0
17.0,3.0,0.0,7.0,-10.0,-1.0,213.0,-7.0,40.0,39.0,0.0
15.0,0.0,8.0,7.0,-16.0,-18.0,183.0,9.0,107.0,51.0,0.0
19.0,14.0,17.0,-3.0,-3.0,-10.0,161.0,21.0,157.0,41.0,0.0
24.0,12.0,22.0,-7.0,-1.0,-5.0,143.0,15.0,178.0,29.0,0.0
30.0,21.0,3.0,0.0,-15.0,-10.0,113.0,9.0,131.0,11.0,0.0
36.0,21.0,-74.0,14.0,-9.0,-14.0,77.0,7.0,75.0,2.0,0.0
45.0,22.0,-19.0,0.0,-16.0,-12.0,56.0,5.0,43.0,9.0,0.0
60.0,34.0,26.0,-20.0,-19.0,-24.0,44.0,-5.0,11.0,0.0,0.0
70.0,23.0,22.0,-17.0,-14.0,-24.0,23.0,-7.0,-2.0,5.0,0.0
90.0,5.0,12.0,-6.0,-1.0,-4.0,31.0,-3.0,2.0,28.0,0.0
95.0,24.0,3.0,-13.0,-1.0,-2.0,58.0,1.0,23.0,94.0,0.0
64.0,27.0,-27.0,-9.0,-9.0,-15.0,59.0,-1.0,64.0,103.0,0.0
30.0,23.0,-43.0,-10.0,-10.0,-15.0,60.0,2.0,68.0,59.0,0.0
12.0,32.0,23.0,-7.0,-10.0,-6.0,63.0,1.0,52.0,18.0,0.0
-7.0,34.0,23.0,-8.0,-11.0,-20.0,58.0,6.0,45.0,14.0,0.0
-24.0,-5.0,28.0,4.0,0.0,-6.0,45.0,12.0,34.0,25.0,0.0
-26.0,-1.0,29.0,10.0,12.0,19.0,13.0,14.0,0.0,23.0,0.0
-24.0,0.0,26.0,25.0,4.0,29.0,-25.0,21.0,-31.0,19.0,0.0
-20.0,-19.0,19.0,23.0,10.0,20.0,-81.0,8.0,-47.0,-11.0,0.0
-24.0,-14.0,-8.0,18.0,22.0,18.0,-119.0,-10.0,-48.0,-50.0,0.0
-37.0,-31.0,15.0,21.0,31.0,23.0,-145.0,-20.0,-58.0,-73.0,0.0
-45.0,-47.0,26.0,18.0,38.0,43.0,-178.0,-34.0,-63.0,-111.0,0.0
-54.0,-52.0,34.0,13.0,40.0,52.0,-193.0,-32.0,-76.0,-143.0,0.0
-43.0,-46.0,28.0,14.0,36.0,40.0,-216.0,-40.0,-77.0,-155.0,0.0
-13.0,-14.0,29.0,9.0,12.0,29.0,-247.0,-28.0,-68.0,-147.0,0.0
4.0,-5.0,22.0,-13.0,-10.0,25.0,-237.0,-6.0,-43.0,-108.0,0.0
22.0,-4.0,15.0,-18.0,-12.0,20.0,-205.0,2.0,1.0,-2.0,0.0
12.0,-3.0,20.0,-9.0,-8.0,20.0,-197.0,-1.0,22.0,100.0,0.0
-4.0,-19.0,29.0,-7.0,-10.0,6.0,-207.0,0.0,-15.0,115.0,0.0
-6.0,-17.0,27.0,-10.0,-6.0,-3.0,-196.0,-2.0,-10.0,64.0,0.0
-10.0,-1.0,22.0,-8.0,1.0,5.0,-165.0,1.0,17.0,37.0,0.0
-25.0,-2.0,13.0,-11.0,3.0,11.0,-145.0,8.0,49.0,23.0,0.0
-30.0,-6.0,18.0,-13.0,3.0,8.0,-142.0,7.0,32.0,8.0,0.0
-26.0,-6.0,19.0,-12.0,11.0,11.0,-182.0,6.0,-1.0,2.0,0.0
-23.0,-1.0,-54.0,-3.0,11.0,14.0,-239.0,2.0,-25.0,-12.0,0.0
-31.0,-3.0,-39.0,-2.0,6.0,19.0,-272.0,0.0,-6.0,-20.0,0.0
-44.0,-16.0,-5.0,-8.0,-7.0,13.0,-264.0,-2.0,19.0,-36.0,0.0
-41.0,-7.0,16.0,-14.0,-12.0,-9.0,-263.0,3.0,52.0,-39.0,0.0
-33.0,-19.0,-10.0,-16.0,-14.0,-12.0,-296.0,-1.0,41.0,-20.0,0.0
-30.0,-23.0,0.0,-17.0,-11.0,-16.0,-298.0,10.0,19.0,-4.0,0.0
-20.0,-16.0,15.0,-16.0,-17.0,-24.0,-304.0,40.0,14.0,-3.0,0.0
-21.0,0.0,16.0,3.0,-10.0,-15.0,-321.0,49.0,-21.0,-12.0,0.0
0.0,0.0,32.0,21.0,4.0,2.0,-302.0,20.0,-57.0,-1.0,0.0
19.0,10.0,40.0,12.0,19.0,12.0,-272.0,-11.0,-66.0,6.0,0.0
33.0,1.0,43.0,20.0,21.0,17.0,-251.0,-33.0,-81.0,-9.0,0.0
41.0,5.0,-12.0,16.0,29.0,10.0,-215.0,-23.0,-65.0,-21.0,0.0
44.0,-5.0,-119.0,10.0,26.0,-9.0,-187.0,-9.0,-32.0,-20.0,0.0
22.0,2.0,-67.0,16.0,18.0,-16.0,-152.0,-1.0,-8.0,-19.0,0.0
3.0,0.0,-10.0,15.0,13.0,-6.0,-142.0,6.0,-8.0,-22.0,0.0
-9.0,14.0,9.0,16.0,18.0,9.0,-133.0,6.0,-6.0,-14.0,0.0
-2.0,12.0,22.0,30.0,15.0,18.0,-127.0,10.0,5.0,5.0,0.0
27.0,12.0,20.0,33.0,13.0,13.0,-133.0,19.0,16.0,9.0,0.0
35.0,11.0,16.0,28.0,10.0,16.0,-149.0,12.0,33.0,18.0,0.0
26.0,11.0,23.0,17.0,16.0,2.0,-168.0,1.0,32.0,4.0,0.0
37.0,19.0,19.0,2.0,12.0,-17.0,-191.0,-9.0,31.0,0.0,0.0
37.0,16.0,21.0,-4.0,2.0,-11.0,-190.0,-24.0,0.0,-13.0,0.0
17.0,5.0,9.0,-18.0,-11.0,-16.0,-207.0,-24.0,-42.0,-32.0,0.0
0.0,-11.0,-4.0,-21.0,-22.0,-21.0,-204.0,-14.0,-43.0,-10.0,0.0
-29.0,-16.0,-6.0,-28.0,-30.0,-17.0,-197.0,-2.0,-1.0,-18.0,0.0
-42.0,-26.0,-4.0,-25.0,-29.0,-6.0,-167.0,11.0,61.0,-28.0,0.0
-37.0,-18.0,8.0,-24.0,-27.0,10.0,-147.0,20.0,112.0,-8.0,0.0
-9.0,6.0,19.0,-21.0,-24.0,-7.0,-125.0,12.0,138.0,18.0,0.0
15.0,21.0,10.0,-15.0,-23.0,-22.0,-91.0,14.0,153.0,39.0,0.0
24.0,26.0,-1.0,-15.0,-23.0,-21.0,-92.0,26.0,141.0,47.0,0.0
25.0,16.0,-28.0,-11.0,-23.0,-8.0,-95.0,33.0,94.0,57.0,0.0
3.0,29.0,-10.0,-9.0,-12.0,-6.0,-97.0,34.0,51.0,35.0,0.0
-3.0,31.0,22.0,7.0,-5.0,-1.0,-98.0,22.0,7.0,14.0,0.0
6.0,8.0,27.0,4.0,-10.0,3.0,-114.0,18.0,-26.0,-2.0,0.0
-5.0,0.0,19.0,13.0,-5.0,10.0,-125.0,5.0,-74.0,-17.0,0.0
-26.0,-20.0,21.0,16.0,4.0,18.0,-142.0,-17.0,-130.0,-29.0,0.0
-34.0,-18.0,16.0,13.0,-3.0,17.0,-160.0,-26.0,-141.0,-43.0,0.0
-11.0,-23.0,6.0,13.0,-15.0,11.0,-187.0,-14.0,-110.0,-41.0,0.0
0.0,-15.0,5.0,14.0,-24.0,5.0,-203.0,-5.0,-77.0,-24.0,0.0
0.0,-11.0,6.0,14.0,-24.0,-9.0,-209.0,-38.0,-63.0,-14.0,0.0
-3.0,13.0,29.0,6.0,-18.0,4.0,-202.0,-50.0,-74.0,-30.0,0.0
-2.0,19.0,31.0,8.0,0.0,14.0,-180.0,-40.0,-76.0,-23.0,0.0
12.0,22.0,21.0,4.0,0.0,7.0,-158.0,-44.0,-43.0,-16.0,0.0
-4.0,36.0,14.0,3.0,-15.0,5.0,-122.0,-28.0,-30.0,-10.0,0.0
-38.0,35.0,14.0,-7.0,-9.0,4.0,-128.0,-19.0,-49.0,-29.0,0.0
-47.0,22.0,2.0,-13.0,-4.0,-5.0,-126.0,-38.0,-53.0,-59.0,0.0
-42.0,21.0,4.0,2.0,-1.0,-7.0,-114.0,-42.0,-39.0,-50.0,0.0
-30.0,7.0,-6.0,12.0,-15.0,-16.0,-85.0,-34.0,-26.0,-27.0,0.0
-2.0,4.0,-1.0,0.0,-29.0,-34.0,-62.0,-23.0,1.0,-17.0,0.0
-4.0,19.0,9.0,-3.0,-11.0,-25.0,-74.0,-5.0,21.0,-8.0,0.0
-45.0,16.0,-4.0,-7.0,7.0,-12.0,-93.0,9.0,75.0,-56.0,0.0
-49.0,19.0,-58.0,-1.0,7.0,-4.0,-125.0,15.0,128.0,-70.0,0.0
-30.0,28.0,-74.0,5.0,2.0,-6.0,-140.0,18.0,129.0,-6.0,0.0
1.0,19.0,-23.0,5.0,8.0,-11.0,-144.0,23.0,112.0,114.0,0.0
24.0,23.0,26.0,-6.0,0.0,-1.0,-187.0,36.0,105.0,148.0,0.0
40.0,39.0,26.0,-28.0,-14.0,-5.0,-211.0,52.0,98.0,109.0,0.0
39.0,47.0,19.0,-21.0,-8.0,-17.0,-215.0,48.0,72.0,62.0,0.0
46.0,43.0,-3.0,-9.0,3.0,-4.0,-227.0,18.0,25.0,29.0,0.0
43.0,31.0,-50.0,-8.0,12.0,11.0,-250.0,-10.0,-22.0,2.0,0.0
25.0,18.0,-33.0,-15.0,0.0,5.0,-249.0,-9.0,-35.0,12.0,0.0
5.0,0.0,-68.0,-52.0,-11.0,-21.0,-280.0,-27.0,-172.0,14.0,0.0
8.0,8.0,-151.0,-58.0,-13.0,-19.0,-260.0,3.0,-127.0,30.0,0.0
25.0,26.0,-149.0,-22.0,-8.0,-11.0,-191.0,20.0,23.0,62.0,0.0
34.0,0.0,-108.0,-13.0,-4.0,-9.0,-156.0,-2.0,83.0,76.0,0.0
2.0,-12.0,-3.0,-13.0,-11.0,2.0,-174.0,1.0,71.0,51.0,0.0
-19.0,-37.0,35.0,-19.0,9.0,-2.0,-187.0,7.0,10.0,16.0,0.0
-39.0,-48.0,37.0,-12.0,28.0,-2.0,-199.0,4.0,-8.0,-15.0,0.0
-31.0,-40.0,41.0,-13.0,22.0,-2.0,-237.0,-1.0,-8.0,-2.0,0.0
-26.0,-42.0,32.0,-5.0,13.0,-3.0,-266.0,-1.0,0.0,3.0,0.0
-38.0,-44.0,29.0,10.0,12.0,-9.0,-294.0,-1.0,-21.0,-13.0,0.0
-32.0,-21.0,24.0,21.0,21.0,-8.0,-323.0,-18.0,-40.0,-26.0,0.0
-11.0,-15.0,17.0,16.0,27.0,1.0,-311.0,-24.0,-56.0,-33.0,0.0
0.0,-11.0,22.0,8.0,21.0,0.0,-288.0,-28.0,-48.0,-28.0,0.0
8.0,-11.0,21.0,16.0,22.0,-20.0,-291.0,-19.0,-31.0,-25.0,0.0
17.0,-7.0,16.0,13.0,15.0,-18.0,-284.0,-23.0,-18.0,-33.0,0.0
-5.0,9.0,8.0,17.0,6.0,3.0,-248.0,-32.0,-31.0,-46.0,0.0
-25.0,12.0,10.0,29.0,6.0,8.0,-212.0,-36.0,-52.0,-69.0,0.0
-42.0,0.0,1.0,17.0,9.0,-4.0,-184.0,-19.0,-58.0,-63.0,0.0
-22.0,0.0,-1.0,5.0,12.0,-17.0,-135.0,-6.0,-49.0,-9.0,0.0
4.0,-12.0,1.0,5.0,12.0,-7.0,-90.0,3.0,-33.0,41.0,0.0
9.0,-2.0,7.0,8.0,9.0,3.0,-42.0,1.0,-15.0,31.0,0.0
0.0,-1.0,15.0,3.0,7.0,-6.0,-3.0,-8.0,-14.0,-6.0,0.0
4.0,7.0,16.0,1.0,10.0,-6.0,-4.0,-28.0,-22.0,-40.0,0.0
-10.0,21.0,11.0,8.0,5.0,5.0,3.0,-18.0,-9.0,-69.0,0.0
-13.0,12.0,7.0,11.0,3.0,-10.0,1.0,-4.0,-7.0,-52.0,0.0
14.0,-15.0,0.0,-4.0,-3.0,-47.0,-49.0,-29.0,-153.0,9.0,0.0
44.0,10.0,1.0,3.0,0.0,-41.0,-10.0,-17.0,-48.0,60.0,0.0
57.0,29.0,0.0,-2.0,0.0,-36.0,42.0,6.0,58.0,95.0,0.0
42.0,12.0,-16.0,-6.0,-7.0,-43.0,19.0,22.0,47.0,82.0,0.0
15.0,-1.0,-25.0,-23.0,-16.0,-43.0,-26.0,8.0,-82.0,61.0,0.0
14.0,-3.0,-20.0,-29.0,-19.0,-50.0,-17.0,-5.0,-160.0,54.0,0.0
25.0,21.0,-4.0,-1.0,3.0,-18.0,70.0,28.0,30.0,39.0,0.0
18.0,17.0,2.0,8.0,19.0,-10.0,106.0,35.0,104.0,24.0,0.0
4.0,0.0,3.0,8.0,18.0,-9.0,126.0,26.0,176.0,8.0,0.0
-6.0,-28.0,5.0,4.0,21.0,3.0,140.0,32.0,137.0,2.0,0.0
-10.0,-25.0,13.0,1.0,15.0,1.0,181.0,32.0,62.0,2.0,0.0
-15.0,-27.0,9.0,1.0,17.0,-14.0,221.0,32.0,27.0,-9.0,0.0
-16.0,-30.0,4.0,7.0,13.0,-7.0,265.0,27.0,12.0,-7.0,0.0
24.0,-22.0,4.0,2.0,5.0,-5.0,292.0,39.0,7.0,20.0,0.0
33.0,-5.0,-20.0,2.0,-4.0,-14.0,298.0,47.0,-13.0,26.0,0.0
17.0,28.0,1.0,10.0,13.0,2.0,264.0,20.0,-65.0,10.0,0.0
2.0,17.0,14.0,12.0,28.0,13.0,230.0,-9.0,-121.0,-16.0,0.0
-11.0,2.0,22.0,-3.0,27.0,11.0,203.0,-14.0,-131.0,-57.0,0.0
-16.0,4.0,18.0,-21.0,28.0,9.0,191.0,-10.0,-61.0,-65.0,0.0
-6.0,-19.0,-10.0,-8.0,25.0,8.0,191.0,5.0,-20.0,-36.0,0.0
6.0,-9.0,-23.0,-6.0,13.0,-4.0,184.0,0.0,13.0,-6.0,0.0
39.0,-8.0,2.0,-11.0,-7.0,4.0,185.0,17.0,48.0,32.0,0.0
48.0,0.0,4.0,-4.0,-16.0,9.0,201.0,14.0,60.0,51.0,0.0
26.0,2.0,13.0,2.0,-17.0,-3.0,200.0,-11.0,28.0,38.0,0.0
2.0,-7.0,25.0,0.0,-25.0,-11.0,186.0,-26.0,14.0,-9.0,0.0
3.0,-7.0,9.0,0.0,-23.0,-9.0,176.0,-18.0,30.0,-41.0,0.0
10.0,-21.0,0.0,4.0,-21.0,-7.0,205.0,-3.0,77.0,-28.0,0.0
13.0,-16.0,-68.0,-3.0,-16.0,-7.0,248.0,16.0,96.0,-10.0,0.0
5.0,-23.0,-142.0,0.0,-12.0,-4.0,292.0,35.0,88.0,-9.0,0.0
14.0,-9.0,-76.0,2.0,-5.0,-10.0,294.0,39.0,51.0,0.0,0.0
19.0,-23.0,26.0,5.0,2.0,-2.0,273.0,42.0,16.0,4.0,0.0
16.0,-23.0,35.0,19.0,6.0,7.0,257.0,46.0,-2.0,-18.0,0.0
-12.0,-15.0,36.0,11.0,21.0,-6.0,192.0,28.0,-37.0,-66.0,0.0
-33.0,-18.0,40.0,2.0,27.0,1.0,154.0,4.0,-61.0,-77.0,0.0
-23.0,-14.0,34.0,-1.0,30.0,0.0,150.0,1.0,-31.0,25.0,0.0
0.0,9.0,34.0,12.0,25.0,-6.0,150.0,5.0,17.0,144.0,0.0
-2.0,3.0,33.0,13.0,14.0,9.0,121.0,4.0,-15.0,142.0,0.0
-6.0,19.0,37.0,4.0,8.0,10.0,117.0,2.0,-56.0,85.0,0.0
7.0,41.0,43.0,-1.0,5.0,9.0,100.0,8.0,-68.0,47.0,0.0
4.0,16.0,25.0,0.0,13.0,15.0,99.0,7.0,-59.0,43.0,0.0
-10.0,7.0,6.0,13.0,-1.0,21.0,121.0,12.0,-49.0,36.0,0.0
-13.0,24.0,12.0,35.0,-15.0,-2.0,147.0,12.0,-46.0,39.0,0.0
-19.0,-14.0,11.0,42.0,-29.0,-26.0,160.0,4.0,-61.0,30.0,0.0
-38.0,-32.0,8.0,19.0,-39.0,-53.0,145.0,-28.0,-183.0,18.0,0.0
-41.0,-6.0,5.0,28.0,-35.0,-39.0,231.0,-5.0,-18.0,14.0,0.0
-31.0,-1.0,8.0,20.0,-33.0,-8.0,263.0,10.0,77.0,18.0,0.0
-23.0,10.0,3.0,-21.0,-7.0,0.0,242.0,2.0,43.0,19.0,0.0
-6.0,-18.0,-23.0,-45.0,3.0,-17.0,191.0,-20.0,-120.0,11.0,0.0
-2.0,12.0,-3.0,-34.0,2.0,8.0,221.0,-14.0,-15.0,11.0,0.0
-22.0,17.0,-14.0,-31.0,-2.0,16.0,194.0,-25.0,-21.0,6.0,0.0
-28.0,0.0,-61.0,-18.0,-9.0,7.0,171.0,-27.0,-35.0,-2.0,0.0
-21.0,10.0,-66.0,-4.0,-22.0,10.0,155.0,-18.0,-30.0,-10.0,0.0
-5.0,5.0,7.0,10.0,-13.0,16.0,135.0,-11.0,-32.0,-7.0,0.0
-26.0,-2.0,16.0,14.0,-8.0,3.0,99.0,-15.0,-45.0,-44.0,0.0
-53.0,0.0,5.0,9.0,-11.0,1.0,103.0,-22.0,-66.0,-73.0,0.0
-42.0,-2.0,1.0,-6.0,-7.0,4.0,123.0,-27.0,-76.0,-79.0,0.0
-28.0,6.0,9.0,-7.0,-5.0,-5.0,140.0,-26.0,-47.0,-53.0,0.0
-29.0,-5.0,6.0,-2.0,-2.0,-5.0,159.0,-23.0,-28.0,-25.0,0.0
-29.0,-12.0,6.0,-3.0,-2.0,6.0,165.0,-4.0,7.0,-11.0,0.0
-44.0,-37.0,-6.0,-9.0,-2.0,-2.0,187.0,15.0,53.0,-18.0,0.0
-55.0,-47.0,-49.0,-8.0,1.0,-10.0,195.0,19.0,99.0,-48.0,0.0
-42.0,-44.0,-22.0,-11.0,3.0,10.0,226.0,20.0,141.0,-40.0,0.0
-18.0,-27.0,-10.0,-16.0,5.0,3.0,271.0,25.0,150.0,-22.0,0.0
11.0,-19.0,-88.0,-18.0,9.0,1.0,302.0,26.0,142.0,4.0,0.0
32.0,-2.0,-60.0,-12.0,14.0,17.0,299.0,32.0,105.0,33.0,0.0
17.0,17.0,-96.0,7.0,9.0,27.0,260.0,32.0,55.0,20.0,0.0
-3.0,25.0,-25.0,24.0,17.0,27.0,212.0,6.0,13.0,-3.0,0.0
-4.0,14.0,19.0,24.0,18.0,34.0,168.0,-13.0,-34.0,4.0,0.0
-1.0,14.0,30.0,26.0,10.0,44.0,146.0,-19.0,-46.0,18.0,0.0
-3.0,13.0,42.0,23.0,8.0,50.0,127.0,-25.0,-34.0,20.0,0.0
17.0,5.0,36.0,24.0,4.0,35.0,111.0,-33.0,-11.0,13.0,0.0
4.0,4.0,30.0,30.0,-4.0,17.0,86.0,-25.0,7.0,2.0,0.0
4.0,2.0,27.0,7.0,-8.0,6.0,58.0,-12.0,14.0,-14.0,0.0
27.0,31.0,28.0,-6.0,-9.0,-3.0,67.0,-6.0,20.0,-21.0,0.0
20.0,45.0,14.0,-8.0,-13.0,-15.0,64.0,-8.0,18.0,-19.0,0.0
8.0,19.0,-1.0,-2.0,-11.0,-25.0,78.0,-9.0,41.0,-14.0,0.0
6.0,-1.0,13.0,-6.0,-15.0,-10.0,92.0,5.0,94.0,-2.0,0.0
-1.0,-5.0,8.0,-22.0,-18.0,-4.0,97.0,6.0,127.0,0.0,0.0
10.0,-16.0,6.0,-29.0,-17.0,-8.0,114.0,17.0,112.0,16.0,0.0
29.0,-1.0,17.0,-9.0,-15.0,0.0,120.0,36.0,67.0,31.0,0.0
33.0,-3.0,13.0,-9.0,-17.0,1.0,120.0,35.0,49.0,36.0,0.0
25.0,3.0,-10.0,1.0,-12.0,-12.0,95.0,23.0,42.0,26.0,0.0
9.0,-12.0,-15.0,6.0,-6.0,-6.0,51.0,14.0,21.0,11.0,0.0
-11.0,-10.0,21.0,8.0,4.0,18.0,-9.0,6.0,-12.0,6.0,0.0
-6.0,-9.0,24.0,14.0,0.0,9.0,-37.0,-13.0,-34.0,-8.0,0.0
-4.0,-6.0,14.0,4.0,-2.0,-5.0,-44.0,-14.0,-31.0,-26.0,0.0
6.0,-3.0,7.0,-3.0,-6.0,6.0,-47.0,-14.0,-43.0,-22.0,0.0
27.0,-10.0,3.0,-1.0,-14.0,13.0,-60.0,-6.0,-53.0,-18.0,0.0
16.0,-14.0,2.0,6.0,-10.0,1.0,-71.0,-8.0,-66.0,-19.0,0.0
18.0,-14.0,1.0,1.0,12.0,-3.0,-78.0,-15.0,-66.0,-24.0,0.0
34.0,-3.0,2.0,8.0,20.0,13.0,-73.0,0.0,-62.0,-29.0,0.0
22.0,-4.0,0.0,14.0,19.0,25.0,-70.0,23.0,-55.0,-30.0,0.0
6.0,11.0,0.0,17.0,22.0,19.0,-48.0,17.0,-62.0,-32.0,0.0
14.0,15.0,4.0,20.0,21.0,6.0,-1.0,6.0,-59.0,0.0,0.0
20.0,23.0,-14.0,9.0,18.0,4.0,25.0,7.0,-13.0,61.0,0.0
41.0,45.0,-15.0,-11.0,5.0,-3.0,68.0,11.0,38.0,101.0,0.0
43.0,30.0,-6.0,-15.0,4.0,-4.0,99.0,13.0,77.0,95.0,0.0
30.0,28.0,-6.0,-3.0,2.0,-2.0,102.0,0.0,82.0,66.0,0.0
-1.0,44.0,-31.0,-10.0,-2.0,5.0,72.0,-2.0,76.0,17.0,0.0
-9.0,30.0,-56.0,-10.0,0.0,17.0,45.0,8.0,80.0,-13.0,0.0
-7.0,12.0,-29.0,-11.0,-6.0,-2.0,43.0,11.0,75.0,-30.0,0.0
11.0,4.0,-17.0,-8.0,-13.0,-21.0,22.0,18.0,58.0,-30.0,0.0
24.0,-4.0,-57.0,-15.0,-13.0,-12.0,-13.0,27.0,40.0,-18.0,0.0
39.0,-14.0,-42.0,-4.0,-4.0,1.0,-40.0,28.0,37.0,-14.0,0.0
35.0,7.0,2.0,-8.0,0.0,4.0,-43.0,10.0,21.0,-10.0,0.0
0.0,-14.0,-11.0,-11.0,3.0,3.0,-52.0,5.0,-26.0,-34.0,0.0
-21.0,-5.0,-13.0,-3.0,11.0,12.0,-46.0,2.0,-42.0,-61.0,0.0
-15.0,-6.0,-1.0,9.0,14.0,11.0,-22.0,0.0,-33.0,-65.0,0.0
-22.0,-12.0,-1.0,15.0,21.0,4.0,6.0,-10.0,-43.0,-73.0,0.0
-23.0,-12.0,9.0,-5.0,24.0,-1.0,55.0,-23.0,-19.0,-73.0,0.0
-10.0,-29.0,11.0,-10.0,21.0,13.0,105.0,-16.0,24.0,-42.0,0.0
-3.0,-19.0,6.0,-17.0,22.0,2.0,150.0,-11.0,47.0,10.0,0.0
-34.0,-53.0,10.0,11.0,27.0,-13.0,186.0,-35.0,2.0,-10.0,0.0
-21.0,-46.0,12.0,2.0,19.0,-10.0,160.0,-31.0,-23.0,-28.0,0.0
9.0,-62.0,18.0,-35.0,-10.0,-42.0,76.0,-35.0,-249.0,-26.0,0.0
38.0,-104.0,16.0,-75.0,-28.0,-95.0,-102.0,-91.0,-685.0,-45.0,0.0
35.0,-54.0,8.0,-40.0,-22.0,-48.0,20.0,-53.0,-341.0,-58.0,0.0
29.0,-14.0,6.0,-15.0,-8.0,-13.0,127.0,-27.0,-71.0,-38.0,0.0
18.0,1.0,12.0,5.0,7.0,-2.0,170.0,-15.0,15.0,40.0,0.0
10.0,-1.0,9.0,13.0,12.0,-1.0,167.0,-17.0,9.0,58.0,0.0
7.0,10.0,5.0,8.0,10.0,3.0,167.0,-9.0,32.0,20.0,0.0
14.0,-2.0,13.0,4.0,10.0,-3.0,184.0,-1.0,70.0,13.0,0.0
28.0,4.0,6.0,3.0,12.0,-2.0,212.0,-6.0,113.0,19.0,0.0
41.0,-1.0,0.0,8.0,17.0,-1.0,221.0,-5.0,120.0,10.0,0.0
31.0,21.0,8.0,7.0,24.0,-3.0,213.0,-6.0,84.0,-16.0,0.0
30.0,17.0,4.0,12.0,21.0,-4.0,205.0,-15.0,91.0,-18.0,0.0
42.0,28.0,-92.0,10.0,12.0,8.0,247.0,-18.0,129.0,-1.0,0.0
16.0,37.0,-65.0,18.0,20.0,10.0,250.0,-15.0,118.0,-30.0,0.0
-5.0,15.0,21.0,24.0,17.0,7.0,259.0,-18.0,70.0,-55.0,0.0
10.0,11.0,32.0,26.0,9.0,10.0,282.0,-17.0,29.0,-50.0,0.0
14.0,22.0,52.0,24.0,8.0,7.0,244.0,-26.0,-20.0,-36.0,0.0
42.0,16.0,37.0,14.0,2.0,-6.0,200.0,-46.0,-52.0,-18.0,0.0
67.0,10.0,17.0,-5.0,-12.0,-15.0,191.0,-36.0,-43.0,-18.0,0.0
34.0,-2.0,-3.0,-9.0,-17.0,13.0,176.0,-15.0,-3.0,-24.0,0.0
-9.0,0.0,-36.0,-3.0,-14.0,19.0,170.0,-8.0,25.0,-56.0,0.0
1.0,-1.0,16.0,0.0,-18.0,13.0,187.0,-1.0,104.0,-17.0,0.0
24.0,0.0,24.0,4.0,-21.0,7.0,218.0,8.0,155.0,41.0,0.0
13.0,5.0,23.0,17.0,-15.0,19.0,206.0,18.0,138.0,53.0,0.0
1.0,0.0,28.0,25.0,-7.0,28.0,193.0,6.0,79.0,37.0,0.0
9.0,-9.0,22.0,14.0,-3.0,9.0,177.0,-6.0,33.0,36.0,0.0
19.0,-3.0,14.0,8.0,-8.0,-11.0,182.0,3.0,6.0,52.0,0.0
24.0,5.0,14.0,12.0,4.0,-7.0,227.0,0.0,-12.0,51.0,0.0
27.0,5.0,20.0,16.0,18.0,-3.0,275.0,-17.0,-17.0,38.0,0.0
49.0,7.0,22.0,13.0,14.0,-11.0,286.0,-13.0,9.0,26.0,0.0
45.0,34.0,7.0,-1.0,-3.0,1.0,306.0,7.0,40.0,40.0,0.0
32.0,25.0,-5.0,10.0,-1.0,19.0,289.0,8.0,21.0,35.0,0.0
26.0,13.0,1.0,19.0,0.0,6.0,252.0,-13.0,-39.0,15.0,0.0
27.0,20.0,23.0,10.0,-3.0,-3.0,221.0,-14.0,-46.0,0.0,0.0
20.0,10.0,7.0,7.0,2.0,7.0,214.0,-13.0,-38.0,-25.0,0.0
-8.0,0.0,-1.0,10.0,2.0,26.0,201.0,-16.0,-32.0,-37.0,0.0
-33.0,-7.0,11.0,12.0,5.0,9.0,179.0,-22.0,-9.0,-55.0,0.0
-30.0,-15.0,9.0,3.0,5.0,-15.0,150.0,-19.0,11.0,-56.0,0.0
-11.0,-11.0,1.0,-6.0,-9.0,-14.0,123.0,-18.0,13.0,-55.0,0.0
6.0,-23.0,4.0,-7.0,-23.0,-16.0,122.0,-4.0,-16.0,-55.0,0.0
1.0,-20.0,-3.0,0.0,-18.0,-21.0,143.0,8.0,-36.0,-53.0,0.0
-5.0,-33.0,-18.0,1.0,-17.0,0.0,149.0,-3.0,-32.0,-52.0,0.0
-8.0,-25.0,-56.0,-3.0,-35.0,10.0,165.0,-1.0,-21.0,-42.0,0.0
-23.0,-9.0,-39.0,-1.0,-40.0,-3.0,198.0,9.0,-5.0,-19.0,0.0
-13.0,14.0,7.0,5.0,-36.0,0.0,224.0,8.0,8.0,16.0,0.0
-7.0,-2.0,-7.0,9.0,-19.0,18.0,225.0,12.0,8.0,-9.0,0.0
-13.0,-27.0,-2.0,-17.0,-14.0,-11.0,185.0,-6.0,-118.0,-30.0,0.0
-39.0,-16.0,28.0,-14.0,-3.0,-9.0,243.0,-3.0,1.0,2.0,0.0
-35.0,0.0,41.0,-5.0,1.0,-1.0,289.0,8.0,98.0,79.0,0.0
-7.0,1.0,28.0,14.0,-3.0,16.0,299.0,12.0,95.0,128.0,0.0
5.0,18.0,35.0,24.0,-9.0,15.0,296.0,29.0,95.0,126.0,0.0
26.0,22.0,35.0,11.0,-19.0,-5.0,259.0,26.0,77.0,109.0,0.0
20.0,5.0,25.0,2.0,-24.0,-3.0,236.0,15.0,45.0,68.0,0.0
6.0,0.0,5.0,2.0,-14.0,18.0,188.0,9.0,17.0,37.0,0.0
10.0,-3.0,-3.0,0.0,-7.0,6.0,136.0,6.0,10.0,1.0,0.0
11.0,3.0,7.0,-5.0,-15.0,-16.0,89.0,-6.0,1.0,0.0,0.0
0.0,-13.0,-17.0,-16.0,-18.0,-13.0,74.0,-10.0,7.0,4.0,0.0
-44.0,-15.0,-26.0,-13.0,-20.0,-14.0,56.0,7.0,3.0,-16.0,0.0
-70.0,-23.0,-11.0,-21.0,-26.0,-19.0,61.0,7.0,-5.0,-30.0,0.0
-61.0,-17.0,-15.0,-11.0,-27.0,-21.0,37.0,-9.0,-2.0,-31.0,0.0
-60.0,-14.0,-30.0,-11.0,-12.0,-15.0,12.0,-3.0,-4.0,-30.0,0.0
-52.0,13.0,-32.0,-20.0,-4.0,-9.0,-5.0,8.0,46.0,-20.0,0.0
-28.0,24.0,-19.0,-6.0,-9.0,-12.0,1.0,18.0,74.0,30.0,0.0
6.0,27.0,-78.0,0.0,-5.0,-22.0,25.0,9.0,70.0,88.0,0.0
5.0,41.0,-18.0,-2.0,2.0,-2.0,15.0,-19.0,25.0,95.0,0.0
0.0,37.0,18.0,-13.0,4.0,0.0,-34.0,-19.0,-16.0,62.0,0.0
13.0,26.0,19.0,-20.0,4.0,-20.0,-92.0,-18.0,-33.0,44.0,0.0
20.0,14.0,17.0,-27.0,1.0,-37.0,-197.0,-47.0,-225.0,41.0,0.0
19.0,15.0,11.0,-8.0,11.0,-7.0,-218.0,-42.0,-195.0,27.0,0.0
11.0,0.0,-9.0,-1.0,10.0,-4.0,-212.0,-41.0,-123.0,11.0,0.0
-1.0,-29.0,-64.0,-22.0,3.0,-20.0,-275.0,-66.0,-261.0,5.0,0.0
-6.0,-27.0,-24.0,-12.0,-1.0,4.0,-229.0,-30.0,-73.0,8.0,0.0
-25.0,-31.0,-5.0,-9.0,-9.0,1.0,-231.0,-6.0,21.0,-11.0,0.0
-33.0,-33.0,-5.0,-5.0,-9.0,3.0,-229.0,4.0,65.0,-12.0,0.0
-21.0,-12.0,-1.0,-11.0,-11.0,24.0,-187.0,23.0,100.0,0.0,0.0
-18.0,-12.0,-8.0,0.0,-7.0,41.0,-171.0,40.0,116.0,-9.0,0.0
-30.0,-6.0,-57.0,1.0,0.0,56.0,-171.0,37.0,121.0,-40.0,0.0
-34.0,-21.0,-145.0,-8.0,2.0,52.0,-173.0,32.0,102.0,-45.0,0.0
-29.0,-29.0,-71.0,1.0,16.0,40.0,-168.0,30.0,23.0,-21.0,0.0
-30.0,-16.0,13.0,12.0,20.0,28.0,-135.0,34.0,-18.0,-4.0,0.0
-18.0,8.0,34.0,8.0,16.0,22.0,-104.0,40.0,-42.0,-8.0,0.0
-21.0,-8.0,31.0,2.0,10.0,16.0,-109.0,42.0,-62.0,-11.0,0.0
-15.0,-12.0,20.0,-9.0,14.0,0.0,-171.0,15.0,-180.0,-7.0,0.0
-12.0,-17.0,14.0,-12.0,26.0,-4.0,-208.0,2.0,-200.0,-11.0,0.0
-8.0,-2.0,22.0,-2.0,31.0,11.0,-214.0,1.0,-113.0,-13.0,0.0
2.0,-20.0,22.0,-4.0,15.0,0.0,-260.0,-13.0,-230.0,-25.0,0.0
0.0,-4.0,21.0,12.0,13.0,25.0,-218.0,15.0,-35.0,-15.0,0.0
16.0,8.0,12.0,5.0,8.0,26.0,-214.0,17.0,17.0,36.0,0.0
11.0,1.0,16.0,6.0,18.0,17.0,-220.0,18.0,30.0,41.0,0.0
12.0,0.0,17.0,0.0,14.0,-9.0,-223.0,0.0,-69.0,31.0,0.0
33.0,-41.0,1.0,-23.0,4.0,-43.0,-252.0,-22.0,-200.0,33.0,0.0
55.0,-17.0,10.0,-8.0,6.0,-31.0,-191.0,-17.0,-125.0,50.0,0.0
59.0,17.0,22.0,22.0,23.0,1.0,-104.0,4.0,66.0,48.0,0.0
57.0,34.0,8.0,20.0,26.0,-1.0,-98.0,0.0,105.0,34.0,0.0
44.0,23.0,0.0,11.0,26.0,-26.0,-93.0,-10.0,21.0,18.0,0.0
40.0,-13.0,12.0,-3.0,28.0,-31.0,-94.0,-32.0,-156.0,8.0,0.0
16.0,9.0,29.0,8.0,31.0,-5.0,-74.0,-30.0,-163.0,-8.0,0.0
-11.0,51.0,35.0,31.0,33.0,25.0,-35.0,-9.0,-3.0,-24.0,0.0
-46.0,33.0,27.0,28.0,23.0,37.0,-27.0,0.0,33.0,-42.0,0.0
-48.0,12.0,37.0,5.0,-2.0,23.0,-44.0,22.0,51.0,-63.0,0.0
-34.0,3.0,35.0,-3.0,-13.0,14.0,-84.0,31.0,54.0,-56.0,0.0
-22.0,-23.0,-24.0,-22.0,3.0,8.0,-121.0,32.0,-23.0,-38.0,0.0
-6.0,-16.0,-121.0,-28.0,19.0,-6.0,-155.0,5.0,-141.0,-26.0,0.0
5.0,-3.0,-115.0,-31.0,13.0,8.0,-149.0,12.0,-92.0,-16.0,0.0
-5.0,-6.0,-21.0,-33.0,6.0,0.0,-153.0,18.0,-89.0,-13.0,0.0
-12.0,13.0,41.0,-27.0,7.0,11.0,-134.0,32.0,18.0,-12.0,0.0
-15.0,-3.0,35.0,-34.0,2.0,9.0,-141.0,25.0,12.0,-16.0,0.0
-10.0,1.0,37.0,-24.0,1.0,16.0,-124.0,23.0,29.0,-24.0,0.0
6.0,-2.0,42.0,-19.0,0.0,25.0,-115.0,35.0,54.0,16.0,0.0
2.0,2.0,-39.0,14.0,4.0,23.0,-58.0,43.0,144.0,47.0,0.0
-1.0,0.0,-14.0,20.0,2.0,11.0,-17.0,46.0,156.0,35.0,0.0
2.0,-26.0,22.0,4.0,4.0,-2.0,-18.0,29.0,25.0,17.0,0.0
0.0,-101.0,-10.0,-51.0,-3.0,-57.0,-180.0,-49.0,-487.0,-17.0,0.0
22.0,-59.0,49.0,-33.0,-21.0,-28.0,-110.0,-14.0,-277.0,-23.0,0.0
35.0,-22.0,57.0,-3.0,-26.0,3.0,0.0,24.0,-1.0,-12.0,0.0
40.0,-24.0,38.0,-17.0,-31.0,0.0,-18.0,18.0,-48.0,25.0,0.0
42.0,0.0,38.0,1.0,-28.0,16.0,0.0,29.0,56.0,39.0,0.0
36.0,0.0,47.0,19.0,-28.0,16.0,-58.0,0.0,-100.0,18.0,0.0
20.0,21.0,45.0,33.0,-6.0,36.0,-37.0,20.0,28.0,0.0,0.0
-13.0,23.0,38.0,18.0,0.0,34.0,-47.0,18.0,36.0,-30.0,0.0
-51.0,6.0,27.0,15.0,4.0,36.0,-52.0,19.0,37.0,-50.0,0.0
-70.0,8.0,23.0,25.0,16.0,39.0,-57.0,22.0,50.0,-69.0,0.0
-51.0,18.0,0.0,37.0,19.0,39.0,-56.0,14.0,62.0,-78.0,0.0
-28.0,24.0,-16.0,40.0,11.0,28.0,-63.0,12.0,70.0,-72.0,0.0
-14.0,10.0,28.0,13.0,0.0,2.0,-96.0,-7.0,-60.0,-45.0,0.0
-6.0,2.0,30.0,0.0,-10.0,0.0,-39.0,-10.0,-15.0,-10.0,0.0
20.0,32.0,26.0,6.0,-13.0,24.0,54.0,14.0,172.0,43.0,0.0
23.0,34.0,28.0,1.0,-16.0,25.0,50.0,7.0,158.0,73.0,0.0
30.0,45.0,33.0,5.0,-12.0,17.0,66.0,-1.0,119.0,61.0,0.0
39.0,58.0,19.0,7.0,-18.0,0.0,78.0,-14.0,88.0,39.0,0.0
37.0,66.0,-11.0,14.0,-24.0,-17.0,62.0,-16.0,59.0,38.0,0.0
26.0,55.0,0.0,9.0,-29.0,-26.0,29.0,-8.0,68.0,41.0,0.0
30.0,28.0,9.0,-3.0,-41.0,-20.0,-12.0,-12.0,52.0,44.0,0.0
16.0,-11.0,16.0,-28.0,-54.0,-58.0,-161.0,-53.0,-100.0,-7.0,0.0
27.0,-2.0,0.0,-24.0,-44.0,-52.0,-148.0,-40.0,-51.0,9.0,0.0
19.0,-39.0,-12.0,-57.0,-34.0,-97.0,-289.0,-89.0,-335.0,-6.0,0.0
