channel0,channel1,channel2,channel3,channel4,channel5,channel6,channel7,channel8,channel9,true_locs
2.0,-79.0,-32.0,-29.0,-29.0,13.0,-4.0,-10.0,3.0,-13.0,0.0
9.0,-49.0,-23.0,-17.0,-30.0,11.0,-2.0,-17.0,9.0,-5.0,0.0
0.0,-32.0,-17.0,-16.0,-23.0,7.0,-1.0,0.0,26.0,4.0,0.0
-4.0,-24.0,-17.0,-19.0,-12.0,4.0,3.0,11.0,21.0,17.0,0.0
-4.0,-31.0,-9.0,-23.0,-5.0,1.0,5.0,9.0,20.0,2.0,0.0
4.0,-33.0,5.0,-27.0,-6.0,-7.0,3.0,-3.0,16.0,-20.0,0.0
6.0,-29.0,11.0,-31.0,0.0,-14.0,9.0,-5.0,20.0,-22.0,0.0
12.0,-16.0,1.0,-25.0,-8.0,-9.0,3.0,-7.0,21.0,-20.0,0.0
1.0,-20.0,-15.0,6.0,-5.0,-16.0,7.0,-10.0,16.0,-22.0,0.0
-9.0,-30.0,-18.0,21.0,2.0,-13.0,20.0,-14.0,2.0,-35.0,0.0
-8.0,-25.0,-3.0,20.0,6.0,-2.0,29.0,-13.0,-8.0,-41.0,0.0
-9.0,-25.0,15.0,22.0,0.0,-4.0,27.0,-20.0,-6.0,-31.0,0.0
-4.0,-30.0,6.0,19.0,-12.0,-2.0,27.0,-23.0,7.0,-4.0,0.0
-10.0,-12.0,7.0,14.0,-15.0,1.0,17.0,-17.0,15.0,18.0,0.0
-18.0,-10.0,8.0,11.0,-15.0,-7.0,13.0,-14.0,14.0,11.0,0.0
-24.0,-9.0,9.0,12.0,-12.0,-11.0,5.0,-19.0,11.0,-7.0,0.0
-29.0,-3.0,3.0,-10.0,-4.0,-14.0,0.0,0.0,6.0,0.0,0.0
-20.0,5.0,-9.0,-40.0,-1.0,-15.0,3.0,3.0,37.0,19.0,0.0
-3.0,22.0,-6.0,-34.0,-4.0,-14.0,8.0,-1.0,52.0,8.0,0.0
-5.0,22.0,0.0,-22.0,-2.0,-6.0,3.0,3.0,47.0,-12.0,0.0
-2.0,14.0,-9.0,-25.0,-12.0,3.0,10.0,7.0,27.0,-20.0,0.0
4.0,15.0,-10.0,-21.0,-13.0,16.0,9.0,5.0,21.0,-2.0,0.0
5.0,15.0,-6.0,-11.0,-9.0,12.0,8.0,2.0,26.0,10.0,0.0
-4.0,15.0,-6.0,10.0,-1.0,7.0,14.0,-7.0,18.0,11.0,0.0
-14.0,0.0,-4.0,22.0,-7.0,14.0,10.0,-6.0,4.0,0.0,0.0
-24.0,-24.0,-5.0,22.0,3.0,19.0,10.0,-3.0,15.0,-22.0,0.0
-24.0,-22.0,4.0,25.0,14.0,15.0,15.0,-8.0,10.0,-26.0,0.0
-28.0,2.0,1.0,28.0,28.0,20.0,11.0,-6.0,3.0,-30.0,0.0
-31.0,7.0,-1.0,20.0,36.0,14.0,11.0,-7.0,3.0,-28.0,0.0
-20.0,16.0,4.0,20.0,28.0,12.0,18.0,0.0,-2.0,-26.0,0.0
-8.0,26.0,0.0,11.0,19.0,17.0,15.0,2.0,9.0,-22.0,0.0
-6.0,24.0,-8.0,5.0,19.0,17.0,3.0,-9.0,4.0,-8.0,0.0
-4.0,32.0,0.0,0.0,18.0,17.0,19.0,2.0,8.0,-13.0,0.0
1.0,21.0,7.0,-5.0,22.0,23.0,19.0,-1.0,21.0,-19.0,0.0
2.0,9.0,-9.0,-16.0,14.0,-5.0,8.0,-8.0,21.0,18.0,0.0
14.0,3.0,-18.0,-12.0,5.0,-21.0,0.0,-8.0,20.0,53.0,0.0
17.0,1.0,-4.0,-6.0,3.0,-7.0,16.0,-2.0,23.0,51.0,0.0
4.0,5.0,-6.0,-12.0,0.0,-10.0,15.0,-1.0,27.0,34.0,0.0
-11.0,3.0,-13.0,-10.0,1.0,-17.0,22.0,0.0,27.0,11.0,0.0
-16.0,4.0,-21.0,6.0,5.0,-13.0,21.0,2.0,25.0,8.0,0.0
-15.0,2.0,-19.0,12.0,10.0,-14.0,19.0,9.0,11.0,-9.0,0.0
-5.0,2.0,-9.0,17.0,14.0,-10.0,23.0,4.0,-3.0,-32.0,0.0
-5.0,3.0,-10.0,21.0,16.0,-8.0,18.0,-13.0,-1.0,-32.0,0.0
3.0,9.0,-9.0,23.0,12.0,-5.0,17.0,-21.0,9.0,-35.0,0.0
-1.0,16.0,-8.0,15.0,-2.0,-3.0,18.0,-24.0,7.0,-45.0,0.0
2.0,19.0,-12.0,19.0,-4.0,-9.0,12.0,-19.0,0.0,-40.0,0.0
5.0,3.0,-18.0,8.0,-8.0,-23.0,3.0,-21.0,9.0,13.0,0.0
12.0,-8.0,-34.0,-14.0,-23.0,-43.0,-15.0,-22.0,23.0,57.0,0.0
19.0,-4.0,-21.0,-11.0,-14.0,-40.0,-16.0,-17.0,26.0,28.0,0.0
13.0,5.0,-4.0,10.0,0.0,-26.0,-11.0,-1.0,27.0,-1.0,0.0
8.0,15.0,8.0,18.0,19.0,-11.0,4.0,9.0,25.0,-13.0,0.0
1.0,18.0,10.0,18.0,19.0,-4.0,5.0,9.0,16.0,-31.0,0.0
5.0,16.0,12.0,16.0,13.0,-3.0,1.0,8.0,17.0,-14.0,0.0
28.0,9.0,24.0,14.0,8.0,-14.0,-15.0,6.0,21.0,66.0,0.0
31.0,9.0,27.0,16.0,19.0,-20.0,-13.0,15.0,21.0,90.0,0.0
14.0,6.0,31.0,21.0,17.0,-12.0,-2.0,22.0,18.0,49.0,0.0
6.0,8.0,17.0,16.0,18.0,-16.0,1.0,14.0,3.0,11.0,0.0
20.0,6.0,1.0,3.0,7.0,-36.0,-4.0,11.0,0.0,3.0,0.0
20.0,-2.0,-4.0,-6.0,-6.0,-33.0,-5.0,6.0,0.0,-3.0,0.0
15.0,-1.0,3.0,-15.0,-5.0,-23.0,-21.0,2.0,-1.0,-22.0,0.0
26.0,4.0,13.0,-14.0,1.0,-22.0,-27.0,-3.0,-2.0,-17.0,0.0
27.0,6.0,7.0,-1.0,6.0,-16.0,-28.0,-16.0,-10.0,7.0,0.0
48.0,13.0,3.0,6.0,-3.0,-4.0,-21.0,-26.0,-3.0,24.0,0.0
63.0,25.0,-3.0,9.0,1.0,-5.0,-14.0,-18.0,1.0,16.0,0.0
41.0,27.0,-8.0,10.0,20.0,9.0,-1.0,-7.0,-2.0,-1.0,0.0
22.0,34.0,10.0,10.0,15.0,23.0,0.0,0.0,-6.0,-9.0,0.0
15.0,37.0,22.0,18.0,10.0,19.0,0.0,-8.0,-10.0,-17.0,0.0
7.0,28.0,14.0,10.0,11.0,9.0,0.0,4.0,5.0,-24.0,0.0
7.0,16.0,18.0,3.0,11.0,-2.0,2.0,14.0,19.0,-23.0,0.0
10.0,22.0,16.0,12.0,3.0,-10.0,2.0,12.0,21.0,-17.0,0.0
-1.0,14.0,-2.0,2.0,-12.0,0.0,0.0,3.0,19.0,-18.0,0.0
-11.0,4.0,8.0,4.0,-11.0,-4.0,-4.0,-5.0,17.0,-18.0,0.0
-16.0,-4.0,9.0,7.0,-12.0,-24.0,4.0,1.0,19.0,6.0,0.0
-7.0,-4.0,-6.0,5.0,-9.0,-26.0,7.0,1.0,26.0,39.0,0.0
1.0,1.0,-15.0,0.0,-11.0,-22.0,-2.0,0.0,15.0,40.0,0.0
9.0,14.0,-3.0,5.0,-7.0,-10.0,-9.0,3.0,5.0,23.0,0.0
14.0,10.0,3.0,4.0,-5.0,0.0,0.0,4.0,0.0,-2.0,0.0
8.0,9.0,-10.0,-21.0,-7.0,6.0,9.0,9.0,-1.0,-10.0,0.0
14.0,-5.0,-16.0,-39.0,-13.0,1.0,15.0,-4.0,2.0,1.0,0.0
18.0,-9.0,-4.0,-48.0,-20.0,5.0,12.0,-7.0,-2.0,17.0,0.0
3.0,2.0,-1.0,-28.0,-9.0,12.0,14.0,13.0,-15.0,-9.0,0.0
-14.0,17.0,-24.0,-12.0,0.0,20.0,17.0,15.0,-3.0,-23.0,0.0
-10.0,38.0,-25.0,-12.0,-16.0,6.0,16.0,7.0,9.0,3.0,0.0
7.0,120.0,-13.0,-25.0,-25.0,-5.0,-4.0,-6.0,20.0,38.0,0.0
20.0,176.0,-7.0,-27.0,-23.0,-3.0,3.0,3.0,20.0,33.0,0.0
23.0,165.0,3.0,-41.0,-15.0,-11.0,0.0,8.0,6.0,1.0,0.0
21.0,105.0,15.0,-53.0,-11.0,-12.0,-19.0,12.0,7.0,0.0,0.0
9.0,40.0,-1.0,-51.0,-12.0,-14.0,-28.0,17.0,11.0,22.0,0.0
-9.0,-26.0,-21.0,-50.0,-1.0,-17.0,-13.0,18.0,9.0,39.0,0.0
-27.0,-110.0,-33.0,-52.0,22.0,-2.0,-4.0,34.0,6.0,44.0,0.0
-46.0,-178.0,-49.0,-43.0,25.0,14.0,11.0,42.0,10.0,42.0,0.0
-37.0,-133.0,-35.0,-34.0,15.0,11.0,5.0,33.0,6.0,25.0,0.0
-33.0,-69.0,-26.0,-35.0,2.0,-3.0,0.0,9.0,8.0,7.0,0.0
-27.0,-43.0,-23.0,-30.0,-12.0,-15.0,-10.0,-10.0,6.0,4.0,0.0
-14.0,-46.0,-34.0,-11.0,-21.0,-8.0,-13.0,-6.0,11.0,-4.0,0.0
-11.0,-53.0,-46.0,-1.0,-15.0,-13.0,-7.0,-5.0,5.0,-15.0,0.0
-12.0,-54.0,-41.0,-2.0,-8.0,-10.0,1.0,-4.0,0.0,-18.0,0.0
-2.0,-33.0,-14.0,3.0,-12.0,-2.0,-9.0,-12.0,3.0,-10.0,0.0
-9.0,-22.0,3.0,12.0,-7.0,-11.0,-4.0,0.0,-3.0,-13.0,0.0
-20.0,-32.0,-6.0,10.0,2.0,-19.0,-6.0,11.0,-7.0,-5.0,0.0
-18.0,-28.0,-5.0,12.0,0.0,-6.0,-5.0,12.0,1.0,-8.0,1.0
-19.0,-42.0,-21.0,13.0,0.0,-4.0,-8.0,20.0,6.0,-19.0,1.0
-15.0,-29.0,-22.0,14.0,13.0,-3.0,-2.0,21.0,0.0,-23.0,1.0
-7.0,21.0,-16.0,19.0,18.0,1.0,10.0,12.0,1.0,-19.0,1.0
0.0,73.0,-15.0,24.0,9.0,-8.0,11.0,14.0,6.0,-14.0,1.0
7.0,116.0,6.0,31.0,7.0,0.0,0.0,23.0,4.0,-3.0,1.0
18.0,114.0,19.0,31.0,7.0,-4.0,1.0,24.0,15.0,10.0,1.0
11.0,80.0,5.0,23.0,11.0,-21.0,-4.0,15.0,16.0,12.0,1.0
18.0,53.0,11.0,25.0,19.0,-22.0,-2.0,7.0,6.0,7.0,1.0
3.0,32.0,-4.0,25.0,20.0,-12.0,-3.0,5.0,3.0,13.0,1.0
-11.0,-12.0,-36.0,6.0,3.0,-17.0,-7.0,-7.0,3.0,31.0,1.0
-22.0,-40.0,-41.0,-8.0,4.0,-11.0,6.0,2.0,0.0,18.0,1.0
-31.0,-31.0,-22.0,11.0,-1.0,-6.0,8.0,11.0,-10.0,-12.0,1.0
-26.0,-13.0,-7.0,20.0,-4.0,5.0,3.0,4.0,-16.0,-38.0,1.0
-22.0,-3.0,3.0,25.0,3.0,4.0,-7.0,-4.0,-14.0,-54.0,1.0
-24.0,-13.0,-8.0,13.0,12.0,5.0,-7.0,-15.0,-29.0,-55.0,1.0
-21.0,-18.0,-15.0,4.0,4.0,-4.0,-12.0,-6.0,-23.0,-52.0,1.0
18.0,-13.0,-8.0,6.0,-2.0,-14.0,-24.0,-17.0,-13.0,-3.0,1.0
64.0,-4.0,-10.0,3.0,-9.0,-28.0,-25.0,-16.0,-10.0,78.0,0.0
67.0,16.0,-8.0,13.0,-1.0,-22.0,-18.0,-6.0,-12.0,85.0,0.0
39.0,23.0,3.0,19.0,8.0,-12.0,-13.0,4.0,-21.0,42.0,0.0
7.0,22.0,19.0,16.0,4.0,-5.0,-14.0,0.0,-21.0,13.0,0.0
2.0,8.0,19.0,10.0,10.0,-5.0,-18.0,0.0,-27.0,-12.0,0.0
-7.0,2.0,6.0,5.0,3.0,4.0,-20.0,-2.0,-25.0,-28.0,0.0
1.0,0.0,4.0,2.0,4.0,8.0,-15.0,6.0,-27.0,-30.0,0.0
4.0,0.0,2.0,-3.0,4.0,8.0,-17.0,13.0,-28.0,-38.0,0.0
0.0,13.0,15.0,2.0,-1.0,14.0,-15.0,5.0,-22.0,-50.0,0.0
0.0,5.0,22.0,8.0,-5.0,20.0,-6.0,5.0,-18.0,-53.0,0.0
-6.0,7.0,14.0,5.0,-4.0,29.0,4.0,8.0,-14.0,-56.0,0.0
5.0,2.0,13.0,0.0,7.0,25.0,8.0,-1.0,-19.0,-51.0,0.0
26.0,-2.0,7.0,-3.0,6.0,16.0,9.0,-10.0,-8.0,-34.0,0.0
9.0,-10.0,-7.0,-1.0,0.0,12.0,6.0,-8.0,7.0,-18.0,0.0
-9.0,-17.0,-7.0,3.0,-3.0,7.0,4.0,-2.0,4.0,-3.0,0.0
-14.0,-22.0,-1.0,-12.0,-5.0,4.0,10.0,-17.0,-6.0,-6.0,0.0
-16.0,-29.0,1.0,-15.0,-8.0,5.0,16.0,-13.0,-11.0,-18.0,0.0
-19.0,-33.0,-13.0,-10.0,-6.0,4.0,16.0,8.0,-4.0,-28.0,0.0
-4.0,-21.0,-18.0,-11.0,-9.0,-3.0,7.0,11.0,-12.0,-21.0,0.0
3.0,-20.0,-15.0,-14.0,-16.0,-4.0,13.0,4.0,-2.0,-13.0,0.0
3.0,-20.0,-1.0,-20.0,-19.0,5.0,0.0,0.0,16.0,-15.0,0.0
2.0,-18.0,-1.0,-21.0,-21.0,3.0,0.0,11.0,21.0,-8.0,0.0
0.0,-26.0,0.0,-23.0,-13.0,0.0,8.0,3.0,16.0,-15.0,0.0
9.0,-31.0,3.0,-11.0,-4.0,6.0,25.0,-2.0,11.0,-27.0,0.0
17.0,-30.0,6.0,-8.0,-2.0,4.0,28.0,-2.0,12.0,-24.0,0.0
26.0,-28.0,5.0,-13.0,0.0,-5.0,23.0,3.0,-1.0,-15.0,0.0
18.0,-13.0,-4.0,-32.0,0.0,-9.0,2.0,-11.0,-6.0,-14.0,0.0
5.0,-10.0,-1.0,-33.0,7.0,0.0,14.0,-13.0,-7.0,-15.0,0.0
0.0,-7.0,4.0,-20.0,3.0,-2.0,19.0,-1.0,-22.0,-23.0,0.0
-5.0,-17.0,0.0,-20.0,10.0,-11.0,17.0,5.0,-31.0,-23.0,0.0
-4.0,-7.0,16.0,-28.0,14.0,-13.0,24.0,9.0,-32.0,-27.0,0.0
8.0,-10.0,17.0,-28.0,12.0,-12.0,13.0,-6.0,-37.0,-38.0,0.0
5.0,-20.0,12.0,-20.0,18.0,-2.0,14.0,-2.0,-38.0,-46.0,0.0
-8.0,-14.0,2.0,-12.0,21.0,6.0,15.0,2.0,-42.0,-55.0,0.0
-14.0,-21.0,-2.0,-3.0,31.0,17.0,24.0,1.0,-41.0,-49.0,0.0
-9.0,-11.0,-7.0,-4.0,21.0,24.0,10.0,-6.0,-37.0,-41.0,0.0
-5.0,-4.0,-7.0,0.0,22.0,14.0,6.0,-3.0,-26.0,-33.0,0.0
-14.0,4.0,-8.0,-5.0,30.0,16.0,16.0,8.0,-10.0,-39.0,0.0
-12.0,8.0,-25.0,-14.0,18.0,19.0,3.0,12.0,-15.0,-37.0,0.0
0.0,1.0,-17.0,-12.0,8.0,15.0,0.0,0.0,-11.0,-30.0,0.0
6.0,3.0,-1.0,-4.0,7.0,22.0,-14.0,0.0,-10.0,-32.0,0.0
3.0,8.0,6.0,22.0,3.0,26.0,-7.0,-4.0,-16.0,-43.0,0.0
-8.0,-9.0,-4.0,15.0,-9.0,28.0,-12.0,-11.0,-10.0,-42.0,0.0
1.0,-11.0,-11.0,2.0,-20.0,5.0,-20.0,-6.0,-8.0,-5.0,0.0
15.0,3.0,-13.0,0.0,-16.0,-1.0,-23.0,-6.0,-4.0,26.0,0.0
8.0,8.0,-11.0,4.0,-8.0,6.0,-22.0,-3.0,-1.0,43.0,0.0
-11.0,-2.0,1.0,-2.0,-10.0,19.0,-5.0,0.0,6.0,27.0,0.0
-29.0,2.0,7.0,-5.0,-7.0,12.0,-7.0,6.0,1.0,-16.0,0.0
-29.0,-6.0,6.0,4.0,-4.0,22.0,0.0,12.0,-5.0,-51.0,0.0
-11.0,-8.0,3.0,6.0,2.0,16.0,1.0,8.0,-14.0,-67.0,0.0
-7.0,-9.0,7.0,-6.0,3.0,0.0,-9.0,-3.0,-8.0,-45.0,0.0
4.0,-32.0,-8.0,-20.0,-15.0,-19.0,-31.0,-16.0,5.0,10.0,0.0
3.0,-44.0,-15.0,-33.0,-24.0,-36.0,-31.0,-22.0,16.0,55.0,0.0
32.0,45.0,18.0,-40.0,-15.0,-36.0,-10.0,-23.0,9.0,59.0,0.0
77.0,151.0,33.0,-36.0,-14.0,-31.0,9.0,-16.0,8.0,84.0,0.0
80.0,163.0,41.0,-10.0,-16.0,-21.0,8.0,-9.0,16.0,86.0,0.0
47.0,102.0,36.0,8.0,-8.0,-10.0,5.0,-7.0,7.0,34.0,0.0
26.0,44.0,22.0,-5.0,0.0,-13.0,-9.0,1.0,-2.0,0.0,0.0
14.0,-12.0,7.0,-22.0,-1.0,-28.0,-19.0,-3.0,-1.0,0.0,0.0
9.0,-109.0,-25.0,-19.0,-6.0,-25.0,-15.0,0.0,-3.0,6.0,0.0
6.0,-160.0,-43.0,-23.0,4.0,-15.0,0.0,-3.0,3.0,16.0,0.0
11.0,-122.0,-35.0,-28.0,9.0,-6.0,1.0,0.0,-5.0,23.0,0.0
16.0,-59.0,-19.0,-11.0,4.0,-1.0,-4.0,-2.0,2.0,34.0,0.0
20.0,-33.0,-10.0,-7.0,-6.0,-5.0,-5.0,6.0,-5.0,29.0,0.0
10.0,-27.0,-10.0,-3.0,-4.0,-2.0,0.0,5.0,-1.0,5.0,0.0
0.0,-31.0,-9.0,-1.0,6.0,-4.0,5.0,-8.0,2.0,-9.0,0.0
2.0,-24.0,-3.0,2.0,19.0,-3.0,0.0,-13.0,3.0,-24.0,0.0
-11.0,-25.0,-11.0,-11.0,21.0,-1.0,10.0,-3.0,6.0,-20.0,0.0
-23.0,-24.0,-23.0,-16.0,16.0,-7.0,0.0,-5.0,-3.0,-5.0,0.0
-19.0,-27.0,-26.0,-12.0,13.0,0.0,9.0,0.0,4.0,-11.0,0.0
-15.0,-24.0,-15.0,-10.0,13.0,-7.0,12.0,10.0,0.0,-17.0,0.0
-13.0,-23.0,-11.0,-13.0,15.0,-19.0,11.0,6.0,-4.0,-19.0,0.0
-22.0,-26.0,-8.0,2.0,10.0,-9.0,-1.0,4.0,-17.0,-26.0,0.0
-37.0,-36.0,-5.0,15.0,14.0,-2.0,0.0,10.0,-21.0,-42.0,0.0
-31.0,-34.0,-4.0,11.0,26.0,0.0,-5.0,12.0,-24.0,-31.0,0.0
-19.0,-38.0,-12.0,4.0,14.0,0.0,2.0,27.0,-18.0,-12.0,0.0
-38.0,-37.0,-10.0,0.0,9.0,6.0,-2.0,27.0,-10.0,-4.0,0.0
-26.0,-23.0,-9.0,6.0,5.0,-6.0,7.0,14.0,1.0,41.0,0.0
0.0,-17.0,-16.0,22.0,2.0,-5.0,1.0,11.0,8.0,91.0,0.0
1.0,-11.0,-3.0,43.0,18.0,-1.0,8.0,2.0,9.0,71.0,0.0
7.0,-18.0,-6.0,33.0,13.0,-9.0,-19.0,-2.0,21.0,73.0,0.0
16.0,-43.0,-24.0,14.0,-1.0,-24.0,-29.0,-9.0,23.0,95.0,0.0
0.0,-26.0,-25.0,21.0,-6.0,-23.0,-9.0,0.0,11.0,44.0,0.0
-18.0,-5.0,-6.0,36.0,3.0,-18.0,2.0,10.0,2.0,-2.0,0.0
-26.0,-1.0,8.0,44.0,7.0,-6.0,-7.0,4.0,5.0,-18.0,0.0
-21.0,4.0,12.0,49.0,23.0,5.0,3.0,-2.0,-6.0,-26.0,0.0
-24.0,0.0,1.0,53.0,24.0,18.0,20.0,-3.0,-4.0,-30.0,0.0
-20.0,-25.0,1.0,48.0,26.0,24.0,10.0,0.0,-9.0,-35.0,0.0
-11.0,-40.0,4.0,39.0,19.0,15.0,1.0,-1.0,-10.0,-55.0,0.0
9.0,-40.0,-10.0,22.0,10.0,8.0,-4.0,-10.0,-25.0,-53.0,0.0
36.0,-48.0,-16.0,7.0,-8.0,-1.0,-12.0,-13.0,-18.0,-48.0,0.0
65.0,-18.0,-13.0,1.0,-34.0,-19.0,-15.0,-18.0,-4.0,-17.0,0.0
109.0,52.0,-27.0,-7.0,-59.0,-30.0,-10.0,-27.0,9.0,29.0,0.0
118.0,89.0,-31.0,-13.0,-49.0,-13.0,0.0,-13.0,22.0,39.0,0.0
83.0,98.0,-17.0,-18.0,-32.0,5.0,6.0,-7.0,9.0,14.0,0.0
39.0,102.0,12.0,-2.0,-9.0,15.0,8.0,-5.0,-8.0,-12.0,0.0
-8.0,72.0,24.0,17.0,18.0,36.0,25.0,0.0,-5.0,6.0,0.0
-73.0,-28.0,9.0,36.0,32.0,50.0,27.0,13.0,12.0,50.0,0.0
-72.0,-48.0,14.0,34.0,25.0,51.0,28.0,22.0,23.0,66.0,0.0
-32.0,10.0,23.0,21.0,19.0,40.0,16.0,6.0,22.0,45.0,0.0
-17.0,40.0,18.0,-1.0,4.0,15.0,-6.0,0.0,13.0,35.0,0.0
-12.0,20.0,5.0,-16.0,2.0,5.0,-10.0,0.0,9.0,27.0,0.0
-14.0,4.0,1.0,-16.0,0.0,2.0,-16.0,5.0,-13.0,6.0,0.0
-11.0,-2.0,-7.0,-22.0,-12.0,1.0,-12.0,0.0,-32.0,8.0,0.0
1.0,5.0,-2.0,-26.0,-20.0,0.0,-17.0,4.0,-45.0,3.0,0.0
-9.0,14.0,13.0,-16.0,-5.0,7.0,-15.0,1.0,-36.0,-28.0,0.0
-22.0,15.0,4.0,-6.0,0.0,13.0,-4.0,-2.0,-31.0,-31.0,0.0
-14.0,-4.0,-14.0,-19.0,-10.0,-6.0,-18.0,-20.0,-28.0,7.0,0.0
8.0,-12.0,-7.0,-21.0,-16.0,-26.0,-22.0,-19.0,-16.0,53.0,0.0
5.0,-6.0,6.0,4.0,-7.0,-20.0,-16.0,-7.0,-21.0,43.0,0.0
0.0,-4.0,18.0,33.0,1.0,-3.0,-14.0,9.0,-30.0,-7.0,0.0
-7.0,0.0,27.0,48.0,3.0,-4.0,-5.0,14.0,-32.0,-31.0,0.0
-16.0,1.0,23.0,52.0,-1.0,-8.0,-1.0,15.0,-25.0,-29.0,0.0
2.0,-1.0,11.0,60.0,6.0,-11.0,12.0,11.0,-6.0,15.0,0.0
9.0,0.0,20.0,58.0,20.0,8.0,14.0,19.0,1.0,42.0,0.0
-3.0,7.0,34.0,55.0,25.0,19.0,12.0,10.0,-7.0,7.0,0.0
-18.0,18.0,35.0,40.0,23.0,0.0,3.0,-1.0,-26.0,-22.0,0.0
-20.0,6.0,22.0,15.0,14.0,-10.0,0.0,-4.0,-26.0,0.0,0.0
-2.0,0.0,-1.0,4.0,9.0,-10.0,-7.0,2.0,-22.0,51.0,0.0
14.0,1.0,-2.0,6.0,7.0,-7.0,0.0,15.0,-22.0,58.0,0.0
23.0,5.0,9.0,5.0,5.0,-9.0,1.0,19.0,-18.0,37.0,0.0
12.0,7.0,0.0,3.0,7.0,-10.0,11.0,9.0,-15.0,33.0,0.0
1.0,14.0,4.0,1.0,13.0,-5.0,11.0,-2.0,-10.0,32.0,0.0
-3.0,13.0,14.0,1.0,16.0,-4.0,21.0,1.0,-7.0,13.0,0.0
-7.0,16.0,20.0,-3.0,18.0,-9.0,14.0,0.0,-25.0,12.0,0.0
-16.0,13.0,21.0,4.0,19.0,0.0,8.0,0.0,-25.0,15.0,0.0
-13.0,-6.0,15.0,8.0,7.0,8.0,3.0,-3.0,-19.0,-9.0,0.0
-19.0,3.0,10.0,2.0,8.0,0.0,12.0,8.0,-23.0,-29.0,0.0
-17.0,16.0,11.0,0.0,5.0,-3.0,3.0,3.0,-16.0,-37.0,0.0
-6.0,16.0,7.0,-9.0,-3.0,-8.0,1.0,-2.0,-12.0,-33.0,0.0
-4.0,1.0,2.0,-3.0,-1.0,0.0,-5.0,-7.0,-11.0,-29.0,0.0
-6.0,-3.0,1.0,0.0,2.0,10.0,3.0,8.0,-14.0,-35.0,0.0
-12.0,7.0,0.0,-3.0,3.0,9.0,7.0,11.0,-22.0,-39.0,0.0
-9.0,11.0,3.0,-20.0,0.0,1.0,8.0,0.0,-19.0,-40.0,0.0
-6.0,14.0,13.0,-17.0,2.0,5.0,-1.0,8.0,-9.0,-46.0,0.0
-14.0,14.0,14.0,-7.0,8.0,15.0,-2.0,13.0,1.0,-27.0,0.0
-20.0,18.0,9.0,-3.0,5.0,12.0,-2.0,0.0,15.0,23.0,0.0
-5.0,18.0,11.0,-1.0,3.0,-3.0,2.0,14.0,23.0,68.0,0.0
0.0,14.0,9.0,-14.0,20.0,0.0,1.0,20.0,19.0,66.0,0.0
5.0,5.0,11.0,-19.0,24.0,3.0,9.0,11.0,21.0,46.0,0.0
5.0,0.0,8.0,-16.0,12.0,-1.0,1.0,12.0,18.0,30.0,0.0
5.0,8.0,14.0,-12.0,7.0,1.0,2.0,16.0,30.0,32.0,0.0
12.0,23.0,11.0,-17.0,0.0,-11.0,1.0,22.0,41.0,43.0,0.0
30.0,75.0,14.0,-22.0,4.0,-11.0,0.0,12.0,33.0,31.0,0.0
30.0,164.0,34.0,-22.0,13.0,-6.0,-4.0,2.0,37.0,17.0,0.0
13.0,185.0,44.0,-6.0,23.0,6.0,3.0,5.0,42.0,0.0,0.0
1.0,143.0,46.0,-1.0,29.0,6.0,12.0,8.0,24.0,-10.0,0.0
5.0,75.0,33.0,-11.0,19.0,10.0,1.0,6.0,11.0,-6.0,0.0
0.0,21.0,35.0,-22.0,11.0,7.0,-7.0,6.0,0.0,-6.0,0.0
8.0,-48.0,31.0,-18.0,0.0,7.0,-7.0,8.0,-5.0,2.0,0.0
22.0,-138.0,3.0,-17.0,0.0,15.0,-4.0,8.0,14.0,21.0,0.0
15.0,-172.0,-33.0,-24.0,-9.0,4.0,-11.0,5.0,19.0,59.0,0.0
21.0,-120.0,-42.0,-35.0,-23.0,-12.0,-25.0,-2.0,13.0,94.0,0.0
12.0,-69.0,-26.0,-37.0,-27.0,-2.0,-13.0,-3.0,5.0,63.0,0.0
-7.0,-59.0,-6.0,-20.0,-19.0,0.0,-8.0,-9.0,-9.0,24.0,0.0
-9.0,-56.0,6.0,-3.0,-14.0,-7.0,-9.0,-16.0,-10.0,2.0,0.0
3.0,-37.0,0.0,-6.0,-10.0,-14.0,-16.0,-16.0,-9.0,-5.0,0.0
0.0,-29.0,-12.0,-8.0,-13.0,-18.0,-17.0,0.0,-20.0,-12.0,0.0
-1.0,-20.0,1.0,-14.0,-19.0,-4.0,-15.0,1.0,-22.0,-15.0,0.0
-4.0,-17.0,-8.0,-23.0,-13.0,-4.0,-10.0,-6.0,-28.0,-11.0,0.0
-7.0,-16.0,-12.0,-22.0,-5.0,-4.0,-13.0,-1.0,-22.0,-7.0,0.0
4.0,-8.0,0.0,-12.0,-12.0,7.0,-17.0,-9.0,-14.0,-21.0,0.0
11.0,-1.0,6.0,-4.0,-14.0,8.0,-2.0,-8.0,-10.0,-27.0,0.0
2.0,7.0,2.0,-5.0,-6.0,5.0,-4.0,2.0,-11.0,-26.0,0.0
1.0,13.0,-2.0,-11.0,-6.0,-2.0,-8.0,-6.0,-10.0,-20.0,0.0
1.0,15.0,0.0,-14.0,-5.0,-2.0,-3.0,-18.0,-7.0,-20.0,0.0
-5.0,18.0,12.0,-16.0,10.0,12.0,-12.0,0.0,-2.0,-28.0,0.0
-10.0,21.0,18.0,-6.0,3.0,10.0,2.0,10.0,-3.0,-28.0,0.0
-14.0,15.0,12.0,8.0,0.0,14.0,11.0,3.0,-11.0,-27.0,0.0
-17.0,8.0,11.0,9.0,-1.0,13.0,22.0,-3.0,-6.0,-23.0,0.0
-1.0,10.0,-2.0,5.0,-1.0,5.0,4.0,0.0,-3.0,-8.0,0.0
17.0,18.0,-2.0,3.0,0.0,0.0,3.0,-6.0,0.0,-10.0,0.0
8.0,14.0,4.0,12.0,0.0,1.0,-3.0,-1.0,-2.0,-17.0,0.0
7.0,8.0,20.0,14.0,-2.0,11.0,-9.0,1.0,2.0,9.0,0.0
15.0,2.0,5.0,6.0,-4.0,1.0,-12.0,-10.0,13.0,70.0,0.0
27.0,7.0,6.0,6.0,-10.0,3.0,-14.0,-13.0,14.0,109.0,0.0
32.0,16.0,15.0,9.0,-10.0,5.0,-13.0,-2.0,14.0,78.0,0.0
6.0,23.0,29.0,15.0,0.0,7.0,-11.0,10.0,4.0,33.0,0.0
-1.0,36.0,35.0,28.0,19.0,17.0,-15.0,17.0,-8.0,9.0,0.0
2.0,43.0,28.0,29.0,6.0,15.0,-14.0,15.0,-12.0,13.0,0.0
20.0,49.0,9.0,16.0,0.0,5.0,-23.0,7.0,-3.0,47.0,0.0
20.0,33.0,5.0,8.0,-6.0,-3.0,-13.0,12.0,2.0,51.0,0.0
12.0,22.0,9.0,1.0,-16.0,-10.0,-13.0,13.0,-3.0,27.0,0.0
5.0,13.0,11.0,-3.0,-6.0,-10.0,-19.0,15.0,-12.0,0.0,0.0
-1.0,-3.0,0.0,-11.0,-7.0,-1.0,-20.0,9.0,-16.0,-12.0,0.0
-5.0,-18.0,-14.0,-9.0,-21.0,1.0,-15.0,2.0,-21.0,-19.0,0.0
-10.0,-14.0,-9.0,-10.0,-16.0,11.0,-3.0,12.0,-23.0,-36.0,0.0
-6.0,-4.0,3.0,-7.0,0.0,14.0,2.0,17.0,-11.0,-33.0,0.0
14.0,-3.0,6.0,0.0,2.0,16.0,-1.0,13.0,7.0,33.0,0.0
5.0,7.0,5.0,15.0,-1.0,22.0,10.0,12.0,14.0,36.0,0.0
5.0,1.0,5.0,21.0,12.0,37.0,4.0,9.0,14.0,25.0,0.0
12.0,0.0,3.0,23.0,18.0,39.0,-3.0,12.0,8.0,43.0,0.0
6.0,1.0,8.0,21.0,25.0,37.0,1.0,18.0,7.0,54.0,0.0
4.0,1.0,12.0,8.0,23.0,38.0,5.0,33.0,10.0,46.0,0.0
-3.0,-2.0,4.0,11.0,13.0,40.0,7.0,24.0,10.0,44.0,0.0
-17.0,5.0,-9.0,7.0,9.0,41.0,20.0,21.0,0.0,44.0,0.0
-21.0,10.0,4.0,0.0,14.0,46.0,20.0,20.0,-9.0,34.0,0.0
-15.0,13.0,16.0,16.0,15.0,43.0,15.0,15.0,-3.0,25.0,0.0
-7.0,18.0,9.0,17.0,18.0,46.0,29.0,5.0,4.0,27.0,0.0
-5.0,13.0,13.0,15.0,12.0,33.0,10.0,-2.0,0.0,46.0,0.0
-8.0,-7.0,-4.0,-6.0,-11.0,6.0,-11.0,-16.0,5.0,78.0,0.0
-3.0,-7.0,-18.0,-10.0,-16.0,-8.0,-9.0,-25.0,7.0,91.0,0.0
26.0,6.0,-20.0,-7.0,-16.0,-2.0,2.0,-19.0,-5.0,67.0,0.0
25.0,15.0,-9.0,-3.0,-4.0,10.0,10.0,-23.0,-6.0,39.0,0.0
18.0,9.0,-13.0,-2.0,-1.0,13.0,28.0,-23.0,-6.0,16.0,0.0
9.0,6.0,-8.0,-5.0,-14.0,-1.0,34.0,-11.0,-10.0,-2.0,0.0
-3.0,9.0,7.0,-6.0,-12.0,-4.0,34.0,-7.0,-19.0,-21.0,0.0
-10.0,4.0,9.0,-8.0,-18.0,-11.0,20.0,-7.0,-14.0,-37.0,0.0
-11.0,1.0,16.0,-5.0,-22.0,-9.0,17.0,-10.0,-16.0,-51.0,0.0
-15.0,-3.0,11.0,-12.0,-11.0,-10.0,18.0,-18.0,-22.0,-21.0,0.0
-15.0,-6.0,5.0,-21.0,2.0,-11.0,20.0,-17.0,-10.0,9.0,0.0
-9.0,-11.0,2.0,-19.0,4.0,-12.0,14.0,-7.0,-1.0,4.0,0.0
-10.0,-8.0,0.0,-16.0,-11.0,-14.0,-2.0,2.0,3.0,6.0,0.0
-19.0,-1.0,-11.0,-7.0,-21.0,-19.0,-12.0,-1.0,11.0,9.0,0.0
-24.0,-1.0,-14.0,-5.0,-12.0,-16.0,-5.0,-14.0,12.0,9.0,0.0
-19.0,4.0,-15.0,0.0,-3.0,-21.0,12.0,-17.0,13.0,-2.0,0.0
-31.0,12.0,-13.0,4.0,0.0,-31.0,21.0,-9.0,15.0,-19.0,0.0
-38.0,6.0,-10.0,11.0,0.0,-33.0,19.0,7.0,14.0,-20.0,0.0
-43.0,3.0,-11.0,24.0,1.0,-17.0,13.0,8.0,7.0,-32.0,0.0
-29.0,-4.0,-13.0,19.0,15.0,1.0,22.0,10.0,0.0,-40.0,0.0
-28.0,-6.0,-11.0,11.0,29.0,13.0,22.0,2.0,-3.0,-43.0,0.0
-28.0,2.0,-5.0,15.0,34.0,18.0,25.0,-3.0,-16.0,-34.0,0.0
-3.0,0.0,-10.0,8.0,31.0,15.0,15.0,6.0,-21.0,-24.0,0.0
1.0,-3.0,-2.0,13.0,43.0,15.0,18.0,6.0,-18.0,-39.0,0.0
2.0,-16.0,-19.0,0.0,27.0,6.0,16.0,1.0,-7.0,-15.0,0.0
9.0,-25.0,-33.0,-25.0,0.0,-1.0,-9.0,-23.0,-14.0,44.0,0.0
18.0,-14.0,-14.0,-27.0,9.0,-2.0,-7.0,-30.0,-25.0,41.0,0.0
19.0,2.0,-4.0,-16.0,26.0,-1.0,-2.0,-5.0,-29.0,0.0,0.0
14.0,1.0,0.0,-1.0,26.0,5.0,6.0,-1.0,-17.0,-7.0,0.0
14.0,14.0,10.0,5.0,25.0,12.0,-1.0,-6.0,-6.0,15.0,0.0
14.0,20.0,9.0,2.0,22.0,16.0,4.0,-2.0,-7.0,13.0,0.0
8.0,13.0,9.0,-4.0,16.0,6.0,-6.0,-7.0,0.0,3.0,0.0
6.0,13.0,-1.0,2.0,11.0,-2.0,-6.0,-7.0,13.0,17.0,0.0
14.0,33.0,9.0,16.0,7.0,1.0,-12.0,-15.0,0.0,11.0,0.0
49.0,117.0,19.0,19.0,4.0,0.0,-7.0,-18.0,-7.0,-4.0,0.0
65.0,192.0,21.0,-2.0,11.0,-8.0,-10.0,-19.0,-3.0,-9.0,0.0
37.0,166.0,5.0,-14.0,15.0,-14.0,1.0,-14.0,0.0,-21.0,0.0
19.0,88.0,-7.0,-19.0,-6.0,-25.0,-6.0,-22.0,0.0,-31.0,0.0
11.0,16.0,-12.0,-16.0,-18.0,-34.0,-11.0,-32.0,-5.0,-34.0,0.0
16.0,-33.0,-9.0,-2.0,-9.0,-33.0,-23.0,-34.0,-4.0,-4.0,0.0
19.0,-109.0,-14.0,5.0,6.0,-14.0,-10.0,-13.0,11.0,13.0,0.0
-8.0,-184.0,-26.0,23.0,19.0,9.0,7.0,5.0,10.0,-13.0,0.0
-15.0,-166.0,-42.0,35.0,14.0,11.0,4.0,8.0,0.0,-21.0,0.0
4.0,-106.0,-36.0,21.0,0.0,-8.0,-4.0,-13.0,3.0,6.0,0.0
5.0,-70.0,-25.0,17.0,4.0,-21.0,3.0,-22.0,-1.0,15.0,0.0
23.0,-42.0,-13.0,19.0,4.0,-23.0,-1.0,-26.0,0.0,-1.0,0.0
31.0,-17.0,-9.0,11.0,-6.0,-32.0,9.0,-23.0,13.0,-7.0,0.0
20.0,-2.0,-7.0,-20.0,0.0,-24.0,3.0,-21.0,16.0,-5.0,0.0
6.0,-7.0,1.0,-23.0,-6.0,-15.0,10.0,-24.0,16.0,-20.0,0.0
3.0,-18.0,-4.0,-14.0,-8.0,-10.0,4.0,-21.0,14.0,-32.0,0.0
-2.0,-26.0,-9.0,-9.0,-9.0,-12.0,3.0,-11.0,21.0,-27.0,0.0
-2.0,-56.0,-21.0,1.0,-5.0,-10.0,12.0,-5.0,21.0,-14.0,0.0
-1.0,-72.0,-38.0,2.0,-10.0,-4.0,26.0,7.0,26.0,-2.0,0.0
-5.0,-55.0,-32.0,1.0,-11.0,-17.0,23.0,5.0,25.0,-9.0,0.0
-3.0,-31.0,-26.0,5.0,-7.0,-24.0,13.0,-10.0,35.0,-18.0,0.0
-2.0,-22.0,-12.0,1.0,-10.0,-20.0,16.0,-18.0,22.0,0.0,0.0
2.0,-16.0,-11.0,1.0,-22.0,-20.0,10.0,-11.0,19.0,32.0,0.0
17.0,-9.0,-9.0,6.0,-15.0,-18.0,19.0,-3.0,15.0,45.0,0.0
20.0,-3.0,-6.0,1.0,-3.0,-26.0,22.0,-5.0,26.0,33.0,0.0
22.0,1.0,7.0,-1.0,7.0,-27.0,9.0,-4.0,20.0,17.0,0.0
16.0,4.0,9.0,-5.0,3.0,-10.0,21.0,-3.0,3.0,16.0,0.0
16.0,-5.0,2.0,-2.0,-6.0,-11.0,18.0,-3.0,4.0,2.0,0.0
9.0,-2.0,0.0,1.0,-7.0,-21.0,7.0,-9.0,-2.0,-2.0,0.0
16.0,0.0,-2.0,11.0,-13.0,-17.0,12.0,-17.0,-2.0,-4.0,0.0
16.0,-3.0,-9.0,15.0,-19.0,-9.0,0.0,-18.0,-21.0,-21.0,0.0
10.0,8.0,-13.0,11.0,-23.0,1.0,-2.0,-1.0,-20.0,-34.0,0.0
12.0,7.0,-3.0,0.0,-23.0,16.0,0.0,-1.0,-19.0,-44.0,0.0
7.0,1.0,-7.0,-8.0,-30.0,19.0,9.0,1.0,-26.0,-41.0,0.0
3.0,-2.0,0.0,-13.0,-30.0,8.0,16.0,12.0,-19.0,-33.0,0.0
-4.0,-9.0,8.0,-9.0,-23.0,13.0,10.0,17.0,-15.0,-36.0,0.0
-5.0,-5.0,12.0,-6.0,-13.0,14.0,18.0,10.0,-2.0,-44.0,0.0
-6.0,1.0,10.0,-2.0,-10.0,18.0,0.0,8.0,0.0,-41.0,0.0
-1.0,15.0,17.0,-4.0,1.0,28.0,-26.0,11.0,-3.0,-32.0,0.0
-13.0,16.0,14.0,9.0,12.0,20.0,-16.0,13.0,-5.0,-38.0,0.0
-25.0,28.0,20.0,25.0,8.0,12.0,-10.0,4.0,-4.0,-36.0,0.0
-20.0,34.0,31.0,19.0,1.0,11.0,-8.0,10.0,3.0,-21.0,0.0
-4.0,23.0,24.0,18.0,2.0,16.0,2.0,22.0,-4.0,-8.0,0.0
-7.0,1.0,26.0,11.0,1.0,13.0,6.0,21.0,2.0,-9.0,0.0
-16.0,9.0,25.0,0.0,2.0,6.0,-8.0,12.0,8.0,-15.0,0.0
-19.0,10.0,25.0,4.0,8.0,3.0,0.0,1.0,11.0,-26.0,0.0
-14.0,15.0,11.0,18.0,4.0,4.0,-7.0,-4.0,6.0,-21.0,0.0
-2.0,32.0,4.0,23.0,-3.0,19.0,-1.0,4.0,13.0,-14.0,0.0
0.0,36.0,13.0,22.0,-17.0,17.0,4.0,0.0,14.0,-11.0,0.0
2.0,25.0,14.0,13.0,-8.0,9.0,0.0,-13.0,8.0,-16.0,0.0
7.0,18.0,0.0,15.0,10.0,2.0,-1.0,-6.0,7.0,-21.0,0.0
0.0,12.0,-12.0,29.0,17.0,18.0,3.0,-9.0,2.0,-25.0,0.0
-4.0,14.0,6.0,24.0,23.0,24.0,4.0,-22.0,-6.0,-33.0,0.0
-15.0,12.0,10.0,4.0,16.0,18.0,-9.0,-28.0,-21.0,-49.0,0.0
-19.0,0.0,5.0,3.0,25.0,9.0,-10.0,-17.0,-28.0,-59.0,0.0
-11.0,-14.0,1.0,-12.0,28.0,1.0,-16.0,-9.0,-27.0,-53.0,0.0
-5.0,-13.0,10.0,-27.0,24.0,0.0,-7.0,-23.0,-17.0,-51.0,0.0
-9.0,-18.0,-4.0,-27.0,31.0,-2.0,-5.0,-20.0,-16.0,-73.0,0.0
-13.0,-17.0,0.0,-26.0,30.0,-3.0,-13.0,-20.0,-22.0,-74.0,0.0
-28.0,-20.0,-3.0,-35.0,26.0,-7.0,-21.0,-22.0,-31.0,-69.0,0.0
-38.0,-42.0,-11.0,-37.0,20.0,-15.0,-14.0,-5.0,-10.0,-63.0,0.0
-36.0,-39.0,-21.0,-41.0,1.0,-25.0,-27.0,4.0,8.0,-21.0,0.0
-15.0,-32.0,-21.0,-44.0,-4.0,-25.0,-13.0,-1.0,11.0,27.0,0.0
-8.0,-21.0,-26.0,-40.0,-2.0,-29.0,-10.0,7.0,16.0,55.0,0.0
-2.0,-21.0,-14.0,-39.0,0.0,-29.0,-9.0,18.0,19.0,37.0,0.0
0.0,-32.0,-1.0,-34.0,9.0,-12.0,-14.0,15.0,8.0,14.0,0.0
0.0,-14.0,2.0,-32.0,4.0,-5.0,-2.0,8.0,12.0,16.0,0.0
-3.0,0.0,-5.0,-26.0,-2.0,-8.0,-1.0,8.0,13.0,25.0,0.0
-3.0,5.0,-6.0,-18.0,-12.0,3.0,8.0,8.0,11.0,26.0,0.0
-8.0,1.0,5.0,-14.0,-14.0,-1.0,-2.0,3.0,15.0,9.0,0.0
-11.0,0.0,9.0,-11.0,-1.0,-7.0,7.0,0.0,14.0,7.0,0.0
-4.0,15.0,26.0,2.0,12.0,-1.0,-6.0,8.0,8.0,20.0,0.0
-1.0,14.0,24.0,36.0,10.0,5.0,-6.0,14.0,7.0,28.0,0.0
19.0,16.0,21.0,48.0,-6.0,13.0,-6.0,10.0,21.0,53.0,0.0
24.0,16.0,22.0,43.0,-8.0,20.0,-12.0,10.0,50.0,56.0,0.0
9.0,24.0,23.0,43.0,-2.0,16.0,-8.0,17.0,51.0,41.0,0.0
8.0,22.0,30.0,29.0,5.0,15.0,0.0,17.0,45.0,39.0,0.0
4.0,19.0,20.0,19.0,8.0,3.0,-4.0,12.0,47.0,57.0,0.0
6.0,15.0,15.0,3.0,0.0,1.0,0.0,19.0,46.0,50.0,0.0
4.0,14.0,10.0,-4.0,1.0,11.0,-1.0,10.0,39.0,36.0,0.0
-4.0,10.0,-4.0,-5.0,-2.0,15.0,7.0,-2.0,38.0,21.0,0.0
0.0,7.0,-7.0,-2.0,-8.0,16.0,0.0,3.0,35.0,17.0,0.0
-12.0,4.0,-6.0,3.0,-11.0,18.0,1.0,2.0,17.0,12.0,0.0
-16.0,33.0,2.0,5.0,-14.0,12.0,-3.0,0.0,24.0,-11.0,0.0
-4.0,125.0,16.0,20.0,-17.0,3.0,-2.0,14.0,35.0,-24.0,0.0
9.0,181.0,24.0,25.0,-21.0,9.0,-9.0,10.0,32.0,-19.0,0.0
14.0,164.0,27.0,20.0,-17.0,10.0,-5.0,-6.0,23.0,-9.0,0.0
12.0,92.0,22.0,17.0,-17.0,6.0,-4.0,-8.0,11.0,-11.0,0.0
5.0,21.0,24.0,14.0,-14.0,2.0,-5.0,-13.0,12.0,-15.0,0.0
1.0,-32.0,18.0,18.0,-6.0,3.0,-5.0,-19.0,24.0,-17.0,0.0
7.0,-108.0,-6.0,17.0,7.0,9.0,17.0,-9.0,22.0,-7.0,0.0
5.0,-170.0,-33.0,14.0,8.0,12.0,6.0,3.0,26.0,-14.0,0.0
16.0,-131.0,-27.0,13.0,13.0,19.0,10.0,3.0,31.0,-9.0,0.0
21.0,-56.0,-13.0,11.0,9.0,17.0,14.0,-4.0,15.0,4.0,0.0
29.0,-33.0,-8.0,3.0,14.0,21.0,16.0,0.0,2.0,-12.0,0.0
21.0,-13.0,0.0,5.0,11.0,16.0,22.0,-1.0,9.0,-19.0,0.0
19.0,5.0,11.0,11.0,4.0,4.0,25.0,9.0,19.0,-21.0,0.0
23.0,3.0,8.0,9.0,-4.0,-12.0,21.0,20.0,39.0,-14.0,0.0
11.0,-6.0,-3.0,2.0,-15.0,-17.0,10.0,21.0,39.0,15.0,0.0
-1.0,-6.0,-19.0,-16.0,-31.0,-15.0,10.0,12.0,36.0,64.0,0.0
13.0,-5.0,-19.0,-9.0,-32.0,-8.0,12.0,13.0,30.0,63.0,0.0
25.0,2.0,-8.0,6.0,-23.0,-4.0,1.0,14.0,8.0,33.0,0.0
21.0,15.0,-8.0,18.0,-8.0,2.0,16.0,0.0,-7.0,6.0,0.0
20.0,15.0,-8.0,10.0,-11.0,-2.0,9.0,6.0,-15.0,11.0,0.0
21.0,-3.0,-20.0,-13.0,-37.0,-24.0,0.0,0.0,-6.0,50.0,0.0
14.0,-17.0,-27.0,-12.0,-39.0,-21.0,3.0,2.0,3.0,56.0,0.0
0.0,-27.0,-13.0,-18.0,-23.0,-9.0,17.0,12.0,3.0,14.0,0.0
-9.0,-23.0,-22.0,-28.0,-10.0,-16.0,14.0,17.0,-8.0,-3.0,0.0
2.0,-4.0,-19.0,-38.0,-14.0,-19.0,-5.0,11.0,-17.0,-2.0,0.0
7.0,7.0,0.0,-41.0,-15.0,-15.0,-7.0,-7.0,-17.0,-9.0,0.0
-2.0,2.0,-1.0,-27.0,-7.0,-10.0,-4.0,-7.0,-24.0,-19.0,0.0
-14.0,3.0,4.0,-21.0,-5.0,-1.0,1.0,-2.0,-19.0,-21.0,0.0
-4.0,23.0,10.0,-10.0,-4.0,3.0,1.0,1.0,-11.0,14.0,0.0
2.0,24.0,14.0,-7.0,7.0,1.0,1.0,-3.0,-11.0,27.0,0.0
-4.0,10.0,5.0,-15.0,6.0,-3.0,-8.0,-13.0,-16.0,11.0,0.0
-18.0,-9.0,-5.0,-26.0,-6.0,-10.0,-13.0,-16.0,-10.0,2.0,0.0
-21.0,-20.0,1.0,-27.0,-6.0,-11.0,0.0,-19.0,-19.0,-4.0,0.0
-28.0,-7.0,-5.0,-24.0,-8.0,0.0,-5.0,-12.0,-19.0,-22.0,0.0
-38.0,2.0,-2.0,-27.0,-11.0,11.0,2.0,-9.0,-6.0,-21.0,0.0
-41.0,0.0,-1.0,-32.0,-11.0,8.0,-5.0,-3.0,-4.0,17.0,0.0
-7.0,4.0,7.0,-6.0,-17.0,-7.0,-4.0,-4.0,3.0,36.0,0.0
24.0,21.0,39.0,6.0,-14.0,-12.0,-4.0,-6.0,3.0,42.0,0.0
13.0,26.0,53.0,6.0,-10.0,-8.0,4.0,3.0,3.0,46.0,0.0
-11.0,13.0,34.0,-1.0,-13.0,-15.0,-3.0,1.0,9.0,52.0,0.0
-23.0,0.0,0.0,7.0,-18.0,-12.0,-12.0,-9.0,11.0,40.0,0.0
-2.0,-6.0,-10.0,19.0,-17.0,-10.0,-5.0,-14.0,6.0,35.0,0.0
12.0,-8.0,5.0,13.0,-23.0,-4.0,1.0,-9.0,-7.0,27.0,0.0
2.0,-2.0,9.0,25.0,-16.0,-6.0,1.0,-11.0,2.0,3.0,0.0
-15.0,5.0,13.0,46.0,-3.0,-2.0,0.0,9.0,-7.0,-3.0,0.0
-23.0,4.0,15.0,40.0,-1.0,-3.0,5.0,18.0,-7.0,-20.0,0.0
-17.0,10.0,9.0,39.0,1.0,6.0,1.0,22.0,-8.0,-29.0,0.0
-13.0,18.0,12.0,40.0,-2.0,13.0,3.0,25.0,-21.0,-32.0,0.0
-5.0,16.0,0.0,33.0,-3.0,3.0,0.0,28.0,-31.0,-57.0,0.0
-11.0,-16.0,0.0,24.0,-14.0,-1.0,-16.0,22.0,-43.0,-85.0,0.0
-10.0,-14.0,9.0,23.0,-7.0,3.0,-17.0,22.0,-44.0,-87.0,0.0
-3.0,-3.0,18.0,28.0,-7.0,10.0,-2.0,27.0,-17.0,-74.0,0.0
-16.0,-20.0,15.0,19.0,-8.0,0.0,-10.0,19.0,-12.0,-46.0,0.0
-12.0,-18.0,-3.0,16.0,-15.0,-13.0,-25.0,4.0,-3.0,-17.0,0.0
9.0,-4.0,-13.0,25.0,-15.0,-13.0,-15.0,13.0,-5.0,-17.0,0.0
15.0,-2.0,-12.0,16.0,-16.0,-13.0,-14.0,15.0,-4.0,-22.0,0.0
9.0,-14.0,-13.0,-6.0,-23.0,-19.0,-35.0,5.0,-7.0,-6.0,0.0
1.0,-17.0,-11.0,-12.0,-25.0,-21.0,-29.0,7.0,-3.0,0.0,0.0
-9.0,-22.0,-12.0,-8.0,-27.0,-18.0,-20.0,13.0,-10.0,-19.0,0.0
-22.0,-14.0,-10.0,-6.0,-24.0,-14.0,-28.0,14.0,-17.0,-26.0,0.0
-18.0,-1.0,-3.0,-3.0,-18.0,-3.0,-33.0,20.0,-18.0,-33.0,0.0
-11.0,6.0,4.0,-1.0,-10.0,11.0,-29.0,22.0,-15.0,-37.0,0.0
-21.0,5.0,7.0,-7.0,-3.0,11.0,-26.0,18.0,-23.0,-40.0,0.0
-22.0,3.0,8.0,-5.0,-1.0,2.0,-23.0,22.0,-22.0,-42.0,0.0
-12.0,3.0,2.0,5.0,2.0,-2.0,-13.0,37.0,-24.0,-47.0,0.0
1.0,26.0,8.0,0.0,4.0,2.0,-12.0,31.0,-21.0,-45.0,0.0
13.0,37.0,1.0,-1.0,6.0,7.0,-17.0,21.0,-10.0,-39.0,0.0
16.0,27.0,-7.0,-13.0,0.0,9.0,-18.0,15.0,-11.0,6.0,0.0
18.0,19.0,-11.0,-21.0,-2.0,7.0,-16.0,20.0,-5.0,60.0,0.0
18.0,33.0,-3.0,-16.0,1.0,0.0,-12.0,25.0,10.0,61.0,0.0
27.0,28.0,13.0,-6.0,9.0,8.0,0.0,22.0,7.0,31.0,0.0
33.0,24.0,14.0,-1.0,16.0,9.0,0.0,22.0,5.0,16.0,0.0
33.0,24.0,11.0,-6.0,15.0,5.0,1.0,12.0,0.0,4.0,0.0
27.0,13.0,0.0,-23.0,20.0,1.0,-8.0,-6.0,8.0,-2.0,0.0
18.0,12.0,-14.0,-26.0,20.0,0.0,-4.0,-9.0,0.0,-2.0,0.0
4.0,14.0,-13.0,-16.0,14.0,-7.0,0.0,-4.0,-4.0,-6.0,0.0
0.0,6.0,-7.0,-11.0,9.0,-1.0,-3.0,-8.0,-13.0,-15.0,0.0
-2.0,2.0,0.0,-13.0,12.0,5.0,1.0,-3.0,-21.0,-23.0,0.0
-9.0,-8.0,-2.0,-15.0,9.0,16.0,10.0,6.0,-16.0,-26.0,0.0
-9.0,-7.0,1.0,-18.0,6.0,14.0,18.0,13.0,-10.0,-40.0,0.0
-11.0,-2.0,-1.0,-22.0,4.0,3.0,0.0,8.0,-3.0,-34.0,0.0
-14.0,-7.0,-2.0,-12.0,4.0,3.0,0.0,-7.0,0.0,-34.0,0.0
-22.0,3.0,6.0,-7.0,8.0,3.0,0.0,-11.0,-10.0,-50.0,0.0
-17.0,77.0,9.0,-11.0,7.0,12.0,2.0,-19.0,-17.0,-44.0,0.0
6.0,159.0,10.0,-16.0,-5.0,1.0,-5.0,-22.0,-5.0,1.0,0.0
15.0,160.0,8.0,-7.0,-18.0,-18.0,-19.0,-21.0,4.0,34.0,0.0
17.0,87.0,9.0,5.0,-27.0,-30.0,-29.0,-18.0,-9.0,42.0,0.0
3.0,16.0,13.0,17.0,-21.0,-31.0,-28.0,-13.0,-25.0,21.0,0.0
-15.0,-26.0,5.0,21.0,-13.0,-23.0,-17.0,-21.0,-23.0,9.0,0.0
-12.0,-106.0,-21.0,13.0,-3.0,-9.0,-17.0,-7.0,0.0,18.0,0.0
-25.0,-165.0,-42.0,13.0,2.0,4.0,2.0,0.0,1.0,19.0,0.0
-18.0,-146.0,-27.0,23.0,11.0,14.0,9.0,-4.0,-4.0,13.0,0.0
-3.0,-96.0,-18.0,17.0,25.0,7.0,-4.0,-16.0,-16.0,10.0,0.0
0.0,-50.0,-5.0,15.0,24.0,1.0,-8.0,-12.0,-17.0,0.0,0.0
0.0,-33.0,1.0,10.0,11.0,-1.0,-1.0,0.0,-11.0,-1.0,0.0
-4.0,-29.0,7.0,-9.0,10.0,-7.0,-6.0,-4.0,-10.0,0.0,0.0
-6.0,-27.0,16.0,-15.0,14.0,-5.0,-4.0,0.0,-10.0,-6.0,0.0
-11.0,-19.0,10.0,-9.0,22.0,2.0,5.0,9.0,-5.0,-5.0,0.0
-18.0,-18.0,-4.0,-17.0,13.0,7.0,11.0,4.0,0.0,8.0,0.0
-18.0,-32.0,-4.0,-14.0,7.0,7.0,11.0,4.0,-7.0,11.0,0.0
-24.0,-28.0,-2.0,-9.0,12.0,10.0,10.0,7.0,-5.0,8.0,0.0
-15.0,-30.0,-7.0,-12.0,4.0,9.0,9.0,8.0,1.0,7.0,0.0
-4.0,-49.0,-5.0,-6.0,-3.0,-5.0,4.0,4.0,-5.0,-1.0,0.0
-4.0,-30.0,13.0,21.0,5.0,0.0,5.0,8.0,-9.0,-11.0,0.0
-5.0,-25.0,5.0,24.0,8.0,0.0,1.0,10.0,-14.0,3.0,0.0
14.0,-17.0,14.0,12.0,-2.0,13.0,7.0,-3.0,-19.0,37.0,0.0
16.0,3.0,22.0,0.0,-4.0,20.0,8.0,-4.0,-22.0,18.0,0.0
5.0,2.0,28.0,-3.0,1.0,20.0,19.0,2.0,-25.0,-21.0,0.0
-8.0,-2.0,24.0,1.0,11.0,31.0,15.0,-3.0,-28.0,-36.0,0.0
-8.0,-1.0,20.0,0.0,10.0,28.0,16.0,-7.0,-29.0,-21.0,0.0
-16.0,4.0,11.0,4.0,5.0,16.0,13.0,-4.0,-16.0,-16.0,0.0
-38.0,4.0,15.0,7.0,8.0,15.0,8.0,2.0,-15.0,-25.0,0.0
-20.0,12.0,23.0,7.0,-1.0,9.0,11.0,2.0,-16.0,-26.0,0.0
-1.0,27.0,30.0,14.0,-9.0,2.0,28.0,-3.0,-17.0,-17.0,0.0
-2.0,29.0,36.0,16.0,-8.0,2.0,16.0,-8.0,-26.0,6.0,0.0
-13.0,23.0,30.0,7.0,-5.0,0.0,18.0,-9.0,-16.0,17.0,0.0
-12.0,22.0,12.0,7.0,0.0,-6.0,25.0,-11.0,-15.0,16.0,0.0
-14.0,4.0,10.0,10.0,-9.0,-2.0,28.0,-5.0,-12.0,17.0,0.0
-30.0,-9.0,15.0,7.0,-8.0,-1.0,21.0,-5.0,-23.0,7.0,0.0
-25.0,2.0,11.0,8.0,-3.0,-1.0,16.0,-11.0,-28.0,7.0,0.0
-8.0,11.0,11.0,24.0,-1.0,-1.0,14.0,-3.0,-18.0,15.0,0.0
0.0,10.0,10.0,21.0,-11.0,-3.0,17.0,2.0,-19.0,22.0,0.0
2.0,5.0,-2.0,19.0,-8.0,0.0,20.0,10.0,-2.0,41.0,0.0
4.0,0.0,0.0,24.0,-11.0,-6.0,21.0,-7.0,6.0,47.0,0.0
0.0,-4.0,6.0,25.0,-16.0,2.0,15.0,-6.0,-6.0,36.0,0.0
-8.0,1.0,5.0,20.0,-16.0,22.0,18.0,-4.0,-22.0,19.0,0.0
-13.0,-3.0,-15.0,16.0,1.0,26.0,18.0,0.0,-19.0,8.0,0.0
-19.0,-11.0,-21.0,22.0,0.0,19.0,11.0,5.0,-12.0,7.0,0.0
-23.0,-5.0,2.0,22.0,-7.0,22.0,8.0,4.0,-11.0,6.0,0.0
-16.0,2.0,5.0,26.0,-8.0,14.0,19.0,-6.0,-12.0,17.0,0.0
-9.0,-10.0,7.0,14.0,0.0,7.0,0.0,-1.0,-14.0,6.0,0.0
-4.0,-4.0,5.0,-8.0,8.0,8.0,5.0,-10.0,-15.0,-19.0,0.0
-10.0,-1.0,1.0,-10.0,12.0,9.0,10.0,-8.0,-3.0,-26.0,0.0
-16.0,6.0,5.0,-25.0,-1.0,14.0,6.0,1.0,7.0,-6.0,0.0
-13.0,10.0,1.0,-33.0,-6.0,10.0,0.0,2.0,5.0,-4.0,0.0
-8.0,8.0,2.0,-32.0,-3.0,0.0,0.0,0.0,4.0,-8.0,0.0
4.0,10.0,1.0,-16.0,3.0,11.0,2.0,-4.0,6.0,-11.0,0.0
16.0,0.0,-2.0,-19.0,4.0,19.0,-10.0,0.0,5.0,2.0,0.0
47.0,2.0,-2.0,-12.0,10.0,23.0,-4.0,-2.0,15.0,55.0,0.0
59.0,8.0,-18.0,-3.0,21.0,24.0,-11.0,6.0,28.0,86.0,0.0
30.0,4.0,-24.0,-2.0,18.0,23.0,-20.0,19.0,26.0,53.0,0.0
13.0,-1.0,-28.0,-5.0,17.0,12.0,-27.0,12.0,14.0,52.0,0.0
23.0,-11.0,-32.0,-17.0,1.0,5.0,-31.0,1.0,8.0,83.0,0.0
18.0,-14.0,-31.0,-33.0,-4.0,2.0,-20.0,0.0,14.0,78.0,0.0
7.0,-17.0,-26.0,-29.0,4.0,-1.0,-12.0,0.0,7.0,44.0,0.0
-5.0,-11.0,-23.0,-28.0,-3.0,5.0,-4.0,-9.0,0.0,27.0,0.0
0.0,-12.0,-17.0,-27.0,-2.0,6.0,-10.0,-1.0,7.0,5.0,0.0
4.0,-2.0,-14.0,-23.0,7.0,8.0,-4.0,2.0,17.0,-2.0,0.0
0.0,3.0,0.0,-23.0,15.0,15.0,0.0,-10.0,12.0,6.0,0.0
-6.0,-4.0,0.0,-10.0,20.0,22.0,14.0,-3.0,5.0,-3.0,0.0
-15.0,-3.0,-14.0,-2.0,25.0,17.0,-2.0,5.0,1.0,-22.0,0.0
-5.0,61.0,-2.0,4.0,28.0,10.0,0.0,-7.0,-2.0,-37.0,0.0
7.0,147.0,11.0,-10.0,28.0,-5.0,-10.0,-15.0,6.0,-2.0,0.0
22.0,147.0,10.0,-16.0,14.0,-17.0,-19.0,-16.0,6.0,43.0,0.0
15.0,100.0,18.0,-14.0,0.0,-21.0,-5.0,-7.0,-9.0,25.0,0.0
-7.0,28.0,-1.0,-18.0,-6.0,-21.0,-8.0,-18.0,-12.0,11.0,0.0
-20.0,-34.0,-19.0,-13.0,-17.0,-21.0,-11.0,-12.0,-18.0,9.0,0.0
-25.0,-104.0,-27.0,-7.0,-16.0,-13.0,0.0,-1.0,-7.0,12.0,0.0
-38.0,-168.0,-49.0,-1.0,-4.0,1.0,10.0,6.0,4.0,13.0,0.0
-44.0,-161.0,-39.0,2.0,-3.0,7.0,19.0,-1.0,8.0,5.0,0.0
-33.0,-100.0,-21.0,17.0,0.0,4.0,11.0,-3.0,5.0,-6.0,0.0
-24.0,-65.0,-9.0,32.0,0.0,-5.0,18.0,-14.0,-3.0,-18.0,0.0
-21.0,-40.0,-8.0,27.0,-4.0,-1.0,6.0,-18.0,-9.0,-36.0,0.0
-29.0,-28.0,-6.0,21.0,-6.0,6.0,-4.0,-13.0,-15.0,-48.0,0.0
-29.0,-29.0,-6.0,20.0,-2.0,-2.0,-3.0,-8.0,-17.0,-42.0,0.0
-25.0,-27.0,-8.0,20.0,-5.0,-7.0,14.0,-20.0,-13.0,-39.0,0.0
-26.0,-23.0,-7.0,15.0,-15.0,0.0,9.0,-14.0,-12.0,-37.0,0.0
-22.0,-16.0,-4.0,15.0,-15.0,-2.0,11.0,-10.0,-24.0,-37.0,0.0
-15.0,-12.0,-1.0,14.0,-12.0,-2.0,6.0,-13.0,-36.0,-43.0,0.0
-4.0,-14.0,17.0,4.0,-4.0,0.0,-1.0,-8.0,-31.0,-51.0,0.0
-10.0,-17.0,7.0,-4.0,-3.0,-9.0,-10.0,0.0,-30.0,-51.0,0.0
-19.0,-9.0,-9.0,-7.0,1.0,-8.0,-8.0,10.0,-22.0,-52.0,0.0
-21.0,0.0,18.0,-4.0,3.0,-2.0,0.0,6.0,-18.0,-47.0,0.0
-22.0,8.0,36.0,-6.0,1.0,-9.0,3.0,-2.0,-17.0,-40.0,0.0
-16.0,0.0,37.0,-3.0,-2.0,-19.0,0.0,2.0,-18.0,-40.0,0.0
-14.0,0.0,25.0,2.0,-1.0,-32.0,-1.0,-5.0,-25.0,-37.0,0.0
-7.0,-1.0,10.0,-5.0,-3.0,-24.0,-9.0,1.0,-24.0,-32.0,0.0
-4.0,7.0,11.0,-13.0,-9.0,-23.0,-9.0,-1.0,-22.0,-28.0,0.0
-3.0,24.0,8.0,-7.0,-11.0,-24.0,-17.0,-5.0,-8.0,-21.0,0.0
-7.0,36.0,13.0,-1.0,-2.0,-17.0,-17.0,-3.0,1.0,-32.0,0.0
-15.0,33.0,5.0,-14.0,6.0,-7.0,-9.0,6.0,3.0,-35.0,0.0
-15.0,27.0,-8.0,-18.0,8.0,-6.0,1.0,6.0,12.0,-26.0,0.0
-13.0,16.0,-13.0,-11.0,8.0,-6.0,0.0,7.0,21.0,-17.0,0.0
-13.0,9.0,-6.0,-23.0,4.0,-1.0,-7.0,-2.0,26.0,1.0,0.0
-9.0,-10.0,-19.0,-46.0,-6.0,-18.0,-18.0,-7.0,30.0,48.0,0.0
-12.0,-28.0,-27.0,-62.0,-15.0,-18.0,-16.0,-4.0,28.0,60.0,0.0
-16.0,-17.0,-26.0,-66.0,-15.0,-1.0,-8.0,5.0,33.0,51.0,0.0
-8.0,-9.0,-19.0,-51.0,-18.0,-6.0,-2.0,-2.0,37.0,38.0,0.0
0.0,-10.0,-11.0,-32.0,-20.0,-1.0,-9.0,-13.0,24.0,31.0,0.0
13.0,-13.0,-12.0,-17.0,-11.0,10.0,-17.0,-13.0,20.0,33.0,0.0
5.0,-5.0,-11.0,0.0,-14.0,21.0,-6.0,-12.0,25.0,25.0,0.0
6.0,-13.0,-10.0,6.0,-19.0,16.0,2.0,-4.0,25.0,19.0,0.0
14.0,-11.0,-17.0,14.0,-15.0,7.0,12.0,0.0,32.0,10.0,0.0
12.0,0.0,-15.0,5.0,-8.0,11.0,11.0,6.0,23.0,3.0,0.0
4.0,6.0,-8.0,-2.0,-1.0,2.0,7.0,10.0,19.0,3.0,0.0
-14.0,8.0,-1.0,-15.0,1.0,6.0,-7.0,10.0,-1.0,-7.0,0.0
-21.0,10.0,2.0,-23.0,-1.0,15.0,3.0,18.0,-15.0,-24.0,0.0
-5.0,9.0,0.0,-12.0,0.0,15.0,4.0,15.0,-23.0,-36.0,0.0
8.0,16.0,-2.0,-6.0,12.0,11.0,2.0,4.0,-26.0,-39.0,0.0
3.0,22.0,-4.0,-14.0,18.0,10.0,-5.0,14.0,-24.0,-44.0,0.0
11.0,23.0,-5.0,2.0,18.0,20.0,10.0,20.0,-15.0,-49.0,0.0
4.0,20.0,-2.0,21.0,27.0,18.0,17.0,15.0,-17.0,-62.0,0.0
-8.0,11.0,-2.0,22.0,37.0,12.0,21.0,17.0,-29.0,-61.0,0.0
-11.0,12.0,-4.0,25.0,38.0,16.0,16.0,15.0,-29.0,-58.0,0.0
0.0,4.0,-3.0,24.0,35.0,9.0,23.0,12.0,-10.0,-25.0,0.0
7.0,6.0,4.0,17.0,43.0,-2.0,13.0,8.0,-2.0,3.0,0.0
3.0,6.0,5.0,22.0,42.0,2.0,13.0,3.0,-4.0,-4.0,0.0
-9.0,2.0,-2.0,21.0,34.0,13.0,10.0,5.0,1.0,-9.0,0.0
-22.0,-7.0,-14.0,8.0,31.0,4.0,0.0,-5.0,8.0,-11.0,0.0
-11.0,-13.0,-18.0,-9.0,13.0,-7.0,-7.0,-11.0,17.0,-1.0,0.0
1.0,-13.0,-17.0,-8.0,5.0,-24.0,-8.0,1.0,19.0,6.0,0.0
14.0,-14.0,-11.0,-3.0,-2.0,-22.0,-17.0,-1.0,13.0,7.0,0.0
38.0,-12.0,-4.0,-11.0,11.0,-23.0,-18.0,-9.0,18.0,18.0,0.0
54.0,4.0,3.0,-15.0,11.0,-28.0,-15.0,-7.0,21.0,12.0,0.0
35.0,12.0,0.0,-12.0,16.0,-25.0,-21.0,10.0,22.0,2.0,0.0
12.0,9.0,0.0,-13.0,17.0,-20.0,-26.0,9.0,39.0,1.0,0.0
2.0,18.0,1.0,-9.0,7.0,-11.0,-12.0,14.0,28.0,-3.0,0.0
12.0,42.0,3.0,-4.0,0.0,-6.0,-4.0,18.0,7.0,-19.0,0.0
17.0,49.0,18.0,9.0,-3.0,-9.0,0.0,12.0,0.0,-24.0,0.0
18.0,35.0,6.0,11.0,-1.0,-1.0,4.0,7.0,0.0,-16.0,0.0
21.0,29.0,7.0,5.0,-8.0,3.0,2.0,2.0,-4.0,1.0,0.0
23.0,17.0,0.0,-7.0,-19.0,-2.0,-3.0,-9.0,-5.0,14.0,0.0
11.0,14.0,-2.0,-8.0,-27.0,-7.0,-1.0,-2.0,-5.0,12.0,0.0
-12.0,30.0,-3.0,-3.0,-10.0,-3.0,9.0,0.0,-8.0,-8.0,0.0
-4.0,93.0,3.0,0.0,13.0,5.0,18.0,0.0,-8.0,-9.0,0.0
34.0,186.0,27.0,-8.0,27.0,3.0,10.0,1.0,3.0,45.0,0.0
47.0,202.0,49.0,-6.0,30.0,-1.0,8.0,-8.0,11.0,52.0,0.0
32.0,154.0,44.0,1.0,35.0,-3.0,2.0,-2.0,11.0,13.0,0.0
21.0,86.0,38.0,-5.0,35.0,6.0,-9.0,6.0,3.0,-3.0,0.0
11.0,12.0,31.0,-23.0,20.0,-2.0,-21.0,-5.0,-12.0,7.0,0.0
10.0,-65.0,10.0,-32.0,9.0,-5.0,-12.0,-6.0,-7.0,38.0,0.0
-3.0,-150.0,-18.0,-31.0,5.0,7.0,6.0,8.0,12.0,45.0,0.0
-12.0,-153.0,-15.0,-32.0,3.0,6.0,-5.0,2.0,11.0,31.0,0.0
7.0,-93.0,-12.0,-37.0,1.0,-1.0,-7.0,4.0,-3.0,15.0,0.0
6.0,-51.0,-11.0,-30.0,8.0,-3.0,-7.0,9.0,-2.0,9.0,0.0
8.0,-33.0,-9.0,-26.0,7.0,1.0,1.0,0.0,2.0,20.0,0.0
6.0,-24.0,1.0,-23.0,4.0,10.0,0.0,-5.0,7.0,19.0,0.0
19.0,-8.0,12.0,-41.0,7.0,1.0,1.0,-4.0,17.0,35.0,0.0
20.0,8.0,13.0,-36.0,19.0,3.0,-1.0,2.0,7.0,28.0,0.0
16.0,1.0,5.0,-26.0,23.0,11.0,-14.0,6.0,-4.0,7.0,0.0
1.0,-6.0,-8.0,-25.0,15.0,6.0,-28.0,14.0,-7.0,9.0,0.0
-9.0,-18.0,-25.0,-40.0,-1.0,-31.0,-51.0,-6.0,0.0,50.0,0.0
2.0,-22.0,-37.0,-53.0,-17.0,-44.0,-52.0,-6.0,6.0,91.0,0.0
-2.0,-5.0,-28.0,-28.0,-9.0,-12.0,-26.0,5.0,6.0,69.0,0.0
-7.0,5.0,-15.0,-6.0,10.0,10.0,-17.0,-2.0,4.0,69.0,0.0
-5.0,5.0,-1.0,-7.0,20.0,13.0,-19.0,-4.0,0.0,73.0,0.0
-4.0,0.0,16.0,1.0,14.0,9.0,-7.0,0.0,-4.0,67.0,0.0
5.0,0.0,27.0,12.0,14.0,12.0,0.0,0.0,-6.0,65.0,0.0
6.0,-3.0,21.0,17.0,23.0,15.0,8.0,0.0,-5.0,65.0,0.0
0.0,0.0,16.0,25.0,26.0,22.0,5.0,-2.0,-3.0,58.0,0.0
-7.0,7.0,23.0,23.0,25.0,18.0,15.0,-6.0,0.0,52.0,0.0
2.0,6.0,16.0,23.0,13.0,3.0,15.0,-3.0,-15.0,56.0,0.0
0.0,14.0,15.0,14.0,4.0,8.0,7.0,-1.0,-20.0,36.0,0.0
-5.0,20.0,6.0,17.0,4.0,0.0,5.0,-4.0,-15.0,25.0,0.0
-3.0,19.0,5.0,20.0,0.0,0.0,5.0,4.0,-2.0,21.0,0.0
-1.0,1.0,13.0,16.0,3.0,-1.0,13.0,9.0,-8.0,6.0,0.0
-8.0,-41.0,9.0,25.0,5.0,14.0,13.0,12.0,-23.0,0.0,0.0
-6.0,-82.0,-5.0,27.0,2.0,19.0,1.0,15.0,-19.0,1.0,0.0
-3.0,-82.0,-17.0,28.0,-9.0,7.0,-8.0,-1.0,-2.0,3.0,0.0
-20.0,-79.0,-3.0,33.0,-9.0,5.0,-5.0,-8.0,0.0,19.0,0.0
-15.0,-56.0,7.0,35.0,-9.0,-9.0,0.0,-4.0,0.0,15.0,0.0
25.0,-13.0,9.0,28.0,-22.0,-22.0,0.0,4.0,3.0,15.0,0.0
34.0,14.0,15.0,26.0,-20.0,-21.0,-13.0,1.0,6.0,10.0,0.0
26.0,10.0,22.0,34.0,-21.0,-13.0,-3.0,0.0,3.0,5.0,0.0
33.0,29.0,13.0,43.0,-26.0,-13.0,7.0,0.0,0.0,-4.0,0.0
36.0,42.0,14.0,32.0,-35.0,-5.0,7.0,6.0,2.0,-4.0,0.0
28.0,38.0,11.0,25.0,-26.0,1.0,15.0,10.0,5.0,-3.0,0.0
18.0,26.0,13.0,17.0,-29.0,3.0,10.0,10.0,0.0,-6.0,0.0
4.0,18.0,18.0,15.0,-32.0,5.0,12.0,7.0,-12.0,-12.0,0.0
-10.0,18.0,10.0,9.0,-27.0,7.0,8.0,5.0,-18.0,-28.0,0.0
-17.0,7.0,3.0,17.0,-12.0,15.0,9.0,0.0,-17.0,-42.0,0.0
-13.0,2.0,7.0,19.0,-6.0,22.0,12.0,10.0,-11.0,-34.0,0.0
16.0,2.0,7.0,20.0,-6.0,25.0,10.0,11.0,-2.0,-1.0,0.0
30.0,4.0,6.0,15.0,-6.0,19.0,2.0,6.0,0.0,-2.0,0.0
19.0,3.0,2.0,5.0,-7.0,13.0,2.0,11.0,16.0,-11.0,0.0
21.0,75.0,6.0,-4.0,-26.0,7.0,-1.0,18.0,25.0,31.0,0.0
51.0,165.0,2.0,5.0,-38.0,2.0,-4.0,2.0,32.0,74.0,0.0
59.0,174.0,12.0,5.0,-31.0,-8.0,-7.0,8.0,32.0,72.0,0.0
36.0,118.0,12.0,5.0,-19.0,-11.0,-13.0,12.0,25.0,46.0,0.0
27.0,42.0,10.0,-6.0,-9.0,-10.0,-13.0,10.0,22.0,18.0,0.0
22.0,-17.0,6.0,-11.0,-6.0,-21.0,-18.0,-2.0,17.0,5.0,0.0
18.0,-97.0,-6.0,-15.0,-2.0,-13.0,-11.0,-9.0,12.0,12.0,0.0
6.0,-167.0,-25.0,-3.0,10.0,3.0,4.0,3.0,22.0,13.0,0.0
2.0,-151.0,-17.0,4.0,25.0,12.0,4.0,10.0,29.0,-1.0,0.0
9.0,-78.0,2.0,11.0,26.0,11.0,4.0,12.0,29.0,-22.0,0.0
14.0,-45.0,9.0,4.0,17.0,5.0,12.0,10.0,24.0,-22.0,0.0
3.0,-43.0,7.0,-1.0,8.0,5.0,6.0,14.0,20.0,-25.0,0.0
-4.0,-49.0,4.0,-14.0,-6.0,0.0,-1.0,17.0,23.0,-41.0,0.0
-10.0,-37.0,13.0,-16.0,-7.0,-15.0,1.0,18.0,30.0,-54.0,0.0
2.0,-10.0,14.0,-22.0,-6.0,-16.0,0.0,7.0,29.0,-57.0,0.0
15.0,8.0,22.0,-20.0,-2.0,-18.0,0.0,-2.0,33.0,-44.0,0.0
8.0,8.0,16.0,-7.0,-6.0,-16.0,-10.0,-16.0,39.0,-21.0,0.0
9.0,7.0,8.0,-2.0,-13.0,-17.0,-13.0,-21.0,33.0,-5.0,0.0
30.0,16.0,13.0,6.0,-12.0,-13.0,0.0,-5.0,27.0,51.0,0.0
38.0,14.0,12.0,17.0,-7.0,3.0,-2.0,-4.0,19.0,77.0,0.0
29.0,14.0,-3.0,8.0,-5.0,9.0,-6.0,-14.0,18.0,60.0,0.0
18.0,28.0,-8.0,4.0,1.0,0.0,-6.0,-17.0,34.0,39.0,0.0
2.0,37.0,-5.0,8.0,7.0,3.0,0.0,-21.0,36.0,12.0,0.0
-8.0,24.0,-4.0,11.0,14.0,0.0,11.0,-25.0,25.0,-5.0,0.0
-13.0,22.0,0.0,23.0,11.0,-4.0,11.0,-19.0,31.0,-20.0,0.0
-22.0,16.0,7.0,15.0,11.0,3.0,0.0,-19.0,24.0,-26.0,0.0
-20.0,13.0,5.0,10.0,5.0,-4.0,5.0,-19.0,23.0,-19.0,0.0
-28.0,18.0,4.0,13.0,7.0,-7.0,7.0,-20.0,23.0,-20.0,0.0
-28.0,16.0,4.0,10.0,7.0,0.0,5.0,-21.0,26.0,-28.0,0.0
-15.0,21.0,1.0,7.0,5.0,0.0,5.0,-20.0,24.0,-35.0,0.0
-5.0,29.0,0.0,6.0,4.0,3.0,5.0,-12.0,18.0,-35.0,0.0
-8.0,28.0,4.0,7.0,15.0,18.0,7.0,-7.0,12.0,-39.0,0.0
-11.0,25.0,3.0,10.0,24.0,11.0,17.0,-13.0,7.0,-37.0,0.0
-6.0,23.0,2.0,0.0,23.0,-8.0,15.0,-8.0,14.0,-16.0,0.0
-6.0,9.0,2.0,-2.0,12.0,-16.0,4.0,1.0,14.0,0.0,0.0
5.0,3.0,1.0,4.0,0.0,-20.0,-5.0,8.0,0.0,9.0,0.0
34.0,9.0,-17.0,9.0,3.0,-21.0,-9.0,5.0,-18.0,19.0,0.0
48.0,6.0,-28.0,8.0,9.0,-25.0,-4.0,4.0,-32.0,-10.0,0.0
19.0,0.0,-10.0,3.0,18.0,-25.0,1.0,-4.0,-34.0,-26.0,0.0
-2.0,0.0,6.0,-5.0,17.0,-24.0,-1.0,-9.0,-30.0,-24.0,0.0
-14.0,-5.0,1.0,-3.0,3.0,-23.0,-11.0,-5.0,-18.0,-18.0,0.0
-34.0,6.0,0.0,-4.0,-2.0,-16.0,-15.0,3.0,-34.0,-28.0,0.0
-28.0,22.0,6.0,12.0,7.0,-13.0,-6.0,1.0,-55.0,-42.0,0.0
-17.0,33.0,9.0,13.0,19.0,-9.0,-2.0,1.0,-49.0,-51.0,0.0
-6.0,33.0,0.0,3.0,19.0,-2.0,-11.0,9.0,-38.0,-42.0,0.0
10.0,37.0,-9.0,6.0,3.0,2.0,0.0,8.0,-46.0,-39.0,0.0
11.0,35.0,-14.0,-1.0,-5.0,9.0,0.0,14.0,-44.0,-36.0,0.0
0.0,38.0,-5.0,-7.0,-2.0,11.0,-3.0,9.0,-28.0,-33.0,0.0
5.0,27.0,-5.0,-12.0,1.0,12.0,-7.0,1.0,-21.0,-37.0,0.0
9.0,8.0,-12.0,1.0,-3.0,11.0,-11.0,8.0,-21.0,-22.0,0.0
-14.0,-21.0,-19.0,1.0,-3.0,5.0,-5.0,5.0,-18.0,-21.0,0.0
-22.0,-30.0,-12.0,-3.0,-9.0,7.0,-4.0,-3.0,-16.0,-29.0,0.0
-20.0,-13.0,-3.0,-3.0,-1.0,2.0,8.0,-9.0,-8.0,-14.0,0.0
-10.0,-6.0,-8.0,5.0,-7.0,1.0,1.0,-6.0,8.0,16.0,0.0
-13.0,-3.0,-15.0,8.0,-13.0,-4.0,-7.0,-3.0,10.0,28.0,0.0
-16.0,0.0,-20.0,6.0,-19.0,-13.0,-13.0,4.0,13.0,26.0,0.0
-15.0,9.0,-20.0,7.0,-20.0,-5.0,-9.0,5.0,3.0,7.0,0.0
-14.0,17.0,2.0,22.0,-2.0,0.0,2.0,18.0,-2.0,-7.0,0.0
-14.0,19.0,13.0,26.0,12.0,6.0,7.0,26.0,-8.0,-14.0,0.0
0.0,17.0,5.0,27.0,20.0,0.0,16.0,29.0,-4.0,-18.0,0.0
22.0,14.0,5.0,25.0,16.0,-2.0,21.0,25.0,12.0,-8.0,0.0
20.0,12.0,15.0,26.0,9.0,0.0,35.0,27.0,14.0,-9.0,0.0
6.0,9.0,10.0,37.0,13.0,14.0,23.0,34.0,6.0,-27.0,0.0
3.0,5.0,1.0,29.0,14.0,25.0,23.0,27.0,-1.0,-30.0,0.0
8.0,-4.0,-35.0,12.0,2.0,-3.0,3.0,4.0,-8.0,15.0,0.0
1.0,-12.0,-52.0,6.0,-4.0,-24.0,-10.0,2.0,-2.0,69.0,0.0
3.0,-3.0,-35.0,8.0,4.0,-13.0,-18.0,5.0,0.0,67.0,0.0
13.0,15.0,-20.0,11.0,11.0,-9.0,-17.0,-2.0,0.0,46.0,0.0
13.0,8.0,-18.0,10.0,13.0,-16.0,-12.0,0.0,1.0,25.0,0.0
-1.0,0.0,-16.0,-4.0,3.0,-8.0,-8.0,-6.0,-6.0,-8.0,0.0
-4.0,3.0,-3.0,2.0,3.0,5.0,-9.0,-16.0,-13.0,-23.0,0.0
-11.0,11.0,6.0,7.0,8.0,10.0,-7.0,-11.0,-14.0,-30.0,0.0
-29.0,0.0,3.0,12.0,15.0,3.0,6.0,0.0,-15.0,-46.0,0.0
-27.0,-6.0,-6.0,13.0,6.0,2.0,2.0,6.0,-16.0,-51.0,0.0
-4.0,-3.0,-5.0,21.0,-1.0,-2.0,-6.0,7.0,-16.0,-33.0,0.0
3.0,10.0,-5.0,27.0,-1.0,11.0,-4.0,9.0,-16.0,-22.0,0.0
4.0,7.0,6.0,12.0,1.0,2.0,2.0,7.0,-17.0,-22.0,0.0
4.0,35.0,5.0,-12.0,-6.0,-9.0,-1.0,3.0,-5.0,-2.0,0.0
8.0,128.0,8.0,-23.0,-7.0,-8.0,-6.0,-5.0,7.0,48.0,0.0
17.0,164.0,16.0,-23.0,-11.0,-7.0,-7.0,-15.0,14.0,60.0,0.0
13.0,133.0,15.0,-16.0,-7.0,-6.0,-10.0,-5.0,2.0,36.0,0.0
-3.0,48.0,18.0,-14.0,8.0,-12.0,-9.0,-6.0,-2.0,10.0,0.0
-22.0,-18.0,21.0,-13.0,1.0,-16.0,-12.0,-16.0,-2.0,5.0,0.0
-24.0,-85.0,0.0,-8.0,-3.0,-3.0,1.0,-18.0,-6.0,10.0,0.0
-23.0,-161.0,-27.0,-6.0,-4.0,14.0,15.0,0.0,-8.0,6.0,0.0
-41.0,-183.0,-42.0,0.0,0.0,15.0,19.0,8.0,-7.0,1.0,0.0
-26.0,-119.0,-30.0,7.0,1.0,5.0,21.0,8.0,-9.0,-4.0,0.0
-15.0,-67.0,-18.0,7.0,-1.0,6.0,22.0,7.0,-7.0,-6.0,0.0
-11.0,-42.0,-11.0,16.0,0.0,3.0,26.0,0.0,6.0,0.0,0.0
-15.0,-40.0,-12.0,18.0,0.0,2.0,31.0,4.0,5.0,-5.0,0.0
-12.0,-39.0,-9.0,15.0,5.0,0.0,30.0,10.0,-6.0,-19.0,0.0
-16.0,-24.0,-9.0,4.0,14.0,-3.0,34.0,12.0,-1.0,-26.0,0.0
-9.0,-19.0,-7.0,8.0,5.0,6.0,20.0,3.0,2.0,-18.0,0.0
-5.0,-19.0,0.0,8.0,5.0,8.0,22.0,-4.0,-1.0,-11.0,0.0
-6.0,-17.0,6.0,-12.0,6.0,11.0,18.0,-9.0,-3.0,-16.0,0.0
-8.0,-12.0,18.0,-19.0,6.0,8.0,3.0,-5.0,4.0,-24.0,0.0
-1.0,-9.0,14.0,-15.0,-1.0,16.0,2.0,3.0,2.0,-26.0,0.0
-2.0,-12.0,-7.0,4.0,-3.0,28.0,1.0,4.0,8.0,-22.0,0.0
-14.0,-11.0,-9.0,14.0,-5.0,20.0,-4.0,-1.0,22.0,-32.0,0.0
-5.0,-7.0,-7.0,20.0,7.0,17.0,-8.0,1.0,20.0,-42.0,0.0
-2.0,-12.0,9.0,17.0,8.0,15.0,0.0,2.0,24.0,-37.0,0.0
-19.0,-12.0,19.0,2.0,4.0,2.0,0.0,-3.0,41.0,-37.0,0.0
-25.0,-10.0,20.0,3.0,7.0,-2.0,-1.0,-12.0,53.0,-44.0,0.0
-24.0,-4.0,2.0,8.0,7.0,-1.0,-8.0,-18.0,41.0,-49.0,0.0
-28.0,-3.0,-8.0,8.0,2.0,4.0,-10.0,-31.0,31.0,-53.0,0.0
-37.0,-1.0,-1.0,0.0,3.0,7.0,-3.0,-25.0,32.0,-53.0,0.0
-33.0,-8.0,4.0,-7.0,-1.0,9.0,-7.0,-16.0,26.0,-39.0,0.0
0.0,-9.0,4.0,-2.0,0.0,1.0,-15.0,-23.0,24.0,19.0,0.0
34.0,-4.0,11.0,-9.0,-1.0,-5.0,-28.0,-26.0,24.0,79.0,0.0
50.0,5.0,9.0,4.0,0.0,12.0,-8.0,-17.0,24.0,63.0,0.0
21.0,1.0,11.0,13.0,0.0,10.0,-12.0,-6.0,20.0,22.0,0.0
-4.0,-6.0,15.0,3.0,-2.0,-1.0,-31.0,-11.0,7.0,8.0,0.0
2.0,-8.0,0.0,-3.0,-4.0,-19.0,-32.0,-9.0,8.0,36.0,0.0
6.0,-8.0,-10.0,-3.0,-16.0,-17.0,-31.0,-13.0,12.0,46.0,0.0
1.0,-3.0,-4.0,-1.0,-15.0,-5.0,-14.0,-6.0,-2.0,16.0,0.0
-8.0,-6.0,3.0,0.0,0.0,-1.0,-2.0,-6.0,-20.0,-6.0,0.0
0.0,-3.0,-2.0,0.0,6.0,6.0,1.0,-4.0,-13.0,-11.0,0.0
-4.0,-3.0,-4.0,7.0,1.0,5.0,4.0,-6.0,-8.0,-4.0,0.0
-5.0,-2.0,-3.0,9.0,5.0,7.0,1.0,-8.0,-18.0,3.0,0.0
-1.0,0.0,-17.0,7.0,18.0,15.0,9.0,-8.0,-15.0,-4.0,0.0
-1.0,0.0,-4.0,7.0,18.0,28.0,0.0,3.0,-9.0,-15.0,0.0
-7.0,-1.0,3.0,-6.0,17.0,25.0,-8.0,11.0,-13.0,-22.0,0.0
-8.0,-8.0,-3.0,-3.0,18.0,31.0,-3.0,3.0,-11.0,-28.0,0.0
-15.0,-15.0,4.0,-6.0,18.0,25.0,8.0,0.0,-8.0,-30.0,0.0
-14.0,-13.0,-8.0,-14.0,17.0,9.0,0.0,0.0,-6.0,-7.0,0.0
-19.0,-3.0,-10.0,-10.0,9.0,7.0,-12.0,-5.0,4.0,12.0,0.0
-13.0,9.0,-2.0,-9.0,-4.0,14.0,-8.0,1.0,2.0,13.0,0.0
-18.0,3.0,1.0,-11.0,-9.0,11.0,-6.0,0.0,-4.0,-9.0,0.0
-24.0,-3.0,-16.0,-12.0,-11.0,0.0,-2.0,-8.0,-12.0,-16.0,0.0
-8.0,-8.0,-33.0,-30.0,-25.0,-18.0,-18.0,-16.0,0.0,28.0,0.0
-7.0,-13.0,-40.0,-62.0,-37.0,-27.0,-21.0,-28.0,13.0,76.0,0.0
-6.0,-8.0,-28.0,-70.0,-39.0,-18.0,-15.0,-33.0,16.0,74.0,0.0
-18.0,-12.0,-21.0,-70.0,-28.0,-7.0,0.0,-24.0,2.0,40.0,0.0
-10.0,-20.0,-16.0,-76.0,-23.0,-18.0,3.0,-27.0,0.0,15.0,0.0
2.0,-28.0,-16.0,-77.0,-21.0,-38.0,-3.0,-33.0,-7.0,2.0,0.0
20.0,-28.0,-17.0,-69.0,-16.0,-33.0,-15.0,-35.0,-13.0,-10.0,0.0
19.0,-17.0,-3.0,-66.0,-19.0,-26.0,-21.0,-31.0,-12.0,-19.0,0.0
4.0,-18.0,-6.0,-57.0,-15.0,-27.0,-17.0,-24.0,0.0,-31.0,0.0
0.0,-19.0,-10.0,-32.0,-23.0,-21.0,-14.0,-23.0,-4.0,-37.0,0.0
7.0,-7.0,1.0,-7.0,-22.0,-10.0,-14.0,-27.0,-16.0,-42.0,0.0
1.0,-2.0,0.0,3.0,-13.0,-1.0,-4.0,-29.0,-27.0,-41.0,0.0
-4.0,0.0,2.0,-7.0,-10.0,-1.0,2.0,-20.0,-21.0,-31.0,0.0
-2.0,6.0,-1.0,-12.0,-5.0,-6.0,-10.0,-20.0,-32.0,-34.0,0.0
-1.0,4.0,2.0,-17.0,0.0,5.0,1.0,-18.0,-15.0,-53.0,0.0
-11.0,3.0,0.0,-18.0,-1.0,17.0,19.0,-24.0,-3.0,-55.0,0.0
-26.0,-5.0,-5.0,-9.0,0.0,30.0,25.0,-21.0,-7.0,-58.0,0.0
-29.0,-34.0,-9.0,-7.0,1.0,27.0,25.0,1.0,0.0,-68.0,0.0
-5.0,-40.0,-3.0,-4.0,-12.0,29.0,12.0,-1.0,-8.0,-47.0,0.0
22.0,-20.0,4.0,-4.0,-16.0,19.0,2.0,-13.0,-17.0,1.0,0.0
27.0,-22.0,6.0,4.0,0.0,15.0,-1.0,-14.0,-8.0,30.0,0.0
16.0,-19.0,21.0,12.0,2.0,17.0,8.0,-13.0,-6.0,12.0,0.0
9.0,-6.0,24.0,11.0,4.0,33.0,12.0,-9.0,-11.0,-12.0,0.0
0.0,5.0,28.0,12.0,18.0,40.0,10.0,-5.0,-16.0,-27.0,0.0
-1.0,5.0,16.0,17.0,15.0,27.0,3.0,0.0,-15.0,-24.0,0.0
6.0,11.0,-1.0,6.0,2.0,18.0,11.0,5.0,-8.0,-3.0,0.0
2.0,-7.0,-6.0,1.0,-8.0,10.0,-1.0,11.0,-3.0,12.0,0.0
-13.0,-10.0,-2.0,11.0,-23.0,4.0,-3.0,1.0,-2.0,9.0,0.0
-5.0,-7.0,-3.0,16.0,-18.0,12.0,21.0,4.0,3.0,-14.0,0.0
-5.0,-8.0,-2.0,10.0,-19.0,8.0,27.0,14.0,-1.0,-24.0,0.0
-1.0,7.0,-1.0,12.0,-24.0,0.0,19.0,16.0,-11.0,-24.0,0.0
4.0,56.0,-3.0,12.0,-23.0,-1.0,16.0,0.0,-9.0,-26.0,0.0
4.0,145.0,-5.0,6.0,-14.0,5.0,11.0,-1.0,-13.0,-30.0,0.0
1.0,178.0,-1.0,0.0,-11.0,12.0,11.0,9.0,-8.0,-13.0,0.0
11.0,140.0,-1.0,10.0,-9.0,10.0,3.0,13.0,12.0,26.0,0.0
30.0,84.0,17.0,29.0,-5.0,17.0,6.0,9.0,17.0,59.0,0.0
29.0,34.0,28.0,32.0,9.0,16.0,6.0,0.0,13.0,67.0,0.0
16.0,-33.0,14.0,27.0,11.0,-6.0,19.0,10.0,24.0,61.0,0.0
-1.0,-117.0,-7.0,25.0,22.0,-1.0,25.0,20.0,29.0,54.0,0.0
-17.0,-157.0,-22.0,30.0,47.0,17.0,31.0,29.0,27.0,53.0,0.0
-21.0,-98.0,-15.0,24.0,55.0,27.0,15.0,13.0,15.0,43.0,0.0
-17.0,-33.0,-5.0,22.0,47.0,18.0,10.0,12.0,8.0,31.0,0.0
-15.0,-15.0,-1.0,29.0,34.0,17.0,10.0,13.0,7.0,11.0,0.0
-19.0,-11.0,5.0,31.0,30.0,25.0,10.0,10.0,-1.0,-14.0,0.0
-11.0,0.0,3.0,45.0,34.0,27.0,8.0,5.0,4.0,-24.0,0.0
-4.0,0.0,4.0,36.0,22.0,22.0,3.0,16.0,11.0,-24.0,0.0
-3.0,8.0,14.0,36.0,13.0,36.0,15.0,14.0,21.0,-32.0,0.0
-5.0,14.0,19.0,45.0,17.0,44.0,20.0,4.0,5.0,-34.0,0.0
-7.0,4.0,21.0,44.0,27.0,43.0,32.0,2.0,5.0,-41.0,0.0
-4.0,-4.0,-4.0,30.0,19.0,11.0,7.0,-3.0,17.0,-3.0,0.0
10.0,-2.0,-24.0,11.0,-3.0,-11.0,-19.0,-6.0,9.0,50.0,0.0
6.0,4.0,-16.0,1.0,1.0,-10.0,-27.0,-20.0,6.0,80.0,0.0
4.0,-6.0,-23.0,-1.0,3.0,-13.0,-18.0,-20.0,12.0,92.0,0.0
18.0,0.0,-7.0,0.0,-5.0,-27.0,-18.0,-18.0,18.0,99.0,0.0
30.0,18.0,12.0,1.0,-11.0,-20.0,-15.0,-22.0,2.0,76.0,0.0
19.0,27.0,23.0,3.0,-7.0,-13.0,-18.0,-20.0,-15.0,49.0,0.0
6.0,15.0,10.0,1.0,1.0,0.0,-20.0,-10.0,-17.0,21.0,0.0
-1.0,5.0,7.0,2.0,3.0,8.0,-21.0,-4.0,-5.0,3.0,0.0
-4.0,9.0,12.0,7.0,2.0,-3.0,-23.0,0.0,3.0,-4.0,0.0
5.0,26.0,16.0,10.0,-3.0,-22.0,-22.0,13.0,5.0,6.0,0.0
2.0,34.0,13.0,7.0,2.0,-22.0,-17.0,13.0,7.0,0.0,0.0
-12.0,38.0,3.0,6.0,3.0,-28.0,-7.0,1.0,14.0,-23.0,0.0
-5.0,40.0,7.0,-7.0,4.0,-26.0,6.0,5.0,4.0,-29.0,0.0
-5.0,23.0,8.0,-12.0,12.0,-21.0,-3.0,17.0,0.0,-28.0,0.0
-14.0,13.0,0.0,-1.0,15.0,-32.0,-8.0,8.0,-7.0,-34.0,0.0
-5.0,18.0,-3.0,0.0,7.0,-25.0,-12.0,2.0,-5.0,-23.0,0.0
-14.0,23.0,0.0,0.0,10.0,-22.0,-10.0,9.0,-9.0,-27.0,0.0
-19.0,14.0,-8.0,-3.0,21.0,-29.0,-3.0,15.0,-25.0,-52.0,0.0
-17.0,2.0,2.0,0.0,21.0,-16.0,-7.0,15.0,-28.0,-53.0,0.0
2.0,4.0,11.0,5.0,17.0,-16.0,-4.0,9.0,-19.0,-13.0,0.0
20.0,12.0,13.0,-6.0,14.0,-24.0,7.0,10.0,-16.0,10.0,0.0
25.0,14.0,16.0,-3.0,16.0,-10.0,11.0,4.0,-16.0,-16.0,0.0
22.0,8.0,20.0,3.0,18.0,-12.0,10.0,8.0,-18.0,-38.0,0.0
12.0,10.0,16.0,-9.0,8.0,-17.0,-2.0,-5.0,-16.0,-29.0,0.0
5.0,4.0,11.0,-21.0,1.0,-9.0,-17.0,-17.0,0.0,-8.0,0.0
0.0,4.0,17.0,-22.0,7.0,-7.0,-14.0,-2.0,-12.0,0.0,0.0
-5.0,11.0,18.0,-10.0,14.0,-15.0,-14.0,-1.0,-23.0,-16.0,0.0
12.0,17.0,28.0,-15.0,18.0,-10.0,-14.0,-2.0,-23.0,-20.0,0.0
18.0,14.0,16.0,-5.0,13.0,-8.0,-13.0,-6.0,-18.0,0.0,0.0
5.0,4.0,0.0,-4.0,7.0,-8.0,-19.0,-8.0,-15.0,2.0,0.0
1.0,-8.0,-4.0,-10.0,5.0,-14.0,-15.0,0.0,-4.0,7.0,0.0
0.0,-12.0,-4.0,1.0,17.0,-7.0,-18.0,5.0,-10.0,9.0,0.0
-3.0,-21.0,0.0,14.0,18.0,-5.0,-11.0,8.0,-12.0,-3.0,0.0
-5.0,-14.0,0.0,14.0,16.0,2.0,-3.0,3.0,-5.0,-7.0,0.0
8.0,-11.0,7.0,10.0,16.0,14.0,-2.0,0.0,-12.0,-13.0,0.0
-11.0,-12.0,24.0,9.0,17.0,21.0,0.0,1.0,-18.0,-16.0,0.0
-30.0,-10.0,40.0,10.0,29.0,24.0,-6.0,0.0,-12.0,-21.0,0.0
-17.0,0.0,39.0,8.0,25.0,27.0,-13.0,0.0,-11.0,-15.0,0.0
15.0,4.0,38.0,14.0,16.0,21.0,-11.0,0.0,-15.0,13.0,0.0
14.0,9.0,36.0,16.0,12.0,28.0,-13.0,0.0,-5.0,12.0,0.0
15.0,26.0,41.0,11.0,17.0,27.0,-5.0,3.0,-17.0,11.0,0.0
9.0,28.0,36.0,1.0,7.0,35.0,4.0,-2.0,-9.0,19.0,0.0
6.0,21.0,27.0,7.0,6.0,32.0,11.0,-4.0,-4.0,31.0,0.0
5.0,18.0,20.0,11.0,0.0,25.0,16.0,-11.0,-6.0,27.0,0.0
2.0,17.0,18.0,8.0,-6.0,33.0,15.0,-6.0,-4.0,17.0,0.0
0.0,-1.0,16.0,5.0,-2.0,28.0,25.0,0.0,6.0,15.0,0.0
6.0,-10.0,5.0,-4.0,8.0,25.0,19.0,8.0,14.0,30.0,0.0
7.0,-16.0,2.0,-8.0,-5.0,1.0,11.0,13.0,23.0,62.0,0.0
8.0,-15.0,-5.0,-13.0,-27.0,-10.0,1.0,-1.0,32.0,75.0,0.0
19.0,-5.0,-10.0,-9.0,-34.0,-1.0,4.0,-5.0,28.0,71.0,0.0
33.0,5.0,-2.0,-12.0,-45.0,-6.0,1.0,-8.0,29.0,60.0,0.0
30.0,6.0,2.0,-18.0,-47.0,-13.0,12.0,-7.0,20.0,31.0,0.0
28.0,12.0,7.0,-20.0,-34.0,-10.0,11.0,-14.0,14.0,16.0,0.0
31.0,23.0,17.0,-18.0,-22.0,3.0,7.0,-13.0,7.0,10.0,0.0
31.0,21.0,4.0,-17.0,-7.0,12.0,5.0,-7.0,3.0,5.0,0.0
32.0,44.0,8.0,-15.0,-4.0,7.0,2.0,-12.0,0.0,-2.0,0.0
37.0,109.0,20.0,-7.0,-5.0,-5.0,0.0,-22.0,3.0,-9.0,0.0
33.0,144.0,32.0,-10.0,-2.0,9.0,11.0,-26.0,7.0,-17.0,0.0
35.0,119.0,37.0,-4.0,5.0,10.0,10.0,-22.0,3.0,-16.0,0.0
32.0,56.0,26.0,-2.0,17.0,22.0,17.0,-12.0,0.0,-17.0,0.0
32.0,2.0,8.0,-10.0,15.0,20.0,10.0,-7.0,-7.0,-17.0,0.0
25.0,-59.0,-3.0,-5.0,14.0,17.0,7.0,-9.0,-9.0,-21.0,0.0
9.0,-139.0,-23.0,-11.0,22.0,22.0,24.0,-2.0,4.0,-26.0,0.0
9.0,-193.0,-43.0,-6.0,22.0,10.0,31.0,7.0,8.0,-25.0,0.0
3.0,-143.0,-33.0,-5.0,17.0,-3.0,17.0,4.0,-7.0,-50.0,0.0
3.0,-82.0,-9.0,-15.0,14.0,-14.0,3.0,4.0,-15.0,-74.0,0.0
-2.0,-56.0,-5.0,-24.0,5.0,-7.0,0.0,5.0,-15.0,-73.0,0.0
-13.0,-36.0,-9.0,-28.0,-2.0,-10.0,11.0,0.0,-19.0,-70.0,0.0
-18.0,-33.0,-26.0,-24.0,2.0,-26.0,11.0,-2.0,-25.0,-47.0,0.0
-7.0,-37.0,-26.0,-19.0,5.0,-18.0,29.0,4.0,-10.0,-11.0,0.0
-8.0,-22.0,-33.0,-11.0,4.0,-8.0,31.0,11.0,0.0,-4.0,0.0
-15.0,-9.0,-36.0,-14.0,7.0,-15.0,17.0,10.0,-2.0,-8.0,0.0
-12.0,-15.0,-33.0,-16.0,2.0,-18.0,18.0,19.0,-7.0,-17.0,0.0
-11.0,-4.0,-31.0,-18.0,0.0,-11.0,16.0,13.0,-11.0,-20.0,0.0
-20.0,5.0,-28.0,0.0,-10.0,-15.0,13.0,5.0,-7.0,-13.0,0.0
-9.0,4.0,-27.0,0.0,-15.0,-24.0,5.0,4.0,-2.0,-15.0,0.0
-10.0,2.0,-28.0,-3.0,-20.0,-19.0,7.0,9.0,6.0,-21.0,0.0
-3.0,9.0,-32.0,-17.0,-23.0,-20.0,7.0,0.0,13.0,-20.0,0.0
-1.0,6.0,-36.0,-25.0,-32.0,-17.0,-1.0,6.0,18.0,-18.0,0.0
-5.0,14.0,-23.0,-19.0,-38.0,-20.0,-7.0,1.0,19.0,-17.0,0.0
-9.0,17.0,4.0,-24.0,-32.0,-14.0,-20.0,1.0,15.0,-10.0,0.0
-10.0,23.0,3.0,-31.0,-31.0,-8.0,-18.0,0.0,23.0,-20.0,0.0
-13.0,19.0,-6.0,-30.0,-33.0,-14.0,2.0,-6.0,22.0,-9.0,0.0
8.0,7.0,0.0,-30.0,-35.0,-20.0,-3.0,-8.0,17.0,34.0,0.0
35.0,3.0,4.0,-19.0,-32.0,-13.0,-4.0,2.0,10.0,46.0,0.0
35.0,1.0,27.0,14.0,-16.0,5.0,12.0,18.0,7.0,34.0,0.0
14.0,4.0,43.0,34.0,-6.0,10.0,28.0,18.0,7.0,13.0,0.0
4.0,6.0,34.0,40.0,-7.0,18.0,30.0,12.0,0.0,-3.0,0.0
5.0,13.0,29.0,35.0,-4.0,10.0,25.0,9.0,-12.0,-21.0,0.0
0.0,20.0,33.0,26.0,-7.0,2.0,29.0,-1.0,0.0,-27.0,0.0
-3.0,14.0,42.0,23.0,-1.0,3.0,37.0,0.0,15.0,-24.0,0.0
-5.0,11.0,38.0,20.0,-7.0,-8.0,16.0,-6.0,15.0,-5.0,0.0
-2.0,5.0,29.0,-2.0,-29.0,-9.0,14.0,-18.0,14.0,26.0,0.0
4.0,6.0,24.0,2.0,-36.0,-13.0,19.0,-13.0,13.0,25.0,0.0
-11.0,23.0,33.0,16.0,-34.0,-9.0,16.0,-1.0,0.0,2.0,0.0
-18.0,28.0,36.0,26.0,-24.0,0.0,20.0,9.0,-2.0,-22.0,0.0
-3.0,22.0,30.0,17.0,-14.0,-5.0,5.0,6.0,-12.0,-32.0,0.0
4.0,11.0,35.0,12.0,-15.0,-15.0,2.0,4.0,-3.0,-17.0,0.0
0.0,-7.0,33.0,7.0,-10.0,-11.0,2.0,2.0,5.0,-23.0,0.0
0.0,-16.0,21.0,8.0,-11.0,-12.0,-8.0,-4.0,1.0,3.0,0.0
9.0,-17.0,1.0,-20.0,-27.0,-42.0,-14.0,-6.0,16.0,75.0,0.0
25.0,-27.0,-24.0,-42.0,-41.0,-51.0,-26.0,-18.0,23.0,133.0,0.0
30.0,-27.0,-27.0,-32.0,-25.0,-35.0,-20.0,-19.0,20.0,125.0,0.0
20.0,-15.0,-16.0,-19.0,-9.0,-31.0,-10.0,-7.0,7.0,65.0,0.0
10.0,-14.0,-17.0,-10.0,-18.0,-24.0,0.0,0.0,-7.0,17.0,0.0
7.0,-8.0,-22.0,-10.0,-26.0,-19.0,-10.0,-8.0,-14.0,0.0,0.0
1.0,-5.0,-12.0,-1.0,-26.0,-22.0,-9.0,-6.0,-11.0,-14.0,0.0
-9.0,-4.0,-19.0,10.0,-25.0,-17.0,-5.0,-5.0,-6.0,-18.0,0.0
-20.0,-10.0,-33.0,20.0,-27.0,-11.0,4.0,10.0,-9.0,-12.0,0.0
-28.0,-13.0,-29.0,16.0,-27.0,-4.0,-3.0,5.0,-15.0,-15.0,0.0
-34.0,-9.0,-31.0,-6.0,-32.0,-11.0,-14.0,-5.0,-19.0,-3.0,0.0
-26.0,-4.0,-28.0,-12.0,-36.0,-10.0,-26.0,-3.0,-16.0,15.0,0.0
-19.0,-1.0,-16.0,-14.0,-26.0,-10.0,-20.0,-9.0,-13.0,12.0,0.0
-9.0,-4.0,-13.0,-13.0,-16.0,-8.0,-12.0,-7.0,-19.0,-3.0,0.0
-13.0,0.0,-12.0,-8.0,-12.0,1.0,0.0,-8.0,-23.0,-18.0,0.0
-20.0,-3.0,2.0,5.0,-11.0,-1.0,2.0,-5.0,-23.0,-23.0,0.0
-12.0,-2.0,3.0,5.0,-6.0,-4.0,17.0,-3.0,-19.0,9.0,0.0
6.0,-3.0,4.0,0.0,-10.0,-3.0,10.0,-8.0,-12.0,37.0,0.0
-3.0,-1.0,6.0,2.0,-2.0,0.0,1.0,-18.0,-13.0,11.0,0.0
-17.0,1.0,11.0,11.0,3.0,7.0,1.0,-6.0,-23.0,-16.0,0.0
-14.0,19.0,29.0,19.0,3.0,5.0,-2.0,-9.0,-34.0,-27.0,0.0
1.0,14.0,26.0,23.0,1.0,0.0,-5.0,-14.0,-39.0,-27.0,0.0
0.0,1.0,14.0,23.0,-4.0,4.0,-9.0,-9.0,-17.0,-26.0,0.0
-2.0,-3.0,13.0,21.0,-3.0,12.0,-4.0,-5.0,-6.0,-33.0,0.0
-10.0,-7.0,17.0,23.0,-1.0,2.0,-3.0,2.0,-5.0,-50.0,0.0
-5.0,-8.0,12.0,18.0,-12.0,-11.0,-4.0,-2.0,7.0,-25.0,0.0
12.0,-6.0,11.0,0.0,-15.0,-6.0,-4.0,-3.0,22.0,7.0,0.0
11.0,-19.0,18.0,-17.0,-8.0,-6.0,4.0,-10.0,16.0,5.0,0.0
4.0,-5.0,24.0,-38.0,-7.0,-11.0,-4.0,-6.0,3.0,-3.0,0.0
1.0,-10.0,18.0,-37.0,-5.0,-4.0,0.0,-3.0,11.0,-14.0,0.0
-12.0,-13.0,6.0,-41.0,-3.0,4.0,1.0,-7.0,4.0,-32.0,0.0
-21.0,-14.0,9.0,-43.0,0.0,3.0,10.0,-13.0,-5.0,-22.0,0.0
-22.0,-27.0,7.0,-42.0,-3.0,3.0,-1.0,-19.0,0.0,-16.0,0.0
-21.0,-28.0,-10.0,-27.0,-16.0,6.0,0.0,-22.0,10.0,-3.0,0.0
-20.0,-25.0,-23.0,-29.0,-40.0,-2.0,-5.0,-17.0,22.0,13.0,0.0
-21.0,-29.0,-24.0,-43.0,-44.0,-15.0,-1.0,-6.0,29.0,18.0,0.0
-16.0,-25.0,-30.0,-33.0,-39.0,-4.0,0.0,-11.0,23.0,6.0,0.0
-9.0,-23.0,-18.0,-28.0,-34.0,4.0,3.0,-20.0,20.0,7.0,0.0
2.0,-20.0,-5.0,-22.0,-21.0,0.0,2.0,-15.0,26.0,13.0,0.0
-6.0,-21.0,2.0,-23.0,-17.0,-2.0,2.0,-5.0,19.0,15.0,0.0
-16.0,-20.0,2.0,-20.0,-12.0,1.0,9.0,-4.0,10.0,2.0,0.0
-8.0,-17.0,-5.0,-12.0,-3.0,0.0,7.0,0.0,9.0,4.0,0.0
-1.0,-14.0,-3.0,-5.0,-3.0,-4.0,11.0,4.0,5.0,1.0,0.0
11.0,-9.0,-9.0,0.0,3.0,-4.0,-3.0,1.0,0.0,4.0,0.0
8.0,5.0,-15.0,3.0,7.0,-9.0,2.0,2.0,-7.0,7.0,0.0
-2.0,9.0,-14.0,0.0,13.0,-6.0,2.0,2.0,-12.0,-16.0,0.0
-1.0,13.0,-22.0,-6.0,12.0,-6.0,2.0,-2.0,-13.0,-22.0,0.0
6.0,13.0,-29.0,-5.0,20.0,-3.0,-1.0,0.0,-9.0,-16.0,0.0
8.0,1.0,-29.0,0.0,17.0,5.0,-7.0,-3.0,-10.0,-25.0,0.0
2.0,-11.0,-26.0,-2.0,10.0,7.0,-10.0,-6.0,-14.0,-33.0,0.0
0.0,-7.0,-30.0,-8.0,11.0,2.0,-2.0,2.0,0.0,-32.0,0.0
-5.0,-4.0,-27.0,-19.0,13.0,-6.0,4.0,4.0,7.0,-17.0,0.0
-4.0,-10.0,-23.0,-10.0,4.0,-16.0,-8.0,-7.0,2.0,7.0,0.0
0.0,-9.0,-24.0,-12.0,0.0,-11.0,-5.0,-7.0,3.0,35.0,0.0
9.0,0.0,-20.0,-10.0,7.0,3.0,-5.0,-6.0,-1.0,46.0,0.0
17.0,3.0,-21.0,-2.0,16.0,8.0,0.0,7.0,-6.0,37.0,0.0
8.0,20.0,-26.0,-4.0,25.0,2.0,0.0,5.0,3.0,31.0,0.0
-4.0,20.0,-24.0,0.0,36.0,10.0,6.0,6.0,0.0,22.0,0.0
-3.0,19.0,-17.0,-7.0,41.0,9.0,-2.0,17.0,-2.0,3.0,0.0
2.0,20.0,-16.0,0.0,45.0,9.0,2.0,23.0,3.0,-5.0,0.0
-7.0,18.0,-27.0,3.0,41.0,0.0,-6.0,6.0,9.0,-2.0,0.0
-10.0,13.0,-22.0,2.0,39.0,2.0,5.0,5.0,1.0,14.0,0.0
-5.0,12.0,-17.0,9.0,36.0,6.0,10.0,10.0,0.0,8.0,0.0
0.0,28.0,0.0,12.0,28.0,6.0,3.0,12.0,3.0,7.0,0.0
2.0,58.0,10.0,7.0,15.0,-5.0,4.0,11.0,-5.0,15.0,0.0
8.0,141.0,24.0,17.0,7.0,-9.0,-2.0,7.0,-10.0,15.0,0.0
18.0,206.0,30.0,21.0,-3.0,-13.0,1.0,0.0,-8.0,15.0,0.0
13.0,182.0,21.0,27.0,-10.0,-8.0,2.0,5.0,0.0,22.0,0.0
16.0,94.0,21.0,31.0,-4.0,-4.0,20.0,0.0,0.0,11.0,0.0
11.0,25.0,24.0,27.0,-10.0,-11.0,9.0,-13.0,-10.0,-14.0,0.0
0.0,-38.0,17.0,21.0,-8.0,-11.0,11.0,-12.0,-6.0,-15.0,0.0
-12.0,-111.0,-5.0,14.0,0.0,0.0,28.0,0.0,-8.0,-3.0,0.0
-37.0,-177.0,-25.0,13.0,14.0,13.0,32.0,1.0,-11.0,-3.0,0.0
-46.0,-165.0,-19.0,-3.0,18.0,15.0,15.0,8.0,-12.0,-12.0,0.0
-34.0,-99.0,-7.0,-8.0,9.0,1.0,13.0,0.0,-17.0,-17.0,0.0
-22.0,-63.0,7.0,-2.0,8.0,-9.0,17.0,-4.0,-16.0,-26.0,0.0
-13.0,-51.0,6.0,1.0,10.0,-10.0,21.0,0.0,-10.0,-31.0,0.0
-25.0,-41.0,-9.0,-12.0,-3.0,-9.0,4.0,14.0,-9.0,-38.0,0.0
-40.0,-47.0,-17.0,-13.0,-3.0,-10.0,2.0,19.0,-17.0,-50.0,0.0
-25.0,-36.0,-10.0,-14.0,-4.0,-13.0,0.0,7.0,-20.0,-33.0,0.0
1.0,-16.0,4.0,-17.0,-8.0,-17.0,-5.0,-5.0,-7.0,-13.0,0.0
2.0,-15.0,9.0,-9.0,-7.0,-22.0,4.0,0.0,-1.0,-11.0,0.0
-9.0,-9.0,13.0,0.0,6.0,-4.0,3.0,3.0,-6.0,-23.0,0.0
-18.0,-12.0,19.0,3.0,10.0,11.0,13.0,15.0,-11.0,-33.0,0.0
-26.0,-19.0,20.0,-5.0,7.0,5.0,10.0,14.0,0.0,-24.0,0.0
-17.0,-16.0,14.0,-5.0,5.0,-4.0,1.0,7.0,7.0,-6.0,0.0
0.0,-7.0,6.0,1.0,-1.0,-7.0,9.0,7.0,14.0,10.0,0.0
12.0,-1.0,-11.0,0.0,0.0,-7.0,11.0,21.0,10.0,8.0,0.0
4.0,12.0,-14.0,0.0,6.0,0.0,12.0,28.0,2.0,8.0,0.0
-1.0,13.0,-9.0,4.0,-4.0,3.0,14.0,19.0,-2.0,19.0,0.0
-6.0,12.0,0.0,17.0,-7.0,15.0,20.0,27.0,3.0,38.0,0.0
-11.0,12.0,11.0,27.0,-10.0,17.0,22.0,28.0,10.0,59.0,0.0
-19.0,17.0,9.0,31.0,-8.0,18.0,33.0,30.0,9.0,59.0,0.0
-7.0,18.0,17.0,47.0,-2.0,21.0,36.0,32.0,-2.0,71.0,0.0
21.0,20.0,19.0,40.0,9.0,9.0,15.0,41.0,-2.0,121.0,0.0
42.0,22.0,23.0,25.0,8.0,2.0,6.0,36.0,7.0,145.0,0.0
37.0,7.0,16.0,29.0,3.0,-5.0,7.0,29.0,1.0,124.0,0.0
13.0,2.0,10.0,27.0,5.0,-2.0,-4.0,26.0,-19.0,79.0,0.0
1.0,8.0,10.0,26.0,8.0,-7.0,-2.0,25.0,-20.0,39.0,0.0
4.0,0.0,3.0,13.0,-11.0,-26.0,-9.0,19.0,-10.0,54.0,0.0
9.0,-5.0,-13.0,0.0,-21.0,-29.0,-18.0,4.0,5.0,81.0,0.0
4.0,-10.0,-13.0,4.0,-16.0,-12.0,-11.0,10.0,4.0,59.0,0.0
7.0,-17.0,-4.0,0.0,-12.0,-1.0,-11.0,14.0,6.0,42.0,0.0
2.0,-11.0,-4.0,-5.0,-2.0,2.0,0.0,4.0,-1.0,17.0,0.0
0.0,-3.0,-2.0,1.0,-15.0,3.0,-10.0,-4.0,1.0,23.0,0.0
23.0,13.0,1.0,2.0,-8.0,20.0,-14.0,6.0,8.0,89.0,0.0
32.0,22.0,5.0,5.0,3.0,22.0,12.0,12.0,24.0,107.0,0.0
8.0,26.0,11.0,19.0,22.0,38.0,13.0,20.0,13.0,61.0,0.0
0.0,22.0,15.0,29.0,32.0,49.0,17.0,20.0,0.0,30.0,0.0
11.0,27.0,7.0,28.0,31.0,39.0,26.0,25.0,-7.0,3.0,0.0
14.0,26.0,-5.0,22.0,27.0,30.0,3.0,15.0,-13.0,-7.0,0.0
9.0,13.0,-6.0,12.0,15.0,19.0,-6.0,2.0,-14.0,13.0,0.0
7.0,1.0,-14.0,20.0,5.0,5.0,4.0,-3.0,-2.0,43.0,0.0
13.0,4.0,-9.0,41.0,-1.0,10.0,-7.0,0.0,-1.0,34.0,0.0
9.0,9.0,-10.0,27.0,-10.0,21.0,-12.0,2.0,-8.0,17.0,0.0
18.0,11.0,3.0,21.0,-11.0,20.0,-5.0,3.0,-10.0,7.0,0.0
27.0,16.0,3.0,15.0,-2.0,15.0,-6.0,11.0,-15.0,-5.0,0.0
19.0,9.0,0.0,3.0,0.0,3.0,0.0,6.0,-18.0,-6.0,0.0
17.0,10.0,9.0,5.0,-1.0,-1.0,-5.0,12.0,-8.0,-8.0,0.0
13.0,10.0,11.0,11.0,5.0,1.0,2.0,10.0,-7.0,-12.0,0.0
13.0,9.0,-1.0,7.0,12.0,-9.0,4.0,6.0,-5.0,-11.0,0.0
17.0,-2.0,-11.0,0.0,2.0,-12.0,-9.0,2.0,-12.0,-10.0,0.0
26.0,-3.0,-15.0,4.0,-3.0,-1.0,-3.0,1.0,-7.0,0.0,0.0
24.0,-7.0,-22.0,7.0,4.0,5.0,-5.0,7.0,-5.0,0.0,0.0
6.0,-13.0,-18.0,4.0,3.0,0.0,4.0,7.0,-5.0,-11.0,0.0
-10.0,-10.0,-12.0,-8.0,3.0,3.0,8.0,10.0,-8.0,-15.0,0.0
-13.0,-7.0,-12.0,-10.0,3.0,5.0,1.0,18.0,-15.0,-25.0,0.0
-11.0,1.0,-4.0,-13.0,-10.0,-5.0,11.0,20.0,-18.0,-20.0,0.0
-16.0,5.0,8.0,-5.0,-7.0,-7.0,5.0,12.0,-12.0,-32.0,0.0
-13.0,-7.0,4.0,-6.0,-13.0,-15.0,-8.0,11.0,-14.0,-43.0,0.0
7.0,-10.0,4.0,-14.0,-18.0,-28.0,-5.0,11.0,-17.0,-49.0,0.0
1.0,-21.0,6.0,-26.0,-10.0,-27.0,-5.0,9.0,-9.0,-49.0,0.0
-12.0,-29.0,-4.0,-31.0,-6.0,-20.0,1.0,6.0,-11.0,-54.0,0.0
-16.0,-17.0,-4.0,-26.0,-2.0,-18.0,9.0,-3.0,-2.0,-52.0,0.0
-17.0,-5.0,-11.0,-28.0,-1.0,-19.0,1.0,-17.0,0.0,-25.0,0.0
-15.0,18.0,-17.0,-42.0,3.0,-28.0,-1.0,-7.0,11.0,21.0,0.0
-9.0,22.0,-22.0,-34.0,0.0,-24.0,10.0,5.0,12.0,28.0,0.0
1.0,20.0,-31.0,-31.0,-1.0,-8.0,6.0,-3.0,3.0,18.0,0.0
4.0,26.0,-37.0,-30.0,0.0,-6.0,19.0,-6.0,3.0,10.0,0.0
7.0,28.0,-25.0,-20.0,0.0,-2.0,24.0,1.0,6.0,0.0,0.0
10.0,105.0,-16.0,-22.0,5.0,-4.0,4.0,9.0,3.0,-7.0,0.0
17.0,171.0,-19.0,-23.0,12.0,-7.0,3.0,9.0,1.0,0.0,0.0
18.0,155.0,-13.0,-19.0,3.0,-11.0,9.0,1.0,7.0,3.0,0.0
25.0,98.0,-11.0,-13.0,10.0,-27.0,-1.0,-7.0,3.0,-2.0,0.0
22.0,34.0,-6.0,-11.0,1.0,-29.0,-5.0,-8.0,-2.0,-8.0,0.0
16.0,-27.0,-11.0,-12.0,-1.0,-25.0,-2.0,-19.0,-2.0,-18.0,0.0
1.0,-118.0,-35.0,-6.0,3.0,-12.0,-6.0,-7.0,1.0,-3.0,0.0
-22.0,-182.0,-47.0,15.0,11.0,-6.0,0.0,12.0,9.0,0.0,0.0
-24.0,-159.0,-33.0,18.0,6.0,-9.0,-3.0,15.0,8.0,-11.0,0.0
-10.0,-113.0,-23.0,8.0,-4.0,-17.0,-18.0,13.0,7.0,-21.0,0.0
-7.0,-73.0,-12.0,-1.0,-5.0,-23.0,-21.0,11.0,6.0,-9.0,0.0
-12.0,-52.0,-16.0,3.0,-12.0,-34.0,-16.0,13.0,10.0,9.0,0.0
2.0,-54.0,-27.0,6.0,-7.0,-30.0,-5.0,19.0,26.0,9.0,0.0
4.0,-46.0,-30.0,1.0,-4.0,-25.0,-16.0,17.0,31.0,-10.0,0.0
6.0,-51.0,-37.0,-13.0,-17.0,-23.0,-13.0,16.0,22.0,-7.0,0.0
11.0,-59.0,-37.0,-8.0,-14.0,-10.0,-8.0,10.0,14.0,-5.0,0.0
9.0,-52.0,-24.0,1.0,1.0,3.0,-12.0,6.0,2.0,-28.0,0.0
6.0,-40.0,-26.0,-5.0,0.0,2.0,-10.0,5.0,1.0,-43.0,0.0
20.0,-29.0,-28.0,-14.0,-9.0,0.0,-22.0,-7.0,-2.0,-47.0,0.0
12.0,-19.0,-22.0,-19.0,-14.0,0.0,-23.0,-18.0,-20.0,-38.0,0.0
2.0,-25.0,-12.0,-9.0,-18.0,1.0,-27.0,-20.0,-15.0,-33.0,0.0
-3.0,-17.0,-3.0,2.0,-18.0,12.0,-14.0,-10.0,-15.0,-38.0,0.0
-5.0,-16.0,-13.0,7.0,-7.0,5.0,-19.0,-5.0,-23.0,-47.0,0.0
1.0,-8.0,-18.0,11.0,-1.0,7.0,-3.0,2.0,-10.0,-52.0,0.0
1.0,-5.0,-3.0,11.0,-3.0,4.0,-2.0,7.0,0.0,-49.0,0.0
5.0,-3.0,0.0,9.0,-3.0,-9.0,-6.0,12.0,1.0,-47.0,0.0
7.0,-1.0,-9.0,7.0,-15.0,-14.0,-19.0,2.0,1.0,-37.0,0.0
21.0,-1.0,-14.0,20.0,-19.0,-21.0,-27.0,-2.0,9.0,-21.0,0.0
30.0,-9.0,-13.0,17.0,-29.0,-21.0,-32.0,0.0,34.0,-1.0,0.0
22.0,-13.0,-17.0,19.0,-36.0,-23.0,-31.0,1.0,32.0,12.0,0.0
3.0,-13.0,-22.0,25.0,-26.0,-18.0,-18.0,2.0,23.0,7.0,0.0
-5.0,-15.0,-17.0,37.0,-24.0,-6.0,-8.0,4.0,20.0,3.0,0.0
-2.0,-1.0,0.0,35.0,-28.0,-1.0,-8.0,-1.0,18.0,-8.0,0.0
-2.0,-1.0,-1.0,28.0,-31.0,-10.0,7.0,-4.0,17.0,-13.0,0.0
-11.0,-3.0,-3.0,24.0,-34.0,-19.0,5.0,-5.0,14.0,-23.0,0.0
-9.0,-5.0,4.0,25.0,-28.0,-18.0,6.0,-11.0,3.0,-19.0,0.0
0.0,-1.0,7.0,23.0,-25.0,-7.0,9.0,-9.0,4.0,-17.0,0.0
-13.0,0.0,12.0,22.0,-13.0,-9.0,-1.0,-8.0,5.0,-29.0,0.0
-18.0,1.0,19.0,26.0,-5.0,-6.0,-13.0,-12.0,15.0,-50.0,0.0
-20.0,1.0,17.0,19.0,-15.0,1.0,-16.0,-6.0,24.0,-45.0,0.0
-15.0,1.0,14.0,13.0,-17.0,4.0,-9.0,-18.0,39.0,-22.0,0.0
6.0,8.0,10.0,6.0,-9.0,4.0,-16.0,-18.0,33.0,-6.0,0.0
29.0,9.0,24.0,12.0,-7.0,-1.0,8.0,-16.0,33.0,-12.0,0.0
23.0,14.0,23.0,22.0,5.0,5.0,7.0,-15.0,19.0,-33.0,0.0
15.0,11.0,20.0,17.0,18.0,-5.0,12.0,-12.0,30.0,-15.0,0.0
20.0,4.0,14.0,7.0,10.0,-1.0,11.0,-14.0,29.0,18.0,0.0
24.0,10.0,15.0,6.0,5.0,11.0,11.0,-17.0,23.0,14.0,0.0
3.0,18.0,14.0,5.0,-2.0,17.0,5.0,-5.0,12.0,-25.0,0.0
-3.0,15.0,12.0,0.0,-4.0,17.0,5.0,-2.0,2.0,-53.0,0.0
-2.0,15.0,10.0,-4.0,4.0,12.0,14.0,8.0,5.0,-79.0,0.0
0.0,9.0,13.0,-14.0,4.0,9.0,11.0,11.0,4.0,-87.0,0.0
0.0,14.0,20.0,-18.0,10.0,9.0,6.0,5.0,0.0,-67.0,0.0
0.0,17.0,20.0,-9.0,-2.0,7.0,0.0,5.0,6.0,-27.0,0.0
1.0,5.0,6.0,0.0,-10.0,3.0,1.0,-8.0,14.0,7.0,0.0
-3.0,-8.0,-14.0,-7.0,-23.0,-4.0,-9.0,-28.0,15.0,45.0,0.0
9.0,-21.0,-10.0,-11.0,-22.0,-7.0,-12.0,-28.0,9.0,100.0,0.0
28.0,-18.0,2.0,-3.0,-18.0,2.0,-3.0,-9.0,13.0,108.0,0.0
17.0,-4.0,0.0,9.0,-13.0,25.0,0.0,4.0,26.0,56.0,0.0
-3.0,6.0,12.0,15.0,0.0,31.0,21.0,-11.0,11.0,7.0,0.0
-9.0,14.0,9.0,14.0,3.0,17.0,27.0,-21.0,13.0,-1.0,0.0
-9.0,16.0,-4.0,6.0,0.0,17.0,24.0,-2.0,17.0,4.0,0.0
-13.0,12.0,-6.0,6.0,-3.0,14.0,32.0,-3.0,7.0,6.0,0.0
-17.0,6.0,3.0,-12.0,4.0,4.0,36.0,-8.0,6.0,2.0,0.0
-11.0,5.0,9.0,-26.0,-4.0,12.0,22.0,4.0,-4.0,8.0,0.0
-24.0,5.0,11.0,-25.0,-1.0,8.0,20.0,1.0,-6.0,9.0,0.0
-22.0,-4.0,8.0,-18.0,-9.0,4.0,18.0,-5.0,6.0,2.0,0.0
-24.0,-5.0,7.0,-14.0,-4.0,-1.0,0.0,-11.0,10.0,-7.0,0.0
-24.0,-9.0,11.0,-5.0,6.0,2.0,9.0,-16.0,8.0,-17.0,0.0
-32.0,-3.0,6.0,16.0,4.0,0.0,18.0,-17.0,4.0,-18.0,0.0
-29.0,0.0,6.0,26.0,4.0,11.0,24.0,-15.0,11.0,-6.0,0.0
-23.0,0.0,8.0,30.0,5.0,12.0,20.0,-2.0,8.0,0.0,0.0
-11.0,0.0,3.0,33.0,9.0,10.0,16.0,-4.0,13.0,7.0,0.0
5.0,0.0,-3.0,39.0,7.0,0.0,10.0,2.0,13.0,10.0,0.0
4.0,-12.0,5.0,42.0,2.0,-3.0,20.0,0.0,0.0,5.0,0.0
3.0,-17.0,16.0,44.0,10.0,6.0,38.0,-4.0,0.0,2.0,0.0
15.0,-18.0,11.0,48.0,17.0,19.0,43.0,-6.0,9.0,9.0,0.0
35.0,-4.0,5.0,54.0,19.0,20.0,24.0,-8.0,16.0,-2.0,0.0
24.0,2.0,29.0,58.0,34.0,18.0,5.0,0.0,3.0,-41.0,0.0
26.0,38.0,31.0,60.0,32.0,25.0,4.0,-13.0,-9.0,-47.0,0.0
38.0,134.0,27.0,49.0,26.0,20.0,0.0,-23.0,-24.0,-35.0,0.0
39.0,170.0,34.0,33.0,16.0,5.0,-5.0,-19.0,-19.0,-28.0,0.0
31.0,128.0,33.0,27.0,8.0,-4.0,0.0,-7.0,-19.0,-24.0,0.0
16.0,55.0,34.0,26.0,2.0,-3.0,-6.0,-9.0,-12.0,-28.0,0.0
2.0,5.0,24.0,15.0,3.0,-16.0,-11.0,-10.0,-26.0,-25.0,0.0
-3.0,-67.0,2.0,4.0,1.0,-17.0,-11.0,-8.0,-24.0,-6.0,0.0
-8.0,-151.0,-35.0,4.0,5.0,1.0,-4.0,1.0,-16.0,0.0,0.0
-20.0,-181.0,-40.0,-1.0,21.0,5.0,6.0,1.0,-4.0,-5.0,0.0
-14.0,-120.0,-23.0,-8.0,17.0,5.0,8.0,-2.0,-7.0,-4.0,0.0
-7.0,-72.0,-7.0,-3.0,3.0,1.0,5.0,-8.0,-6.0,3.0,0.0
-11.0,-54.0,0.0,-6.0,-2.0,1.0,7.0,-18.0,-6.0,-3.0,0.0
-6.0,-41.0,3.0,-2.0,-5.0,9.0,9.0,-14.0,-4.0,-11.0,0.0
-6.0,-39.0,-3.0,-1.0,-3.0,10.0,9.0,-12.0,-2.0,-12.0,0.0
-7.0,-29.0,-15.0,-5.0,-6.0,1.0,13.0,-13.0,0.0,-5.0,0.0
-13.0,-30.0,-27.0,-26.0,-14.0,6.0,23.0,-7.0,0.0,-6.0,0.0
-12.0,-30.0,-10.0,-28.0,-22.0,5.0,15.0,-5.0,8.0,3.0,0.0
-1.0,-10.0,-23.0,-27.0,-28.0,4.0,-1.0,-4.0,13.0,-1.0,0.0
-1.0,-7.0,-30.0,-16.0,-22.0,-6.0,1.0,-8.0,12.0,-15.0,0.0
-7.0,-3.0,-14.0,-2.0,-11.0,-9.0,0.0,-10.0,0.0,-23.0,0.0
-12.0,-2.0,-11.0,8.0,-7.0,-6.0,-5.0,-13.0,-8.0,-40.0,0.0
-9.0,5.0,-8.0,5.0,-15.0,-11.0,6.0,-13.0,-1.0,-38.0,0.0
-19.0,4.0,-24.0,-5.0,-20.0,-6.0,20.0,-8.0,0.0,-25.0,0.0
-28.0,-10.0,-33.0,-13.0,-21.0,-2.0,6.0,-17.0,7.0,0.0,0.0
-5.0,2.0,-26.0,-10.0,-22.0,-4.0,-7.0,-31.0,12.0,34.0,0.0
10.0,28.0,-18.0,-6.0,-19.0,-1.0,2.0,-31.0,15.0,38.0,0.0
6.0,24.0,-14.0,4.0,-11.0,8.0,17.0,-26.0,8.0,23.0,0.0
12.0,10.0,-12.0,8.0,-11.0,-2.0,7.0,-19.0,7.0,20.0,0.0
21.0,6.0,-16.0,-5.0,-18.0,-6.0,3.0,-2.0,-2.0,31.0,0.0
31.0,1.0,-12.0,-9.0,-13.0,-3.0,13.0,0.0,2.0,25.0,0.0
26.0,0.0,-18.0,-14.0,-16.0,-17.0,6.0,-7.0,12.0,21.0,0.0
4.0,-13.0,-38.0,-19.0,-25.0,-21.0,-9.0,-19.0,-7.0,16.0,0.0
-11.0,-6.0,-41.0,-19.0,-23.0,-16.0,-8.0,-21.0,-23.0,-2.0,0.0
-14.0,2.0,-26.0,-12.0,-9.0,-17.0,0.0,-19.0,-36.0,-41.0,0.0
-17.0,14.0,-14.0,4.0,4.0,0.0,-8.0,-21.0,-36.0,-48.0,0.0
-12.0,24.0,-13.0,2.0,13.0,7.0,10.0,-21.0,-31.0,-35.0,0.0
-5.0,24.0,-20.0,-7.0,19.0,11.0,17.0,-22.0,-25.0,-18.0,0.0
-5.0,11.0,-24.0,-4.0,20.0,10.0,12.0,-16.0,-12.0,-20.0,0.0
-4.0,10.0,-11.0,-7.0,16.0,1.0,12.0,-13.0,-11.0,-15.0,0.0
3.0,10.0,-14.0,-10.0,9.0,-1.0,17.0,-14.0,-7.0,0.0,0.0
4.0,6.0,-18.0,-15.0,-2.0,-16.0,18.0,-15.0,3.0,1.0,0.0
5.0,3.0,-19.0,-16.0,-10.0,-26.0,9.0,-9.0,11.0,1.0,0.0
15.0,0.0,-16.0,-19.0,-9.0,-24.0,-6.0,-8.0,15.0,18.0,0.0
6.0,0.0,-13.0,-25.0,-7.0,-23.0,5.0,-12.0,20.0,21.0,0.0
-4.0,-12.0,-13.0,-26.0,-5.0,-25.0,24.0,-6.0,9.0,13.0,0.0
-11.0,-11.0,-19.0,-23.0,-6.0,-14.0,12.0,-3.0,6.0,6.0,0.0
-12.0,-6.0,-22.0,-32.0,-2.0,-9.0,-3.0,2.0,16.0,-4.0,0.0
-10.0,1.0,-15.0,-45.0,3.0,-9.0,1.0,-2.0,9.0,-24.0,0.0
-13.0,9.0,-3.0,-57.0,-5.0,-22.0,10.0,-10.0,1.0,-21.0,0.0
-10.0,15.0,-23.0,-52.0,-1.0,-18.0,-2.0,-2.0,11.0,-11.0,0.0
-6.0,10.0,-26.0,-55.0,17.0,-17.0,-8.0,0.0,10.0,-2.0,0.0
-12.0,7.0,-13.0,-31.0,18.0,-11.0,7.0,15.0,7.0,-5.0,0.0
-21.0,-7.0,-19.0,-8.0,12.0,-13.0,22.0,13.0,3.0,-30.0,0.0
-18.0,-12.0,-22.0,-12.0,10.0,-10.0,10.0,1.0,10.0,-16.0,0.0
-19.0,-2.0,-14.0,-28.0,16.0,-2.0,-1.0,1.0,-3.0,-13.0,0.0
-22.0,0.0,-20.0,-33.0,12.0,-8.0,5.0,8.0,-16.0,-16.0,0.0
-17.0,3.0,-12.0,-20.0,1.0,-16.0,1.0,6.0,-10.0,-14.0,0.0
-8.0,-6.0,-10.0,-10.0,-1.0,-22.0,-20.0,1.0,0.0,1.0,0.0
-1.0,-3.0,-8.0,-8.0,-5.0,-29.0,-13.0,9.0,7.0,16.0,0.0
7.0,7.0,5.0,-11.0,-15.0,-25.0,-9.0,20.0,18.0,25.0,0.0
4.0,-2.0,-12.0,-9.0,-11.0,-28.0,-15.0,14.0,11.0,14.0,0.0
4.0,-5.0,-28.0,-5.0,-7.0,-21.0,-3.0,12.0,16.0,8.0,0.0
9.0,1.0,-25.0,-6.0,-8.0,-15.0,8.0,16.0,17.0,16.0,0.0
12.0,19.0,-13.0,2.0,-10.0,-12.0,19.0,16.0,19.0,25.0,0.0
13.0,91.0,12.0,25.0,-1.0,-11.0,5.0,13.0,25.0,37.0,0.0
23.0,155.0,27.0,15.0,-5.0,-28.0,2.0,11.0,19.0,41.0,0.0
21.0,142.0,15.0,3.0,-6.0,-22.0,17.0,18.0,15.0,28.0,0.0
20.0,79.0,7.0,9.0,-3.0,-15.0,21.0,19.0,22.0,23.0,0.0
5.0,13.0,1.0,1.0,5.0,-14.0,22.0,14.0,20.0,27.0,0.0
-2.0,-50.0,4.0,0.0,3.0,-10.0,5.0,9.0,5.0,7.0,0.0
-7.0,-132.0,-13.0,4.0,10.0,-5.0,8.0,12.0,1.0,9.0,0.0
-27.0,-187.0,-38.0,5.0,15.0,3.0,26.0,16.0,15.0,3.0,0.0
-39.0,-137.0,-35.0,7.0,8.0,17.0,26.0,19.0,28.0,-14.0,0.0
-34.0,-87.0,-28.0,-8.0,6.0,15.0,12.0,14.0,17.0,-28.0,0.0
-33.0,-64.0,-24.0,-14.0,5.0,15.0,10.0,14.0,0.0,-47.0,0.0
-23.0,-38.0,-19.0,-8.0,-2.0,23.0,2.0,21.0,-9.0,-51.0,0.0
-10.0,-16.0,-15.0,-14.0,-8.0,23.0,-5.0,16.0,-9.0,0.0,0.0
-1.0,0.0,-10.0,-5.0,-8.0,24.0,-3.0,16.0,7.0,40.0,0.0
0.0,10.0,-7.0,15.0,0.0,26.0,-5.0,10.0,14.0,43.0,0.0
-13.0,26.0,0.0,13.0,7.0,28.0,-11.0,10.0,7.0,17.0,0.0
-13.0,26.0,-5.0,0.0,0.0,20.0,-6.0,1.0,12.0,35.0,0.0
10.0,9.0,-22.0,-9.0,-20.0,-7.0,-24.0,-4.0,14.0,124.0,0.0
22.0,-2.0,-15.0,-13.0,-17.0,-11.0,-37.0,-1.0,22.0,158.0,0.0
-1.0,-28.0,0.0,-7.0,-7.0,5.0,-9.0,26.0,15.0,86.0,0.0
-16.0,-38.0,5.0,0.0,-6.0,-5.0,-14.0,30.0,0.0,8.0,0.0
-21.0,-20.0,12.0,9.0,-6.0,-5.0,-17.0,20.0,-22.0,-27.0,0.0
-29.0,-3.0,17.0,18.0,-10.0,11.0,3.0,7.0,-26.0,-37.0,0.0
-23.0,-1.0,22.0,16.0,-8.0,14.0,4.0,8.0,-15.0,-48.0,0.0
-24.0,-3.0,16.0,-4.0,-6.0,7.0,-13.0,8.0,-6.0,-41.0,0.0
-27.0,-2.0,6.0,-9.0,-6.0,-11.0,-20.0,3.0,1.0,-4.0,0.0
-3.0,8.0,23.0,0.0,-4.0,-14.0,-11.0,1.0,-8.0,9.0,0.0
27.0,0.0,17.0,0.0,4.0,-9.0,-25.0,-13.0,0.0,12.0,0.0
31.0,-14.0,0.0,-3.0,-11.0,-30.0,-31.0,-31.0,0.0,45.0,0.0
19.0,-8.0,-5.0,-8.0,-19.0,-25.0,-26.0,-13.0,10.0,54.0,0.0
13.0,-8.0,8.0,-11.0,-18.0,-4.0,-25.0,0.0,11.0,18.0,0.0
8.0,-7.0,16.0,-28.0,-11.0,8.0,-11.0,1.0,0.0,0.0,0.0
-6.0,-7.0,5.0,-43.0,3.0,7.0,-6.0,21.0,0.0,-20.0,0.0
-3.0,-1.0,16.0,-46.0,6.0,-9.0,-5.0,16.0,-12.0,-23.0,0.0
11.0,0.0,11.0,-22.0,1.0,-7.0,6.0,6.0,-13.0,-18.0,0.0
11.0,0.0,7.0,-13.0,-2.0,-6.0,4.0,16.0,-20.0,-28.0,0.0
8.0,2.0,0.0,-19.0,-10.0,-1.0,-7.0,23.0,-16.0,-7.0,0.0
-6.0,11.0,-1.0,-18.0,-7.0,-3.0,2.0,19.0,8.0,10.0,0.0
-6.0,18.0,5.0,-22.0,1.0,-2.0,5.0,17.0,-2.0,13.0,0.0
-4.0,13.0,15.0,-22.0,1.0,9.0,-5.0,16.0,-2.0,34.0,0.0
-16.0,14.0,16.0,-17.0,-3.0,15.0,2.0,5.0,-7.0,42.0,0.0
-20.0,5.0,15.0,-10.0,5.0,10.0,7.0,15.0,-13.0,14.0,0.0
-38.0,0.0,17.0,2.0,18.0,10.0,6.0,19.0,-16.0,-17.0,0.0
-53.0,4.0,11.0,4.0,21.0,7.0,10.0,16.0,-22.0,-34.0,0.0
-38.0,11.0,0.0,-1.0,19.0,2.0,15.0,-1.0,-20.0,-34.0,0.0
-33.0,-2.0,7.0,0.0,11.0,6.0,30.0,10.0,-15.0,-32.0,0.0
-16.0,-21.0,-6.0,-3.0,-6.0,3.0,22.0,17.0,-16.0,-27.0,0.0
-12.0,-33.0,-21.0,-13.0,-9.0,-5.0,5.0,10.0,-20.0,-16.0,0.0
-18.0,-31.0,-20.0,-12.0,-1.0,0.0,10.0,5.0,-10.0,-15.0,0.0
-3.0,-37.0,-20.0,-18.0,0.0,-9.0,18.0,15.0,3.0,9.0,0.0
33.0,-14.0,-20.0,-29.0,0.0,-10.0,13.0,7.0,15.0,19.0,0.0
27.0,13.0,0.0,-17.0,-9.0,-3.0,6.0,11.0,17.0,10.0,0.0
3.0,12.0,13.0,-11.0,-12.0,-9.0,13.0,17.0,19.0,4.0,0.0
-19.0,-10.0,2.0,-1.0,-18.0,-3.0,31.0,28.0,31.0,-12.0,0.0
-26.0,-14.0,9.0,-8.0,-20.0,-1.0,41.0,19.0,31.0,-30.0,0.0
-1.0,30.0,29.0,-3.0,-16.0,-1.0,29.0,0.0,10.0,-37.0,0.0
-8.0,68.0,39.0,7.0,1.0,11.0,28.0,-2.0,0.0,-47.0,0.0
-16.0,89.0,31.0,8.0,8.0,28.0,32.0,-5.0,-6.0,-59.0,0.0
-28.0,83.0,18.0,4.0,-1.0,20.0,21.0,1.0,-4.0,-69.0,0.0
-24.0,54.0,16.0,0.0,-3.0,9.0,10.0,9.0,-4.0,-57.0,0.0
-28.0,31.0,14.0,1.0,-8.0,-6.0,6.0,6.0,11.0,-68.0,0.0
-24.0,22.0,18.0,6.0,1.0,-4.0,8.0,13.0,0.0,-40.0,0.0
-11.0,14.0,35.0,6.0,6.0,4.0,7.0,8.0,2.0,0.0,0.0
-9.0,52.0,38.0,10.0,10.0,14.0,0.0,0.0,0.0,-17.0,0.0
-4.0,151.0,33.0,13.0,6.0,14.0,-7.0,-2.0,-11.0,-24.0,0.0
4.0,205.0,33.0,3.0,0.0,8.0,-2.0,-13.0,-8.0,18.0,0.0
2.0,169.0,32.0,-4.0,3.0,0.0,6.0,-3.0,7.0,31.0,0.0
-18.0,99.0,28.0,-11.0,2.0,-6.0,13.0,-1.0,-2.0,22.0,0.0
-29.0,30.0,20.0,-16.0,-7.0,-1.0,0.0,-10.0,-10.0,12.0,0.0
-36.0,-26.0,6.0,-19.0,0.0,-4.0,-1.0,3.0,-4.0,-4.0,0.0
-38.0,-108.0,-13.0,-16.0,13.0,6.0,13.0,8.0,7.0,-13.0,0.0
-52.0,-165.0,-20.0,-12.0,10.0,14.0,16.0,11.0,0.0,-2.0,0.0
-47.0,-121.0,-8.0,-17.0,8.0,13.0,5.0,11.0,-3.0,0.0,0.0
-43.0,-56.0,-2.0,-5.0,15.0,3.0,-1.0,5.0,-21.0,-10.0,0.0
-46.0,-30.0,4.0,5.0,17.0,4.0,-1.0,5.0,-31.0,-26.0,0.0
-45.0,-17.0,9.0,-4.0,18.0,13.0,0.0,8.0,-33.0,-32.0,0.0
-53.0,-20.0,9.0,-10.0,24.0,12.0,2.0,6.0,-26.0,-43.0,0.0
-49.0,-20.0,19.0,0.0,29.0,19.0,2.0,6.0,-32.0,-49.0,0.0
-49.0,-20.0,26.0,6.0,29.0,19.0,-1.0,11.0,-40.0,-54.0,0.0
-50.0,-11.0,21.0,-3.0,34.0,17.0,-4.0,8.0,-35.0,-51.0,0.0
-53.0,-8.0,5.0,-14.0,25.0,15.0,0.0,12.0,-25.0,-34.0,0.0
-52.0,-21.0,0.0,-10.0,12.0,14.0,12.0,12.0,-19.0,-25.0,0.0
-36.0,-34.0,0.0,-9.0,11.0,2.0,17.0,6.0,-16.0,-25.0,0.0
-29.0,-31.0,-4.0,-15.0,12.0,0.0,17.0,10.0,-19.0,-41.0,0.0
-33.0,-32.0,-5.0,-20.0,6.0,4.0,3.0,10.0,-21.0,-37.0,0.0
-23.0,-41.0,-11.0,-27.0,0.0,4.0,-2.0,20.0,-16.0,-30.0,0.0
-14.0,-41.0,-10.0,-28.0,-3.0,4.0,2.0,12.0,-4.0,-22.0,0.0
-18.0,-28.0,4.0,-14.0,-3.0,11.0,6.0,5.0,10.0,0.0,0.0
-10.0,-30.0,-2.0,-22.0,-6.0,5.0,-9.0,2.0,17.0,25.0,0.0
-10.0,-32.0,-8.0,-31.0,-16.0,4.0,-22.0,4.0,21.0,32.0,0.0
-26.0,-30.0,6.0,-23.0,-13.0,9.0,-22.0,12.0,18.0,20.0,0.0
-19.0,-24.0,4.0,-9.0,-4.0,12.0,-16.0,5.0,24.0,28.0,0.0
12.0,-16.0,4.0,-7.0,-5.0,-1.0,-13.0,-3.0,17.0,51.0,0.0
17.0,-12.0,20.0,-7.0,2.0,-2.0,-15.0,-4.0,8.0,63.0,0.0
7.0,-8.0,29.0,-6.0,6.0,4.0,-8.0,-15.0,5.0,53.0,0.0
5.0,-3.0,37.0,-21.0,3.0,5.0,4.0,-15.0,13.0,40.0,0.0
3.0,5.0,38.0,-28.0,11.0,10.0,7.0,-15.0,7.0,31.0,0.0
4.0,13.0,20.0,-19.0,6.0,19.0,-8.0,-21.0,-2.0,8.0,0.0
11.0,15.0,7.0,-15.0,-1.0,20.0,-17.0,-12.0,9.0,-2.0,0.0
3.0,25.0,15.0,-18.0,2.0,21.0,0.0,-7.0,15.0,-5.0,0.0
-11.0,24.0,17.0,-25.0,-3.0,13.0,3.0,-3.0,12.0,1.0,0.0
-15.0,22.0,14.0,-12.0,-12.0,4.0,-7.0,-4.0,10.0,-2.0,0.0
-8.0,14.0,14.0,-9.0,1.0,4.0,-13.0,-10.0,13.0,-30.0,0.0
-18.0,6.0,20.0,-2.0,17.0,8.0,-4.0,6.0,9.0,-43.0,0.0
-30.0,-3.0,20.0,4.0,32.0,20.0,23.0,28.0,15.0,-60.0,0.0
-39.0,-14.0,11.0,12.0,33.0,24.0,20.0,28.0,10.0,-78.0,0.0
-38.0,-2.0,25.0,19.0,34.0,23.0,23.0,15.0,1.0,-84.0,0.0
-36.0,2.0,23.0,18.0,19.0,13.0,27.0,15.0,4.0,-69.0,0.0
-16.0,8.0,7.0,10.0,-5.0,-1.0,-5.0,5.0,15.0,-26.0,0.0
15.0,18.0,3.0,-2.0,-8.0,-12.0,-21.0,-2.0,32.0,36.0,0.0
18.0,11.0,4.0,-11.0,-7.0,-10.0,-22.0,0.0,23.0,82.0,0.0
15.0,8.0,0.0,-16.0,-20.0,-16.0,-32.0,-4.0,22.0,132.0,0.0
11.0,0.0,-14.0,-33.0,-32.0,-38.0,-27.0,-10.0,21.0,156.0,0.0
1.0,-8.0,-12.0,-19.0,-32.0,-39.0,-18.0,-11.0,12.0,111.0,0.0
-1.0,1.0,-8.0,-13.0,-18.0,-20.0,-13.0,8.0,18.0,70.0,0.0
-3.0,-3.0,-11.0,-20.0,-9.0,-15.0,0.0,9.0,20.0,42.0,0.0
5.0,0.0,0.0,-13.0,-8.0,-12.0,6.0,5.0,26.0,36.0,0.0
5.0,8.0,6.0,-17.0,-1.0,-19.0,18.0,5.0,13.0,32.0,0.0
11.0,6.0,15.0,-18.0,4.0,-21.0,11.0,1.0,10.0,28.0,0.0
-2.0,6.0,2.0,-2.0,0.0,-8.0,-3.0,0.0,13.0,25.0,0.0
-4.0,4.0,1.0,-5.0,-12.0,-3.0,-12.0,0.0,4.0,17.0,0.0
-6.0,0.0,11.0,-3.0,-20.0,-7.0,-4.0,-1.0,5.0,17.0,0.0
-2.0,15.0,30.0,7.0,-11.0,-2.0,-3.0,0.0,-4.0,12.0,0.0
-4.0,13.0,12.0,9.0,0.0,-7.0,-11.0,1.0,0.0,-4.0,0.0
-8.0,10.0,2.0,32.0,6.0,-4.0,-7.0,-6.0,6.0,-8.0,0.0
-15.0,6.0,2.0,42.0,3.0,-7.0,-2.0,-1.0,-6.0,-11.0,0.0
-23.0,6.0,2.0,43.0,8.0,-2.0,-1.0,7.0,-4.0,-21.0,0.0
-38.0,-16.0,10.0,33.0,7.0,-8.0,0.0,7.0,-16.0,-17.0,0.0
-29.0,-28.0,-2.0,26.0,-15.0,-17.0,-3.0,-3.0,-15.0,6.0,0.0
-8.0,-24.0,-3.0,25.0,-16.0,-25.0,-3.0,-11.0,-16.0,-4.0,0.0
-11.0,-9.0,0.0,28.0,-8.0,-23.0,-1.0,-9.0,-20.0,-21.0,0.0
-23.0,2.0,-3.0,36.0,0.0,-23.0,3.0,2.0,-19.0,-33.0,0.0
-19.0,19.0,12.0,32.0,-5.0,-16.0,11.0,9.0,-24.0,-30.0,0.0
-3.0,24.0,24.0,36.0,0.0,-14.0,17.0,9.0,-28.0,-17.0,0.0
23.0,31.0,12.0,31.0,2.0,-8.0,21.0,4.0,-14.0,45.0,0.0
13.0,30.0,8.0,11.0,-2.0,0.0,18.0,4.0,12.0,78.0,0.0
1.0,21.0,7.0,-7.0,0.0,-1.0,12.0,9.0,11.0,56.0,0.0
-8.0,8.0,5.0,-23.0,3.0,-3.0,10.0,19.0,9.0,32.0,0.0
-13.0,15.0,6.0,-32.0,-3.0,-8.0,17.0,20.0,19.0,12.0,0.0
-5.0,77.0,13.0,-42.0,-9.0,-8.0,17.0,16.0,25.0,9.0,0.0
-5.0,170.0,27.0,-34.0,-2.0,-12.0,19.0,6.0,10.0,2.0,0.0
-8.0,175.0,18.0,-25.0,-5.0,-3.0,18.0,17.0,14.0,-6.0,0.0
3.0,114.0,11.0,-27.0,-12.0,-5.0,10.0,21.0,18.0,9.0,0.0
13.0,53.0,11.0,-20.0,-24.0,-17.0,-6.0,11.0,-2.0,3.0,0.0
4.0,6.0,13.0,-6.0,-29.0,-7.0,0.0,0.0,-16.0,-18.0,0.0
-12.0,-73.0,6.0,30.0,-4.0,3.0,16.0,11.0,-22.0,-20.0,0.0
-35.0,-171.0,-25.0,44.0,0.0,10.0,36.0,20.0,-24.0,-22.0,0.0
-46.0,-185.0,-40.0,33.0,3.0,24.0,42.0,17.0,-16.0,-41.0,0.0
-28.0,-120.0,-30.0,26.0,-2.0,20.0,29.0,20.0,-13.0,-38.0,0.0
-32.0,-84.0,-33.0,12.0,-9.0,14.0,17.0,12.0,-4.0,-20.0,0.0
-27.0,-53.0,-14.0,9.0,-16.0,-6.0,4.0,7.0,-1.0,-12.0,0.0
-3.0,-23.0,10.0,12.0,-19.0,-9.0,-10.0,7.0,-13.0,-33.0,0.0
1.0,-17.0,9.0,10.0,-27.0,3.0,-9.0,6.0,-22.0,-40.0,0.0
-1.0,-12.0,-1.0,15.0,-22.0,2.0,3.0,6.0,-11.0,-32.0,0.0
-11.0,-12.0,-3.0,17.0,-23.0,13.0,10.0,3.0,-4.0,-33.0,0.0
-7.0,-8.0,0.0,25.0,-17.0,22.0,6.0,8.0,6.0,-33.0,0.0
3.0,10.0,0.0,22.0,-2.0,18.0,11.0,9.0,14.0,-27.0,0.0
5.0,28.0,-1.0,17.0,8.0,23.0,4.0,1.0,13.0,-18.0,0.0
4.0,22.0,-7.0,9.0,2.0,15.0,-12.0,3.0,3.0,-12.0,0.0
1.0,0.0,-30.0,-9.0,-15.0,9.0,-16.0,3.0,4.0,17.0,0.0
3.0,-10.0,-30.0,-28.0,-19.0,3.0,-7.0,12.0,9.0,31.0,0.0
5.0,6.0,-9.0,-49.0,-19.0,4.0,-3.0,6.0,-1.0,7.0,0.0
6.0,13.0,3.0,-34.0,-11.0,21.0,-7.0,-1.0,-18.0,-13.0,0.0
-3.0,4.0,2.0,-18.0,-5.0,25.0,-13.0,-4.0,-19.0,-20.0,0.0
-4.0,1.0,3.0,-18.0,-6.0,22.0,0.0,0.0,-18.0,-17.0,0.0
-15.0,-7.0,2.0,-12.0,-10.0,21.0,13.0,1.0,-7.0,-10.0,0.0
-22.0,-15.0,3.0,-15.0,-20.0,20.0,23.0,-4.0,2.0,-25.0,0.0
-12.0,-21.0,1.0,-19.0,-26.0,16.0,16.0,4.0,4.0,-28.0,0.0
-12.0,-17.0,3.0,-7.0,-17.0,22.0,-4.0,5.0,19.0,-15.0,0.0
-17.0,-14.0,2.0,-8.0,-20.0,12.0,-14.0,0.0,6.0,-13.0,0.0
-9.0,-8.0,1.0,-11.0,-20.0,10.0,-13.0,4.0,13.0,5.0,0.0
-4.0,-8.0,3.0,3.0,-9.0,9.0,-18.0,18.0,37.0,18.0,0.0
1.0,0.0,13.0,14.0,-9.0,10.0,-10.0,12.0,44.0,12.0,0.0
4.0,-6.0,9.0,7.0,-20.0,11.0,-6.0,18.0,36.0,6.0,0.0
6.0,-10.0,12.0,5.0,-23.0,8.0,-14.0,7.0,28.0,-2.0,0.0
11.0,-6.0,10.0,3.0,-24.0,8.0,-12.0,12.0,7.0,12.0,0.0
15.0,0.0,-3.0,0.0,-33.0,8.0,3.0,18.0,13.0,14.0,0.0
17.0,-3.0,-3.0,2.0,-36.0,4.0,6.0,14.0,3.0,2.0,0.0
19.0,-9.0,0.0,1.0,-42.0,-9.0,0.0,25.0,-1.0,6.0,0.0
24.0,-12.0,1.0,0.0,-32.0,-6.0,-12.0,29.0,-1.0,20.0,0.0
26.0,-12.0,-1.0,-5.0,-20.0,-9.0,-5.0,26.0,-4.0,12.0,0.0
24.0,-7.0,-6.0,5.0,-15.0,-5.0,9.0,15.0,0.0,2.0,0.0
18.0,-10.0,-12.0,9.0,-11.0,-6.0,15.0,16.0,0.0,-1.0,0.0
16.0,-9.0,-11.0,11.0,-15.0,-2.0,28.0,25.0,7.0,11.0,0.0
2.0,-13.0,-13.0,0.0,-11.0,2.0,30.0,31.0,13.0,-2.0,0.0
-5.0,-9.0,-8.0,4.0,-1.0,5.0,21.0,32.0,2.0,-8.0,0.0
-3.0,22.0,3.0,9.0,3.0,-1.0,20.0,28.0,9.0,-6.0,0.0
-7.0,46.0,1.0,0.0,0.0,1.0,9.0,18.0,6.0,-13.0,0.0
-18.0,43.0,2.0,11.0,4.0,9.0,10.0,21.0,-2.0,-44.0,0.0
-23.0,34.0,1.0,28.0,18.0,13.0,9.0,20.0,-3.0,-53.0,0.0
-23.0,35.0,-1.0,19.0,22.0,22.0,28.0,18.0,-8.0,-64.0,0.0
-22.0,43.0,-6.0,16.0,21.0,29.0,21.0,15.0,4.0,-66.0,0.0
-5.0,48.0,-7.0,22.0,24.0,22.0,15.0,5.0,15.0,-61.0,0.0
15.0,41.0,-2.0,18.0,16.0,13.0,17.0,0.0,11.0,-21.0,0.0
16.0,25.0,-8.0,23.0,15.0,9.0,30.0,2.0,19.0,-11.0,0.0
9.0,-19.0,-22.0,11.0,5.0,-20.0,12.0,-1.0,25.0,31.0,0.0
40.0,-50.0,-51.0,-20.0,-21.0,-57.0,-22.0,-24.0,38.0,122.0,0.0
66.0,-43.0,-53.0,-31.0,-28.0,-60.0,-23.0,-24.0,41.0,144.0,0.0
49.0,-24.0,-28.0,-7.0,-16.0,-32.0,-20.0,-2.0,26.0,102.0,0.0
31.0,-14.0,-23.0,-1.0,0.0,-15.0,-7.0,10.0,18.0,53.0,0.0
30.0,-11.0,-23.0,-1.0,8.0,-19.0,0.0,6.0,16.0,38.0,0.0
34.0,16.0,-9.0,4.0,4.0,-34.0,11.0,-1.0,15.0,32.0,0.0
47.0,117.0,16.0,7.0,11.0,-26.0,20.0,3.0,0.0,33.0,0.0
51.0,194.0,19.0,12.0,17.0,-17.0,25.0,14.0,0.0,15.0,0.0
44.0,162.0,10.0,8.0,22.0,-13.0,23.0,17.0,12.0,-5.0,0.0
21.0,80.0,3.0,4.0,7.0,-17.0,13.0,9.0,12.0,-2.0,0.0
11.0,10.0,0.0,-3.0,0.0,-21.0,-1.0,0.0,3.0,-9.0,0.0
10.0,-41.0,-2.0,-8.0,8.0,-26.0,-12.0,-10.0,-7.0,-23.0,0.0
-5.0,-123.0,-23.0,-2.0,14.0,-15.0,-3.0,4.0,0.0,-25.0,0.0
-36.0,-171.0,-21.0,2.0,27.0,0.0,3.0,9.0,10.0,-22.0,0.0
-26.0,-133.0,-1.0,4.0,22.0,-9.0,3.0,0.0,12.0,-19.0,0.0
-4.0,-81.0,12.0,-4.0,6.0,-10.0,4.0,-5.0,26.0,-9.0,0.0
5.0,-76.0,6.0,-12.0,0.0,1.0,15.0,-8.0,28.0,-23.0,0.0
18.0,-84.0,0.0,-33.0,-6.0,-4.0,25.0,-15.0,17.0,-34.0,0.0
27.0,-76.0,-2.0,-39.0,-5.0,-15.0,20.0,0.0,7.0,-33.0,0.0
38.0,-69.0,-6.0,-33.0,1.0,-20.0,17.0,6.0,-3.0,-24.0,0.0
32.0,-56.0,-9.0,-20.0,-5.0,-31.0,18.0,-13.0,-15.0,-16.0,0.0
17.0,-38.0,9.0,-3.0,-23.0,-30.0,8.0,-18.0,-6.0,0.0,0.0
10.0,-33.0,6.0,-2.0,-28.0,-24.0,4.0,-16.0,6.0,33.0,0.0
16.0,-22.0,7.0,-2.0,-27.0,-17.0,8.0,-20.0,9.0,71.0,0.0
29.0,1.0,7.0,-4.0,-14.0,-8.0,8.0,-18.0,-2.0,86.0,0.0
15.0,3.0,4.0,6.0,5.0,-3.0,9.0,-15.0,-19.0,39.0,0.0
-7.0,4.0,22.0,21.0,5.0,1.0,10.0,-10.0,-31.0,1.0,0.0
-8.0,12.0,21.0,13.0,0.0,11.0,9.0,-14.0,-43.0,-9.0,0.0
0.0,18.0,5.0,13.0,8.0,13.0,0.0,-15.0,-53.0,-19.0,0.0
3.0,18.0,-1.0,10.0,11.0,14.0,-20.0,-18.0,-58.0,-8.0,0.0
9.0,-2.0,-7.0,3.0,0.0,9.0,-26.0,-22.0,-52.0,7.0,0.0
23.0,-2.0,-6.0,5.0,1.0,3.0,-17.0,-25.0,-53.0,5.0,0.0
20.0,16.0,7.0,13.0,2.0,18.0,0.0,-25.0,-46.0,-3.0,0.0
-9.0,-1.0,-15.0,16.0,3.0,21.0,6.0,-20.0,-35.0,0.0,0.0
-17.0,-30.0,-40.0,-5.0,-15.0,0.0,3.0,-20.0,-18.0,16.0,0.0
-15.0,-42.0,-39.0,-18.0,-27.0,-16.0,-13.0,-25.0,-10.0,11.0,0.0
-11.0,-32.0,-36.0,-20.0,-19.0,-13.0,-9.0,-18.0,-20.0,-2.0,0.0
-10.0,-33.0,-30.0,-13.0,-12.0,-9.0,-3.0,-17.0,-30.0,-25.0,0.0
-16.0,-32.0,-16.0,-7.0,-15.0,-12.0,-4.0,-16.0,-35.0,-30.0,0.0
-16.0,-35.0,-13.0,-7.0,-20.0,-17.0,-4.0,-10.0,-39.0,-37.0,0.0
-32.0,-40.0,-38.0,2.0,-17.0,0.0,-7.0,-17.0,-47.0,-37.0,0.0
-10.0,-10.0,-29.0,-5.0,-26.0,7.0,-11.0,-21.0,-49.0,-2.0,0.0
37.0,57.0,-2.0,-6.0,-33.0,-16.0,-5.0,-18.0,-35.0,39.0,0.0
43.0,62.0,20.0,3.0,-13.0,-14.0,-2.0,-12.0,-36.0,20.0,0.0
10.0,54.0,15.0,8.0,11.0,-4.0,5.0,-4.0,-35.0,-5.0,0.0
-10.0,34.0,8.0,0.0,10.0,0.0,14.0,-12.0,-38.0,-9.0,0.0
-10.0,22.0,11.0,3.0,6.0,16.0,10.0,-18.0,-40.0,13.0,0.0
-5.0,29.0,15.0,8.0,0.0,3.0,2.0,-19.0,-30.0,31.0,0.0
-1.0,33.0,13.0,7.0,-6.0,-19.0,1.0,-16.0,-19.0,16.0,0.0
-2.0,28.0,21.0,2.0,7.0,-19.0,-4.0,-6.0,-18.0,-11.0,0.0
2.0,27.0,27.0,12.0,22.0,-1.0,0.0,-2.0,-20.0,-36.0,0.0
0.0,25.0,20.0,22.0,22.0,14.0,7.0,4.0,-20.0,-43.0,0.0
0.0,11.0,14.0,19.0,18.0,15.0,12.0,11.0,-21.0,-41.0,0.0
0.0,16.0,3.0,11.0,22.0,2.0,9.0,8.0,-21.0,-37.0,0.0
7.0,15.0,-2.0,17.0,20.0,-2.0,3.0,-3.0,-4.0,-24.0,0.0
8.0,2.0,0.0,12.0,24.0,-1.0,9.0,-5.0,4.0,-28.0,0.0
-3.0,-11.0,-2.0,10.0,22.0,2.0,12.0,6.0,9.0,-42.0,0.0
-8.0,-36.0,-28.0,-16.0,-2.0,-31.0,-10.0,-6.0,12.0,6.0,0.0
-6.0,-45.0,-37.0,-29.0,-13.0,-57.0,-28.0,-31.0,21.0,64.0,0.0
3.0,-35.0,-28.0,-17.0,-14.0,-51.0,-20.0,-16.0,12.0,48.0,0.0
18.0,14.0,-18.0,-14.0,-6.0,-38.0,-14.0,-14.0,5.0,39.0,0.0
34.0,119.0,14.0,-6.0,3.0,-31.0,-7.0,-20.0,2.0,82.0,0.0
20.0,154.0,47.0,6.0,10.0,-15.0,-6.0,-20.0,1.0,48.0,0.0
-13.0,158.0,50.0,13.0,6.0,-9.0,-10.0,-9.0,0.0,-13.0,0.0
-7.0,161.0,56.0,12.0,-1.0,-27.0,-26.0,-15.0,-20.0,-43.0,0.0
0.0,148.0,60.0,10.0,-1.0,-28.0,-26.0,-23.0,-29.0,-48.0,0.0
-17.0,54.0,42.0,10.0,10.0,-18.0,-6.0,-14.0,-6.0,-42.0,0.0
-34.0,-74.0,5.0,-1.0,13.0,-19.0,12.0,-4.0,23.0,-18.0,0.0
-40.0,-95.0,1.0,-14.0,6.0,-10.0,17.0,-4.0,18.0,-33.0,0.0
-11.0,-35.0,0.0,-13.0,5.0,-2.0,21.0,13.0,17.0,-41.0,0.0
11.0,-61.0,-12.0,-11.0,4.0,-1.0,27.0,16.0,15.0,-35.0,0.0
9.0,-154.0,-27.0,-27.0,-5.0,-1.0,20.0,0.0,29.0,-3.0,0.0
24.0,-163.0,-27.0,-39.0,-19.0,-17.0,2.0,-10.0,34.0,56.0,0.0
50.0,-132.0,-14.0,-46.0,-22.0,-17.0,1.0,0.0,30.0,95.0,0.0
62.0,-141.0,-31.0,-50.0,-5.0,5.0,26.0,11.0,20.0,74.0,0.0
45.0,-160.0,-65.0,-49.0,-2.0,15.0,33.0,19.0,24.0,23.0,0.0
31.0,-85.0,-65.0,-44.0,-4.0,11.0,34.0,32.0,21.0,-16.0,0.0
41.0,-11.0,-37.0,-40.0,0.0,8.0,17.0,15.0,20.0,-10.0,0.0
47.0,70.0,-4.0,-19.0,-5.0,4.0,6.0,10.0,21.0,8.0,0.0
-8.0,107.0,19.0,22.0,16.0,25.0,21.0,34.0,36.0,15.0,0.0
-84.0,-11.0,23.0,37.0,27.0,35.0,14.0,39.0,45.0,28.0,0.0
-72.0,-92.0,19.0,24.0,13.0,17.0,-4.0,28.0,41.0,38.0,0.0
-52.0,-71.0,13.0,15.0,3.0,1.0,-17.0,8.0,33.0,47.0,0.0
-39.0,-51.0,16.0,26.0,-7.0,-2.0,-19.0,-10.0,33.0,37.0,0.0
-27.0,-31.0,19.0,33.0,-8.0,1.0,-12.0,-12.0,8.0,19.0,0.0
-21.0,-23.0,12.0,11.0,3.0,15.0,-11.0,-4.0,6.0,5.0,0.0
-10.0,-15.0,5.0,-7.0,2.0,14.0,-6.0,0.0,1.0,-16.0,0.0
6.0,0.0,10.0,1.0,5.0,11.0,-1.0,2.0,-10.0,-25.0,0.0
15.0,-7.0,15.0,7.0,13.0,24.0,14.0,4.0,-17.0,-27.0,0.0
13.0,-24.0,22.0,1.0,12.0,20.0,24.0,0.0,-8.0,-28.0,0.0
16.0,25.0,33.0,3.0,2.0,11.0,13.0,-6.0,-4.0,-32.0,0.0
23.0,153.0,50.0,5.0,2.0,7.0,8.0,-3.0,-4.0,-46.0,0.0
38.0,222.0,58.0,7.0,1.0,12.0,10.0,-1.0,-6.0,-62.0,0.0
44.0,186.0,50.0,9.0,5.0,18.0,20.0,0.0,-3.0,-66.0,0.0
30.0,116.0,37.0,10.0,1.0,13.0,18.0,-6.0,11.0,-69.0,0.0
12.0,56.0,19.0,-10.0,-4.0,-1.0,6.0,-6.0,10.0,-26.0,0.0
12.0,-3.0,-5.0,-15.0,-11.0,-12.0,1.0,2.0,35.0,44.0,0.0
19.0,-81.0,-36.0,-14.0,-14.0,-16.0,0.0,9.0,61.0,93.0,0.0
13.0,-108.0,-46.0,-12.0,-12.0,-18.0,1.0,5.0,52.0,77.0,0.0
5.0,-76.0,-29.0,-3.0,-13.0,-9.0,5.0,-9.0,31.0,52.0,0.0
15.0,-24.0,-10.0,0.0,-7.0,-7.0,18.0,-14.0,23.0,20.0,0.0
19.0,13.0,17.0,24.0,0.0,-24.0,20.0,-17.0,25.0,4.0,0.0
16.0,4.0,15.0,30.0,-3.0,-25.0,12.0,-14.0,24.0,0.0,0.0
18.0,-20.0,9.0,32.0,-3.0,-9.0,12.0,-9.0,10.0,-7.0,0.0
7.0,-48.0,16.0,41.0,-2.0,2.0,25.0,-11.0,7.0,-22.0,0.0
-19.0,-73.0,6.0,51.0,15.0,8.0,24.0,-15.0,10.0,-31.0,0.0
-26.0,-66.0,1.0,57.0,23.0,16.0,14.0,-9.0,12.0,-35.0,0.0
-23.0,-65.0,-3.0,49.0,20.0,26.0,17.0,-6.0,1.0,-15.0,0.0
-25.0,-75.0,-14.0,30.0,16.0,30.0,7.0,-12.0,5.0,-21.0,0.0
-16.0,-50.0,-11.0,26.0,18.0,38.0,-7.0,-17.0,0.0,-20.0,0.0
-3.0,-24.0,3.0,17.0,18.0,37.0,1.0,-14.0,2.0,-5.0,0.0
5.0,-5.0,5.0,13.0,15.0,30.0,6.0,-10.0,6.0,-3.0,0.0
2.0,5.0,3.0,22.0,4.0,28.0,9.0,-5.0,-4.0,-4.0,0.0
-5.0,7.0,4.0,21.0,6.0,30.0,2.0,2.0,4.0,-5.0,0.0
8.0,24.0,10.0,25.0,10.0,21.0,1.0,4.0,-5.0,-10.0,0.0
9.0,32.0,32.0,24.0,9.0,18.0,6.0,1.0,-8.0,-10.0,0.0
-1.0,29.0,34.0,22.0,7.0,25.0,7.0,-5.0,-4.0,-8.0,0.0
4.0,19.0,21.0,18.0,0.0,21.0,6.0,-3.0,10.0,2.0,0.0
10.0,8.0,2.0,7.0,-10.0,11.0,0.0,-2.0,18.0,21.0,0.0
4.0,-4.0,1.0,5.0,-13.0,4.0,-11.0,-4.0,23.0,39.0,0.0
0.0,-10.0,1.0,6.0,-8.0,-5.0,-16.0,-6.0,22.0,41.0,0.0
-11.0,-20.0,6.0,10.0,-10.0,-4.0,-9.0,-17.0,15.0,30.0,0.0
-13.0,-15.0,11.0,15.0,-2.0,0.0,-12.0,-16.0,18.0,9.0,0.0
-19.0,-5.0,3.0,18.0,6.0,7.0,-14.0,-8.0,19.0,-1.0,0.0
-17.0,9.0,0.0,24.0,2.0,-1.0,-9.0,-7.0,7.0,-4.0,0.0
-7.0,8.0,-4.0,17.0,-2.0,0.0,-2.0,-10.0,-3.0,-3.0,0.0
-16.0,2.0,-4.0,15.0,-5.0,3.0,-2.0,0.0,-13.0,-12.0,0.0
-32.0,0.0,6.0,17.0,5.0,21.0,1.0,3.0,-25.0,-33.0,0.0
-46.0,10.0,20.0,20.0,12.0,23.0,0.0,-5.0,-17.0,-34.0,0.0
-31.0,16.0,5.0,15.0,23.0,28.0,4.0,-10.0,-8.0,-15.0,0.0
-14.0,12.0,0.0,11.0,29.0,30.0,0.0,-3.0,-8.0,-6.0,0.0
-19.0,17.0,8.0,8.0,31.0,27.0,7.0,0.0,-7.0,-17.0,0.0
-7.0,29.0,17.0,17.0,34.0,28.0,8.0,4.0,-25.0,-21.0,0.0
-3.0,27.0,20.0,23.0,29.0,29.0,17.0,1.0,-26.0,-17.0,0.0
-13.0,24.0,5.0,22.0,25.0,21.0,15.0,-2.0,-15.0,-13.0,0.0
-13.0,25.0,-10.0,-4.0,17.0,20.0,1.0,-11.0,-21.0,14.0,0.0
-4.0,11.0,-13.0,-37.0,-5.0,2.0,-2.0,-9.0,-10.0,44.0,0.0
-9.0,3.0,-19.0,-56.0,-18.0,-8.0,-14.0,-3.0,4.0,55.0,0.0
-12.0,-3.0,-6.0,-55.0,-17.0,-15.0,-17.0,-6.0,-5.0,53.0,0.0
-18.0,-11.0,-5.0,-37.0,-23.0,-26.0,-20.0,-3.0,1.0,46.0,0.0
-27.0,-16.0,0.0,-31.0,-13.0,-17.0,-36.0,16.0,2.0,10.0,0.0
-39.0,-12.0,0.0,-21.0,1.0,-13.0,-47.0,25.0,-3.0,-26.0,0.0
-24.0,1.0,0.0,-3.0,0.0,4.0,-36.0,25.0,-23.0,-33.0,0.0
-21.0,0.0,-9.0,1.0,-4.0,13.0,-12.0,27.0,-23.0,-45.0,0.0
-11.0,7.0,-14.0,4.0,-11.0,12.0,0.0,38.0,-10.0,-36.0,0.0
27.0,31.0,-2.0,-2.0,-36.0,-9.0,-6.0,15.0,0.0,36.0,0.0
54.0,47.0,-19.0,-21.0,-46.0,-31.0,-22.0,0.0,20.0,116.0,0.0
49.0,40.0,-24.0,-26.0,-33.0,-28.0,-23.0,-3.0,23.0,148.0,0.0
53.0,34.0,-19.0,-4.0,-23.0,-20.0,-20.0,11.0,16.0,162.0,0.0
42.0,39.0,-10.0,5.0,-6.0,-2.0,-16.0,19.0,16.0,107.0,0.0
32.0,37.0,-1.0,9.0,3.0,1.0,-11.0,16.0,13.0,58.0,0.0
21.0,38.0,-6.0,10.0,5.0,1.0,-1.0,14.0,22.0,34.0,0.0
19.0,41.0,-3.0,-1.0,6.0,10.0,-1.0,16.0,20.0,27.0,0.0
6.0,25.0,3.0,-11.0,2.0,-4.0,-5.0,14.0,20.0,7.0,0.0
-9.0,10.0,10.0,-5.0,-3.0,-6.0,-5.0,8.0,11.0,-17.0,0.0
-18.0,8.0,11.0,13.0,5.0,-4.0,0.0,2.0,-11.0,-21.0,0.0
-12.0,17.0,5.0,23.0,7.0,-2.0,-5.0,9.0,-12.0,-28.0,0.0
-9.0,22.0,7.0,11.0,10.0,4.0,-19.0,1.0,-15.0,-23.0,0.0
-10.0,22.0,8.0,2.0,8.0,-1.0,-18.0,4.0,-5.0,-16.0,0.0
3.0,16.0,-3.0,-2.0,-3.0,-11.0,-27.0,-5.0,-3.0,4.0,0.0
35.0,15.0,-13.0,-16.0,-14.0,-23.0,-24.0,-10.0,0.0,31.0,0.0
34.0,6.0,-25.0,-25.0,-14.0,-28.0,-2.0,-3.0,7.0,41.0,0.0
19.0,-5.0,-2.0,-17.0,-8.0,-19.0,5.0,8.0,13.0,30.0,0.0
0.0,-28.0,-4.0,-7.0,-13.0,-3.0,11.0,5.0,9.0,15.0,0.0
-12.0,-13.0,-23.0,-10.0,-11.0,-1.0,-1.0,-1.0,0.0,20.0,0.0
-3.0,11.0,-31.0,-22.0,-9.0,1.0,-4.0,-4.0,3.0,17.0,0.0
-2.0,12.0,-28.0,-24.0,-14.0,3.0,-9.0,-6.0,-1.0,24.0,0.0
-6.0,5.0,-15.0,-15.0,-5.0,2.0,-16.0,0.0,-6.0,17.0,0.0
-13.0,11.0,-6.0,-10.0,0.0,14.0,1.0,-2.0,-8.0,-1.0,0.0
-15.0,10.0,-4.0,-8.0,-2.0,20.0,14.0,-12.0,-19.0,-36.0,0.0
-6.0,10.0,3.0,0.0,-4.0,16.0,11.0,-10.0,-8.0,-56.0,0.0
7.0,14.0,0.0,10.0,-10.0,8.0,-2.0,-14.0,-2.0,-55.0,0.0
26.0,63.0,17.0,13.0,-16.0,7.0,2.0,-21.0,-9.0,-55.0,0.0
24.0,174.0,34.0,18.0,-14.0,17.0,5.0,-15.0,0.0,-56.0,0.0
9.0,187.0,10.0,12.0,-2.0,18.0,9.0,-9.0,-7.0,-54.0,0.0
-3.0,115.0,0.0,-11.0,-4.0,0.0,-6.0,-14.0,-3.0,-41.0,0.0
19.0,21.0,-10.0,-27.0,-16.0,-2.0,-19.0,-31.0,8.0,0.0,0.0
51.0,-35.0,-10.0,-11.0,-23.0,-4.0,-6.0,-36.0,6.0,41.0,0.0
43.0,-98.0,-14.0,5.0,-14.0,0.0,0.0,-16.0,20.0,52.0,0.0
6.0,-175.0,-38.0,10.0,-12.0,2.0,1.0,-2.0,31.0,42.0,0.0
-20.0,-174.0,-41.0,11.0,-13.0,-5.0,1.0,-4.0,29.0,12.0,0.0
-25.0,-111.0,-23.0,7.0,-7.0,-5.0,-21.0,-3.0,20.0,-16.0,0.0
-22.0,-73.0,-30.0,-11.0,-14.0,-14.0,-35.0,-11.0,25.0,10.0,0.0
-5.0,-44.0,-33.0,-9.0,-21.0,-39.0,-32.0,-19.0,32.0,30.0,0.0
-1.0,-18.0,-28.0,3.0,-22.0,-39.0,-25.0,-20.0,27.0,7.0,0.0
-13.0,-9.0,-16.0,12.0,-24.0,-24.0,-5.0,-16.0,4.0,-20.0,0.0
-7.0,-7.0,-11.0,20.0,-20.0,-16.0,5.0,-10.0,-9.0,-28.0,0.0
12.0,-31.0,-14.0,24.0,-12.0,-4.0,3.0,-11.0,-13.0,-41.0,0.0
21.0,-37.0,-17.0,18.0,-16.0,6.0,7.0,5.0,-3.0,-36.0,0.0
16.0,-46.0,-20.0,29.0,-18.0,-4.0,-5.0,8.0,-5.0,-18.0,0.0
14.0,-33.0,-11.0,21.0,-17.0,-13.0,-11.0,4.0,-19.0,-16.0,0.0
16.0,-17.0,1.0,23.0,-18.0,-16.0,-9.0,1.0,-19.0,-21.0,0.0
9.0,-2.0,14.0,31.0,-15.0,-25.0,6.0,-8.0,-13.0,-28.0,0.0
4.0,-3.0,9.0,27.0,-14.0,-21.0,22.0,-3.0,-12.0,-30.0,0.0
-3.0,-1.0,7.0,20.0,-5.0,-13.0,26.0,11.0,-16.0,-33.0,0.0
-8.0,1.0,3.0,24.0,3.0,-11.0,20.0,19.0,-39.0,-38.0,0.0
-13.0,10.0,7.0,28.0,8.0,0.0,11.0,20.0,-37.0,-48.0,0.0
-6.0,23.0,5.0,24.0,1.0,10.0,6.0,25.0,-38.0,-55.0,0.0
-9.0,63.0,23.0,13.0,-5.0,21.0,8.0,35.0,-39.0,-69.0,0.0
-20.0,97.0,26.0,12.0,-5.0,21.0,3.0,30.0,-42.0,-72.0,0.0
-30.0,74.0,17.0,3.0,0.0,17.0,0.0,30.0,-36.0,-93.0,0.0
-31.0,45.0,9.0,0.0,0.0,17.0,-11.0,20.0,-25.0,-112.0,0.0
-7.0,22.0,16.0,1.0,-5.0,4.0,-20.0,8.0,-13.0,-78.0,0.0
13.0,-18.0,16.0,-8.0,-24.0,-20.0,-33.0,-6.0,-16.0,-16.0,0.0
25.0,-32.0,14.0,-11.0,-22.0,-20.0,-28.0,-6.0,3.0,32.0,0.0
9.0,-52.0,3.0,-6.0,-7.0,-14.0,-29.0,-6.0,0.0,22.0,0.0
-3.0,-55.0,-7.0,-13.0,-12.0,-21.0,-22.0,-13.0,-13.0,18.0,0.0
17.0,8.0,-8.0,-23.0,-42.0,-38.0,-37.0,-20.0,-15.0,46.0,0.0
20.0,28.0,-4.0,-19.0,-48.0,-47.0,-56.0,-27.0,-17.0,80.0,0.0
18.0,-1.0,-3.0,-13.0,-61.0,-40.0,-46.0,-31.0,-21.0,98.0,0.0
34.0,-13.0,6.0,-17.0,-54.0,-14.0,-24.0,-28.0,-5.0,82.0,0.0
55.0,-35.0,5.0,-22.0,-33.0,1.0,-22.0,-3.0,-4.0,48.0,0.0
51.0,-48.0,-1.0,-18.0,-19.0,20.0,-14.0,9.0,-7.0,16.0,0.0
44.0,2.0,15.0,-1.0,-7.0,16.0,-3.0,8.0,0.0,7.0,0.0
42.0,48.0,14.0,-4.0,-2.0,6.0,-1.0,9.0,6.0,58.0,0.0
62.0,88.0,11.0,-13.0,-3.0,5.0,-2.0,11.0,12.0,102.0,0.0
49.0,97.0,10.0,-4.0,6.0,26.0,2.0,20.0,32.0,97.0,0.0
-40.0,51.0,10.0,21.0,29.0,39.0,18.0,43.0,33.0,63.0,0.0
-144.0,-60.0,25.0,44.0,47.0,49.0,31.0,46.0,19.0,9.0,0.0
-99.0,-47.0,54.0,49.0,48.0,27.0,13.0,18.0,-3.0,-16.0,0.0
-4.0,61.0,74.0,35.0,41.0,7.0,5.0,14.0,0.0,-19.0,0.0
19.0,93.0,42.0,29.0,25.0,-2.0,9.0,14.0,-4.0,-3.0,0.0
-7.0,51.0,17.0,17.0,13.0,-2.0,16.0,17.0,-8.0,-3.0,0.0
-26.0,14.0,-3.0,2.0,-3.0,-2.0,7.0,7.0,-13.0,-19.0,0.0
-26.0,9.0,-12.0,-8.0,-4.0,-4.0,-1.0,7.0,-2.0,-35.0,0.0
-29.0,7.0,-20.0,-14.0,13.0,1.0,3.0,21.0,0.0,-34.0,0.0
-33.0,0.0,-21.0,-13.0,16.0,4.0,12.0,19.0,-9.0,-37.0,0.0
-11.0,33.0,-19.0,-20.0,4.0,3.0,9.0,6.0,-23.0,-34.0,0.0
19.0,161.0,-27.0,-22.0,-1.0,5.0,9.0,-4.0,-12.0,-32.0,0.0
21.0,194.0,-22.0,-24.0,-6.0,-2.0,13.0,5.0,3.0,-27.0,0.0
-4.0,134.0,-21.0,-38.0,-5.0,-7.0,2.0,3.0,-9.0,-33.0,0.0
-21.0,48.0,-10.0,-32.0,-2.0,-5.0,-4.0,-8.0,-16.0,-47.0,0.0
-7.0,-15.0,-1.0,-26.0,-10.0,-1.0,-12.0,-12.0,-28.0,-47.0,0.0
-8.0,-74.0,-14.0,-18.0,-16.0,3.0,-1.0,-5.0,-33.0,-51.0,0.0
-16.0,-171.0,-41.0,-10.0,-6.0,16.0,11.0,0.0,-15.0,-37.0,0.0
-24.0,-173.0,-34.0,1.0,6.0,22.0,19.0,-8.0,-7.0,-48.0,0.0
-24.0,-103.0,-7.0,-8.0,15.0,14.0,10.0,-15.0,-2.0,-43.0,0.0
-10.0,-59.0,-17.0,-21.0,6.0,-5.0,-7.0,-23.0,2.0,13.0,0.0
11.0,-50.0,-20.0,-38.0,-4.0,-8.0,-30.0,-36.0,21.0,82.0,0.0
12.0,-49.0,-9.0,-37.0,-9.0,-3.0,-18.0,-41.0,35.0,80.0,0.0
-5.0,-36.0,-5.0,-25.0,-11.0,0.0,-1.0,-20.0,25.0,58.0,0.0
-15.0,-24.0,-15.0,-20.0,-3.0,-6.0,7.0,-8.0,20.0,28.0,0.0
-11.0,-5.0,-20.0,-13.0,2.0,2.0,16.0,-3.0,24.0,14.0,0.0
-17.0,0.0,-14.0,0.0,9.0,-1.0,3.0,-9.0,16.0,3.0,0.0
-6.0,6.0,-16.0,-2.0,11.0,-7.0,-13.0,-9.0,15.0,-3.0,0.0
20.0,-4.0,-8.0,-20.0,13.0,2.0,-12.0,-9.0,25.0,-7.0,0.0
24.0,-23.0,-10.0,-25.0,10.0,-4.0,-8.0,-11.0,21.0,-8.0,0.0
12.0,-32.0,-13.0,-28.0,2.0,-16.0,-13.0,-16.0,16.0,7.0,0.0
14.0,-22.0,-7.0,-41.0,0.0,-12.0,-17.0,-18.0,17.0,30.0,0.0
14.0,-4.0,-8.0,-38.0,4.0,-9.0,-17.0,-18.0,20.0,47.0,0.0
45.0,0.0,-10.0,-15.0,13.0,-7.0,-2.0,-7.0,27.0,26.0,0.0
55.0,18.0,-13.0,7.0,31.0,5.0,12.0,3.0,16.0,-10.0,0.0
35.0,30.0,-1.0,6.0,37.0,14.0,6.0,1.0,0.0,-30.0,0.0
26.0,30.0,10.0,2.0,35.0,24.0,-4.0,0.0,-3.0,-46.0,0.0
14.0,21.0,11.0,0.0,33.0,35.0,-15.0,0.0,-11.0,-50.0,0.0
6.0,17.0,7.0,-9.0,28.0,16.0,-27.0,-17.0,2.0,-20.0,0.0
14.0,38.0,-14.0,-14.0,3.0,8.0,-22.0,-23.0,22.0,41.0,0.0
10.0,97.0,-12.0,-20.0,-15.0,-4.0,-21.0,-16.0,11.0,66.0,0.0
-5.0,115.0,-5.0,-25.0,-2.0,-4.0,-23.0,-10.0,-7.0,23.0,0.0
-28.0,96.0,0.0,-14.0,2.0,4.0,-5.0,-4.0,-15.0,-16.0,0.0
-23.0,50.0,-3.0,-9.0,5.0,14.0,-2.0,-4.0,-9.0,-27.0,0.0
-3.0,0.0,2.0,-14.0,4.0,9.0,-12.0,-5.0,-5.0,-23.0,0.0
-1.0,-37.0,0.0,-10.0,8.0,6.0,-7.0,1.0,-3.0,-22.0,0.0
-13.0,-68.0,-6.0,-3.0,10.0,12.0,0.0,1.0,4.0,0.0,0.0
-6.0,-77.0,7.0,19.0,7.0,9.0,-11.0,0.0,8.0,6.0,0.0
-15.0,-72.0,11.0,17.0,15.0,7.0,-16.0,0.0,4.0,-6.0,0.0
-22.0,-30.0,24.0,23.0,22.0,10.0,-11.0,3.0,1.0,0.0,0.0
-2.0,6.0,35.0,22.0,24.0,10.0,-6.0,-2.0,-1.0,13.0,0.0
7.0,12.0,31.0,25.0,16.0,19.0,-6.0,-12.0,0.0,-3.0,0.0
-10.0,20.0,37.0,9.0,5.0,22.0,-5.0,-12.0,-3.0,-19.0,0.0
-15.0,7.0,32.0,-4.0,7.0,30.0,7.0,-3.0,4.0,-33.0,0.0
-12.0,-35.0,15.0,-6.0,18.0,42.0,13.0,1.0,25.0,-46.0,0.0
-10.0,-30.0,15.0,-20.0,12.0,37.0,10.0,3.0,30.0,-66.0,0.0
-9.0,5.0,3.0,-39.0,-2.0,7.0,-11.0,-5.0,35.0,-47.0,0.0
4.0,10.0,-12.0,-54.0,-19.0,-17.0,-15.0,-14.0,31.0,-42.0,0.0
0.0,13.0,-4.0,-46.0,-17.0,-4.0,-10.0,2.0,20.0,-69.0,0.0
-11.0,18.0,-1.0,-36.0,-4.0,2.0,2.0,10.0,5.0,-91.0,0.0
-11.0,16.0,1.0,-28.0,0.0,2.0,2.0,5.0,-3.0,-116.0,0.0
-12.0,15.0,8.0,-19.0,-2.0,0.0,-3.0,10.0,3.0,-120.0,0.0
-26.0,-14.0,2.0,-22.0,1.0,4.0,2.0,12.0,-5.0,-119.0,0.0
-38.0,-23.0,-2.0,-16.0,5.0,10.0,10.0,7.0,-14.0,-117.0,0.0
-18.0,-15.0,-13.0,-13.0,7.0,6.0,10.0,14.0,0.0,-63.0,0.0
12.0,-19.0,-15.0,-16.0,-2.0,-12.0,0.0,12.0,21.0,35.0,0.0
15.0,-10.0,-24.0,-11.0,-4.0,-16.0,-4.0,7.0,31.0,49.0,0.0
0.0,-11.0,-26.0,7.0,-9.0,-17.0,9.0,12.0,20.0,-1.0,0.0
-9.0,-12.0,-18.0,24.0,-9.0,-8.0,12.0,7.0,0.0,-31.0,0.0
-3.0,-16.0,-15.0,27.0,0.0,-11.0,0.0,9.0,-6.0,-55.0,0.0
-4.0,1.0,-8.0,27.0,0.0,-13.0,-24.0,5.0,-6.0,-67.0,0.0
-10.0,14.0,-15.0,24.0,-5.0,-3.0,-28.0,0.0,-11.0,-59.0,0.0
-11.0,6.0,-20.0,12.0,-4.0,-8.0,-16.0,1.0,-8.0,-48.0,0.0
-8.0,-8.0,-19.0,-6.0,-4.0,-21.0,-25.0,2.0,6.0,-37.0,0.0
-20.0,-4.0,-17.0,1.0,-3.0,-17.0,-35.0,-1.0,-8.0,-19.0,0.0
-39.0,1.0,-10.0,13.0,3.0,-4.0,-17.0,-3.0,-5.0,-8.0,0.0
-39.0,-6.0,-4.0,19.0,6.0,5.0,-8.0,5.0,-12.0,-36.0,0.0
-22.0,9.0,-4.0,21.0,9.0,11.0,-15.0,4.0,-26.0,-63.0,0.0
-9.0,112.0,-1.0,16.0,17.0,9.0,7.0,9.0,-17.0,-64.0,0.0
-1.0,203.0,25.0,4.0,22.0,0.0,15.0,8.0,-13.0,-61.0,0.0
-6.0,163.0,27.0,-10.0,17.0,1.0,7.0,7.0,-9.0,-56.0,0.0
-21.0,86.0,4.0,-22.0,0.0,0.0,-2.0,5.0,-21.0,-48.0,0.0
-12.0,55.0,-6.0,-28.0,-20.0,-17.0,-17.0,0.0,-20.0,-46.0,0.0
-1.0,15.0,-10.0,-30.0,-28.0,-20.0,-33.0,-1.0,-17.0,-35.0,0.0
-2.0,-68.0,-21.0,-28.0,-12.0,-11.0,-22.0,5.0,2.0,-29.0,0.0
-21.0,-122.0,-25.0,-20.0,9.0,-4.0,1.0,17.0,-3.0,-41.0,0.0
-31.0,-92.0,0.0,-12.0,10.0,2.0,13.0,10.0,0.0,-24.0,0.0
-34.0,-106.0,13.0,-7.0,12.0,10.0,16.0,20.0,16.0,5.0,0.0
-25.0,-121.0,-5.0,5.0,29.0,22.0,17.0,32.0,19.0,31.0,0.0
-7.0,-95.0,-20.0,15.0,45.0,39.0,15.0,35.0,11.0,53.0,0.0
-5.0,-63.0,-11.0,16.0,36.0,44.0,24.0,39.0,10.0,54.0,0.0
2.0,-25.0,-5.0,21.0,30.0,39.0,26.0,25.0,6.0,43.0,0.0
4.0,12.0,3.0,27.0,37.0,46.0,21.0,12.0,-2.0,38.0,0.0
3.0,41.0,18.0,22.0,47.0,47.0,12.0,8.0,-19.0,29.0,0.0
-12.0,11.0,23.0,14.0,55.0,40.0,15.0,9.0,-25.0,13.0,0.0
-16.0,-5.0,24.0,6.0,49.0,29.0,10.0,8.0,-10.0,19.0,0.0
-23.0,-11.0,28.0,0.0,34.0,25.0,12.0,15.0,-6.0,23.0,0.0
-20.0,-4.0,19.0,-13.0,20.0,17.0,11.0,11.0,5.0,43.0,0.0
-16.0,-8.0,1.0,-26.0,2.0,7.0,-4.0,21.0,24.0,76.0,0.0
-16.0,-16.0,-11.0,-28.0,-5.0,5.0,-10.0,21.0,29.0,59.0,0.0
-13.0,-14.0,-12.0,-10.0,-7.0,9.0,2.0,22.0,27.0,33.0,0.0
-13.0,-21.0,-9.0,6.0,-5.0,0.0,8.0,22.0,21.0,22.0,0.0
-5.0,-26.0,-5.0,-8.0,5.0,-11.0,-17.0,8.0,14.0,43.0,0.0
0.0,-23.0,-13.0,-15.0,10.0,-24.0,-24.0,5.0,16.0,68.0,0.0
3.0,-10.0,-9.0,-4.0,6.0,-9.0,-3.0,4.0,20.0,57.0,0.0
-4.0,8.0,-1.0,8.0,14.0,10.0,10.0,17.0,2.0,27.0,0.0
-6.0,20.0,8.0,24.0,22.0,21.0,10.0,9.0,0.0,-8.0,0.0
13.0,15.0,23.0,46.0,21.0,24.0,0.0,-4.0,3.0,-9.0,0.0
22.0,-28.0,21.0,34.0,2.0,2.0,-12.0,-12.0,-15.0,0.0,0.0
20.0,-77.0,24.0,18.0,-11.0,-11.0,3.0,-15.0,-22.0,-10.0,0.0
38.0,-81.0,24.0,24.0,-14.0,-10.0,-4.0,-8.0,-19.0,-20.0,0.0
64.0,-49.0,37.0,27.0,-17.0,-6.0,-23.0,-16.0,0.0,21.0,0.0
60.0,5.0,31.0,22.0,-27.0,-11.0,-25.0,-31.0,9.0,70.0,0.0
47.0,58.0,8.0,14.0,-19.0,-8.0,-26.0,-15.0,-4.0,98.0,0.0
44.0,92.0,1.0,2.0,-8.0,-10.0,-26.0,-7.0,4.0,113.0,0.0
62.0,117.0,19.0,4.0,1.0,2.0,-8.0,-7.0,8.0,88.0,0.0
36.0,147.0,55.0,16.0,13.0,14.0,4.0,0.0,-7.0,53.0,0.0
-64.0,102.0,69.0,46.0,39.0,22.0,10.0,17.0,-5.0,22.0,0.0
-141.0,-39.0,32.0,47.0,49.0,37.0,19.0,18.0,12.0,11.0,0.0
-78.0,-32.0,-4.0,17.0,38.0,18.0,8.0,-11.0,23.0,47.0,0.0
-18.0,29.0,-2.0,-2.0,16.0,-1.0,0.0,-24.0,19.0,77.0,0.0
-5.0,72.0,24.0,0.0,1.0,-17.0,-14.0,-19.0,4.0,78.0,0.0
2.0,105.0,34.0,4.0,-2.0,-26.0,-23.0,-12.0,0.0,64.0,0.0
-3.0,88.0,22.0,8.0,10.0,-31.0,0.0,-11.0,5.0,35.0,0.0
-13.0,52.0,11.0,15.0,24.0,-5.0,1.0,-5.0,-3.0,4.0,0.0
0.0,16.0,7.0,17.0,32.0,0.0,-3.0,-8.0,-10.0,-10.0,0.0
2.0,-28.0,0.0,15.0,31.0,-1.0,-5.0,-8.0,2.0,-16.0,0.0
-6.0,-64.0,-2.0,6.0,17.0,0.0,-6.0,-7.0,16.0,2.0,0.0
-13.0,-55.0,-4.0,7.0,11.0,-4.0,-5.0,-29.0,17.0,3.0,0.0
-27.0,-29.0,-14.0,7.0,13.0,-8.0,1.0,-33.0,4.0,-7.0,0.0
-17.0,-43.0,-10.0,6.0,10.0,0.0,0.0,-18.0,-7.0,10.0,0.0
2.0,-63.0,-14.0,9.0,5.0,5.0,0.0,-5.0,4.0,58.0,0.0
6.0,-59.0,-21.0,7.0,-1.0,2.0,6.0,8.0,18.0,47.0,0.0
1.0,-51.0,-21.0,0.0,-8.0,0.0,3.0,3.0,18.0,15.0,0.0
11.0,-53.0,-24.0,-9.0,-17.0,-2.0,0.0,-2.0,16.0,-3.0,0.0
19.0,-44.0,-23.0,-12.0,-19.0,-2.0,-2.0,6.0,10.0,-17.0,0.0
15.0,-26.0,-11.0,-4.0,-9.0,3.0,-4.0,2.0,6.0,-37.0,0.0
13.0,-8.0,1.0,11.0,0.0,7.0,-7.0,15.0,0.0,-48.0,0.0
22.0,-3.0,7.0,8.0,5.0,20.0,2.0,20.0,-13.0,-41.0,0.0
22.0,-2.0,4.0,1.0,13.0,20.0,16.0,5.0,-12.0,-63.0,0.0
8.0,4.0,15.0,-3.0,19.0,20.0,27.0,-4.0,-5.0,-62.0,0.0
11.0,56.0,29.0,-1.0,12.0,17.0,12.0,-15.0,-13.0,-34.0,0.0
30.0,195.0,43.0,-18.0,1.0,10.0,-20.0,-19.0,-4.0,10.0,0.0
39.0,224.0,39.0,-36.0,-12.0,-6.0,-25.0,-24.0,18.0,30.0,0.0
33.0,148.0,33.0,-30.0,-21.0,-12.0,-28.0,-25.0,19.0,53.0,0.0
36.0,57.0,49.0,-18.0,-23.0,-9.0,-24.0,-29.0,10.0,43.0,0.0
55.0,-1.0,51.0,-8.0,-25.0,-9.0,-14.0,-24.0,5.0,31.0,0.0
61.0,-65.0,23.0,-7.0,-13.0,-3.0,0.0,-15.0,10.0,43.0,0.0
23.0,-166.0,-18.0,0.0,-8.0,5.0,26.0,5.0,25.0,50.0,0.0
12.0,-161.0,-34.0,5.0,-19.0,6.0,32.0,6.0,23.0,47.0,0.0
16.0,-96.0,-29.0,-5.0,-29.0,-5.0,22.0,-3.0,22.0,57.0,0.0
38.0,-59.0,-22.0,-17.0,-34.0,-13.0,18.0,-4.0,28.0,53.0,0.0
46.0,-44.0,-1.0,-22.0,-29.0,-20.0,10.0,0.0,23.0,31.0,0.0
35.0,-37.0,16.0,-15.0,-22.0,-11.0,6.0,-4.0,20.0,28.0,0.0
37.0,-32.0,16.0,-23.0,-12.0,-4.0,14.0,0.0,15.0,25.0,0.0
33.0,-26.0,16.0,-17.0,-9.0,0.0,14.0,7.0,11.0,16.0,0.0
24.0,-11.0,17.0,-8.0,-6.0,4.0,1.0,6.0,10.0,24.0,0.0
19.0,17.0,20.0,-7.0,-7.0,9.0,-8.0,2.0,8.0,31.0,0.0
14.0,19.0,31.0,-8.0,-3.0,0.0,-10.0,10.0,-3.0,23.0,0.0
10.0,15.0,36.0,0.0,16.0,0.0,6.0,10.0,-9.0,2.0,0.0
-1.0,29.0,24.0,3.0,18.0,-1.0,10.0,0.0,-10.0,-7.0,0.0
0.0,26.0,13.0,1.0,17.0,5.0,1.0,6.0,-27.0,-15.0,0.0
7.0,23.0,15.0,-2.0,11.0,5.0,-1.0,12.0,-22.0,-13.0,0.0
7.0,33.0,18.0,-1.0,12.0,0.0,8.0,18.0,0.0,-13.0,0.0
11.0,32.0,21.0,6.0,14.0,2.0,28.0,18.0,2.0,-15.0,0.0
10.0,31.0,11.0,11.0,10.0,-3.0,34.0,8.0,-18.0,-22.0,0.0
-1.0,26.0,5.0,13.0,0.0,-4.0,18.0,7.0,-16.0,-43.0,0.0
-1.0,22.0,14.0,20.0,7.0,1.0,2.0,18.0,-7.0,-51.0,0.0
-5.0,18.0,26.0,14.0,7.0,4.0,2.0,5.0,-4.0,-37.0,0.0
-6.0,17.0,23.0,10.0,8.0,-3.0,12.0,-3.0,-10.0,-35.0,0.0
-5.0,20.0,9.0,11.0,9.0,-2.0,19.0,-5.0,-2.0,-38.0,0.0
-4.0,25.0,0.0,22.0,6.0,0.0,26.0,-7.0,0.0,-36.0,0.0
-2.0,16.0,9.0,20.0,1.0,0.0,29.0,-6.0,-1.0,-25.0,0.0
-3.0,3.0,0.0,23.0,-6.0,-7.0,17.0,-2.0,9.0,-9.0,0.0
9.0,0.0,-12.0,18.0,-10.0,-2.0,16.0,1.0,0.0,-8.0,0.0
23.0,0.0,0.0,11.0,-2.0,3.0,12.0,-5.0,-8.0,-19.0,0.0
24.0,13.0,0.0,10.0,9.0,-1.0,15.0,0.0,4.0,-15.0,0.0
32.0,33.0,-16.0,14.0,0.0,-11.0,9.0,14.0,4.0,-23.0,0.0
26.0,35.0,-13.0,11.0,-12.0,-12.0,6.0,8.0,0.0,-18.0,0.0
23.0,28.0,-19.0,0.0,-7.0,-2.0,5.0,-3.0,-9.0,-5.0,0.0
18.0,32.0,-14.0,-5.0,4.0,0.0,3.0,0.0,9.0,23.0,0.0
19.0,49.0,6.0,-1.0,3.0,0.0,1.0,-1.0,23.0,25.0,0.0
24.0,46.0,37.0,12.0,5.0,-5.0,6.0,-7.0,21.0,18.0,0.0
19.0,38.0,33.0,28.0,5.0,-2.0,5.0,-6.0,20.0,13.0,0.0
23.0,20.0,17.0,32.0,-1.0,1.0,4.0,-5.0,27.0,11.0,0.0
28.0,19.0,11.0,41.0,2.0,-8.0,4.0,-5.0,24.0,16.0,0.0
35.0,29.0,-8.0,45.0,0.0,-7.0,16.0,-5.0,21.0,21.0,0.0
31.0,17.0,-16.0,31.0,-7.0,-2.0,16.0,5.0,16.0,12.0,0.0
22.0,8.0,-7.0,20.0,-12.0,-11.0,1.0,5.0,-3.0,-5.0,0.0
15.0,0.0,-10.0,27.0,-12.0,-17.0,-7.0,-8.0,2.0,-2.0,0.0
-8.0,-11.0,-7.0,24.0,-3.0,-5.0,2.0,-6.0,6.0,-3.0,0.0
-32.0,-9.0,-3.0,3.0,11.0,4.0,10.0,-10.0,-5.0,-23.0,0.0
-38.0,8.0,-8.0,9.0,9.0,10.0,22.0,-9.0,-5.0,-38.0,0.0
-24.0,25.0,-4.0,16.0,7.0,19.0,37.0,10.0,-5.0,-36.0,0.0
-5.0,108.0,4.0,20.0,14.0,25.0,31.0,14.0,-19.0,-42.0,0.0
-12.0,205.0,23.0,17.0,7.0,10.0,17.0,5.0,-32.0,-79.0,0.0
-22.0,212.0,35.0,14.0,-4.0,-12.0,14.0,-2.0,-28.0,-105.0,0.0
-19.0,150.0,38.0,34.0,-9.0,-13.0,2.0,-19.0,-25.0,-92.0,0.0
-15.0,72.0,24.0,40.0,-10.0,-16.0,-17.0,-29.0,-5.0,-36.0,0.0
6.0,-14.0,-6.0,25.0,-19.0,-36.0,-27.0,-17.0,24.0,79.0,0.0
15.0,-155.0,-43.0,4.0,-16.0,-43.0,-7.0,-9.0,44.0,136.0,0.0
-17.0,-254.0,-68.0,8.0,4.0,-16.0,7.0,0.0,29.0,83.0,0.0
-33.0,-212.0,-59.0,2.0,9.0,-9.0,14.0,-5.0,17.0,27.0,0.0
-30.0,-162.0,-46.0,-14.0,-5.0,-17.0,0.0,-4.0,13.0,28.0,0.0
-2.0,-124.0,-60.0,-37.0,-22.0,-33.0,-23.0,-5.0,11.0,67.0,0.0
29.0,-65.0,-56.0,-21.0,-27.0,-34.0,-41.0,-16.0,0.0,81.0,0.0
74.0,-31.0,-22.0,0.0,-24.0,-31.0,-38.0,-23.0,-16.0,61.0,0.0
94.0,-12.0,-7.0,9.0,-11.0,-24.0,-25.0,-22.0,-24.0,35.0,0.0
107.0,33.0,14.0,11.0,-5.0,-27.0,-33.0,-21.0,-36.0,65.0,0.0
115.0,59.0,33.0,17.0,-3.0,-25.0,-33.0,-16.0,-33.0,75.0,0.0
70.0,63.0,31.0,29.0,3.0,-14.0,-14.0,-9.0,-41.0,31.0,0.0
-24.0,33.0,18.0,32.0,9.0,-2.0,-13.0,-1.0,-51.0,-33.0,0.0
-104.0,3.0,4.0,26.0,26.0,16.0,-10.0,-1.0,-58.0,-70.0,0.0
-99.0,1.0,0.0,28.0,29.0,32.0,-2.0,-4.0,-40.0,-61.0,0.0
-59.0,11.0,12.0,27.0,20.0,32.0,11.0,2.0,-15.0,-42.0,0.0
-1.0,14.0,3.0,9.0,-3.0,17.0,4.0,0.0,12.0,16.0,0.0
-7.0,-29.0,-12.0,6.0,-15.0,1.0,-1.0,0.0,40.0,83.0,0.0
-70.0,-82.0,7.0,19.0,13.0,23.0,19.0,13.0,33.0,73.0,0.0
-86.0,-98.0,8.0,22.0,28.0,32.0,32.0,16.0,22.0,28.0,0.0
-72.0,-81.0,-6.0,10.0,14.0,23.0,13.0,12.0,15.0,29.0,0.0
-57.0,-85.0,-32.0,-5.0,-2.0,8.0,0.0,9.0,8.0,63.0,0.0
-29.0,-80.0,-49.0,-11.0,-14.0,-5.0,1.0,11.0,1.0,87.0,0.0
-10.0,-48.0,-35.0,-4.0,0.0,-11.0,3.0,7.0,-14.0,67.0,0.0
0.0,1.0,-16.0,0.0,7.0,-4.0,6.0,0.0,-16.0,28.0,0.0
0.0,0.0,-8.0,0.0,11.0,14.0,19.0,6.0,-14.0,2.0,0.0
-9.0,-13.0,-8.0,7.0,6.0,27.0,13.0,16.0,-22.0,0.0,0.0
4.0,2.0,-1.0,6.0,0.0,19.0,1.0,7.0,-22.0,-12.0,0.0
9.0,26.0,5.0,15.0,1.0,16.0,4.0,9.0,-18.0,-42.0,0.0
-18.0,16.0,13.0,16.0,13.0,26.0,5.0,19.0,-17.0,-61.0,0.0
-32.0,29.0,15.0,19.0,23.0,41.0,12.0,28.0,-18.0,-68.0,0.0
-41.0,36.0,18.0,17.0,16.0,40.0,19.0,22.0,-26.0,-79.0,0.0
-66.0,48.0,16.0,10.0,3.0,20.0,8.0,22.0,-18.0,-73.0,0.0
-67.0,10.0,-6.0,-41.0,-20.0,-8.0,-24.0,0.0,-18.0,-37.0,0.0
-15.0,-34.0,-10.0,-77.0,-40.0,-30.0,-49.0,-1.0,-3.0,15.0,0.0
39.0,3.0,-9.0,-57.0,-29.0,-22.0,-24.0,9.0,12.0,60.0,0.0
20.0,50.0,-11.0,-38.0,-28.0,-20.0,-34.0,11.0,0.0,61.0,0.0
23.0,58.0,-18.0,-27.0,-16.0,-7.0,-32.0,24.0,2.0,65.0,0.0
39.0,29.0,-31.0,-21.0,18.0,22.0,1.0,46.0,21.0,53.0,0.0
0.0,-4.0,-12.0,0.0,49.0,40.0,11.0,43.0,25.0,8.0,0.0
-45.0,-35.0,4.0,15.0,37.0,38.0,11.0,32.0,8.0,-39.0,0.0
-38.0,-14.0,17.0,17.0,21.0,30.0,3.0,19.0,-18.0,-76.0,0.0
-22.0,-18.0,13.0,14.0,23.0,32.0,-1.0,11.0,-34.0,-111.0,0.0
109.0,429.0,52.0,-35.0,-17.0,-17.0,-44.0,-35.0,-13.0,-39.0,0.0
83.0,280.0,51.0,-35.0,-20.0,-34.0,-47.0,-39.0,-3.0,-25.0,0.0
82.0,123.0,26.0,-47.0,-44.0,-51.0,-56.0,-40.0,5.0,63.0,0.0
82.0,-103.0,-30.0,-29.0,-28.0,-23.0,-16.0,-1.0,39.0,124.0,0.0
1.0,-324.0,-79.0,10.0,27.0,41.0,31.0,54.0,63.0,83.0,0.0
-113.0,-356.0,-62.0,34.0,64.0,74.0,43.0,70.0,49.0,11.0,0.0
-162.0,-294.0,-16.0,51.0,78.0,70.0,31.0,42.0,22.0,-34.0,0.0
-71.0,-177.0,2.0,19.0,39.0,27.0,0.0,-5.0,-2.0,-30.0,0.0
74.0,-65.0,-1.0,-13.0,-11.0,2.0,-32.0,-41.0,1.0,17.0,0.0
136.0,0.0,10.0,-16.0,-27.0,-5.0,-32.0,-30.0,4.0,34.0,0.0
155.0,40.0,22.0,-6.0,-17.0,-15.0,-11.0,-15.0,10.0,13.0,0.0
128.0,35.0,29.0,-8.0,-19.0,-17.0,-14.0,-11.0,14.0,7.0,0.0
56.0,17.0,40.0,-9.0,-13.0,-20.0,-20.0,-9.0,-11.0,-6.0,0.0
-17.0,10.0,42.0,1.0,0.0,-11.0,-9.0,-7.0,-17.0,-11.0,0.0
-23.0,13.0,58.0,4.0,-1.0,-11.0,-20.0,-5.0,3.0,-22.0,0.0
22.0,53.0,50.0,12.0,2.0,-7.0,-28.0,-4.0,19.0,-9.0,0.0
50.0,77.0,23.0,18.0,1.0,-5.0,-17.0,-3.0,26.0,20.0,0.0
50.0,35.0,-17.0,8.0,-2.0,-7.0,-7.0,17.0,32.0,43.0,0.0
37.0,-15.0,-53.0,2.0,7.0,0.0,2.0,26.0,55.0,59.0,0.0
-23.0,-40.0,-66.0,-10.0,17.0,15.0,8.0,20.0,39.0,28.0,0.0
-57.0,-1.0,-49.0,-28.0,11.0,0.0,-1.0,-2.0,0.0,2.0,0.0
-65.0,-5.0,-52.0,-60.0,-4.0,-29.0,-30.0,-23.0,-11.0,36.0,0.0
-96.0,-79.0,-53.0,-87.0,-28.0,-46.0,-48.0,-23.0,-21.0,50.0,0.0
-167.0,-88.0,-36.0,-73.0,-25.0,-39.0,-24.0,-25.0,-38.0,3.0,0.0
-211.0,-42.0,-9.0,-29.0,7.0,-19.0,-13.0,-7.0,-44.0,-48.0,0.0
-198.0,28.0,26.0,20.0,27.0,5.0,4.0,10.0,-41.0,-67.0,0.0
-168.0,66.0,35.0,36.0,35.0,23.0,24.0,18.0,-25.0,-54.0,0.0
-146.0,100.0,52.0,39.0,52.0,31.0,39.0,11.0,-42.0,-101.0,0.0
-133.0,122.0,85.0,70.0,75.0,56.0,57.0,7.0,-50.0,-187.0,0.0
-93.0,77.0,73.0,69.0,88.0,64.0,64.0,6.0,-30.0,-190.0,0.0
-62.0,-16.0,34.0,35.0,81.0,64.0,61.0,4.0,-14.0,-161.0,0.0
-9.0,-52.0,-3.0,8.0,40.0,36.0,32.0,9.0,1.0,-90.0,0.0
10.0,-43.0,-35.0,-22.0,-10.0,0.0,0.0,2.0,30.0,4.0,0.0
-16.0,-29.0,-45.0,-53.0,-37.0,-26.0,-37.0,-19.0,26.0,46.0,0.0
-58.0,-40.0,-45.0,-60.0,-46.0,-41.0,-41.0,-36.0,17.0,96.0,0.0
-30.0,-54.0,-45.0,-62.0,-63.0,-53.0,-41.0,-31.0,36.0,228.0,0.0
17.0,-52.0,-27.0,-47.0,-43.0,-29.0,-36.0,-17.0,33.0,269.0,0.0
11.0,-27.0,-23.0,-16.0,-25.0,-11.0,-8.0,-7.0,19.0,183.0,0.0
-37.0,-33.0,-24.0,-1.0,2.0,3.0,1.0,0.0,12.0,105.0,0.0
-59.0,-55.0,-25.0,-9.0,10.0,9.0,-2.0,4.0,24.0,55.0,0.0
-47.0,-63.0,-31.0,-12.0,8.0,9.0,-3.0,-1.0,25.0,32.0,0.0
-38.0,-49.0,-31.0,-6.0,6.0,3.0,3.0,-10.0,17.0,23.0,0.0
-8.0,-9.0,-9.0,-2.0,2.0,13.0,4.0,-19.0,5.0,21.0,0.0
25.0,40.0,16.0,11.0,1.0,15.0,-8.0,-28.0,-5.0,18.0,0.0
47.0,82.0,32.0,26.0,8.0,10.0,-18.0,-18.0,-6.0,20.0,0.0
58.0,111.0,43.0,26.0,6.0,19.0,-5.0,-16.0,1.0,20.0,0.0
62.0,117.0,51.0,26.0,8.0,21.0,-12.0,-26.0,8.0,16.0,0.0
51.0,108.0,59.0,29.0,2.0,9.0,-34.0,-34.0,5.0,20.0,0.0
50.0,212.0,38.0,29.0,-9.0,1.0,-31.0,-39.0,-7.0,26.0,0.0
46.0,275.0,26.0,17.0,-8.0,-3.0,-26.0,-18.0,-16.0,18.0,0.0
31.0,179.0,30.0,12.0,2.0,-6.0,-19.0,-10.0,-21.0,12.0,0.0
21.0,27.0,16.0,21.0,5.0,-2.0,-1.0,-14.0,-32.0,3.0,0.0
16.0,-104.0,-42.0,22.0,5.0,5.0,-2.0,-13.0,-30.0,1.0,0.0
21.0,-156.0,-61.0,12.0,-3.0,9.0,0.0,-14.0,-13.0,10.0,0.0
28.0,-186.0,-54.0,12.0,0.0,25.0,24.0,-11.0,-14.0,10.0,0.0
7.0,-188.0,-47.0,12.0,7.0,30.0,27.0,-1.0,-20.0,-7.0,0.0
2.0,-107.0,-37.0,13.0,5.0,16.0,14.0,-1.0,-37.0,-24.0,0.0
21.0,-10.0,-2.0,1.0,3.0,3.0,3.0,-3.0,-36.0,-32.0,0.0
30.0,71.0,13.0,-10.0,16.0,10.0,2.0,0.0,-35.0,-26.0,0.0
28.0,89.0,5.0,-14.0,12.0,2.0,-2.0,-12.0,-28.0,-19.0,0.0
27.0,70.0,2.0,-9.0,16.0,-7.0,-6.0,-12.0,-32.0,-17.0,0.0
22.0,62.0,8.0,15.0,13.0,-4.0,-13.0,-11.0,-43.0,-18.0,0.0
16.0,65.0,2.0,-5.0,9.0,-17.0,-11.0,-12.0,-47.0,-13.0,0.0
25.0,51.0,-8.0,-29.0,7.0,-16.0,-26.0,-9.0,-47.0,-26.0,0.0
30.0,43.0,-13.0,-33.0,7.0,-8.0,-30.0,-14.0,-44.0,-37.0,0.0
23.0,47.0,4.0,-19.0,10.0,-7.0,-19.0,-15.0,-28.0,-40.0,0.0
14.0,48.0,11.0,9.0,19.0,-20.0,-25.0,-10.0,-20.0,-30.0,0.0
7.0,53.0,26.0,28.0,13.0,-23.0,-17.0,-17.0,-12.0,-28.0,0.0
4.0,69.0,34.0,31.0,22.0,-19.0,-24.0,-9.0,-13.0,-24.0,0.0
7.0,69.0,8.0,17.0,26.0,-24.0,-20.0,0.0,-18.0,-20.0,0.0
16.0,57.0,2.0,14.0,8.0,-22.0,4.0,-1.0,-13.0,-25.0,0.0
15.0,68.0,15.0,8.0,-6.0,-26.0,-1.0,-7.0,-14.0,-37.0,0.0
21.0,98.0,3.0,3.0,-8.0,-22.0,-12.0,-2.0,-12.0,-49.0,0.0
31.0,135.0,13.0,11.0,-5.0,-12.0,-11.0,-10.0,-6.0,-43.0,0.0
47.0,136.0,22.0,16.0,-2.0,0.0,-16.0,-15.0,-8.0,-41.0,0.0
61.0,98.0,26.0,9.0,-2.0,-1.0,-19.0,-17.0,-13.0,-31.0,0.0
59.0,50.0,23.0,-12.0,1.0,-3.0,-6.0,-7.0,1.0,2.0,0.0
36.0,0.0,5.0,-21.0,3.0,0.0,-13.0,6.0,17.0,15.0,0.0
0.0,-40.0,-1.0,-4.0,10.0,10.0,-6.0,-6.0,-2.0,4.0,0.0
-9.0,-43.0,5.0,7.0,9.0,11.0,-9.0,-16.0,2.0,-2.0,0.0
-5.0,-24.0,0.0,16.0,-1.0,11.0,-20.0,-9.0,4.0,13.0,0.0
-15.0,-4.0,7.0,35.0,-1.0,18.0,-9.0,0.0,16.0,22.0,0.0
-34.0,0.0,16.0,51.0,9.0,18.0,-13.0,0.0,17.0,14.0,0.0
-36.0,-8.0,17.0,54.0,12.0,27.0,-9.0,6.0,13.0,14.0,0.0
5.0,-4.0,13.0,43.0,23.0,28.0,-7.0,4.0,7.0,10.0,0.0
38.0,0.0,10.0,40.0,22.0,29.0,-20.0,15.0,-10.0,6.0,0.0
28.0,-35.0,0.0,28.0,18.0,16.0,-28.0,4.0,-24.0,-16.0,0.0
17.0,-63.0,-8.0,7.0,10.0,-5.0,-36.0,-12.0,-36.0,-41.0,0.0
30.0,-9.0,10.0,-8.0,-13.0,-21.0,-42.0,-20.0,-35.0,-52.0,0.0
38.0,31.0,16.0,-13.0,-27.0,-36.0,-44.0,-13.0,-27.0,-32.0,0.0
66.0,62.0,6.0,-13.0,-29.0,-35.0,-34.0,-16.0,-18.0,-16.0,0.0
63.0,110.0,13.0,7.0,-11.0,-21.0,-32.0,-18.0,-6.0,-13.0,0.0
62.0,153.0,31.0,30.0,13.0,6.0,-21.0,-15.0,-7.0,-35.0,0.0
42.0,147.0,49.0,41.0,34.0,21.0,-16.0,-10.0,-5.0,-57.0,0.0
-20.0,116.0,59.0,65.0,56.0,44.0,0.0,14.0,0.0,-78.0,0.0
-99.0,24.0,48.0,64.0,77.0,52.0,16.0,39.0,4.0,-115.0,0.0
-96.0,10.0,22.0,30.0,53.0,32.0,5.0,50.0,16.0,-81.0,0.0
-36.0,162.0,16.0,14.0,29.0,12.0,-16.0,27.0,0.0,-56.0,0.0
-13.0,394.0,43.0,30.0,40.0,31.0,-5.0,11.0,-22.0,-103.0,0.0
-8.0,502.0,25.0,34.0,34.0,30.0,-2.0,-8.0,-22.0,-99.0,0.0
-5.0,395.0,-3.0,10.0,8.0,0.0,-20.0,-25.0,-11.0,-47.0,0.0
0.0,160.0,-1.0,-15.0,-32.0,-49.0,-59.0,-54.0,-8.0,26.0,0.0
36.0,-6.0,15.0,-27.0,-63.0,-78.0,-77.0,-61.0,-3.0,135.0,0.0
158.0,-33.0,14.0,-38.0,-86.0,-89.0,-73.0,-60.0,0.0,255.0,0.0
345.0,-92.0,0.0,-20.0,-66.0,-65.0,-56.0,-39.0,-9.0,215.0,0.0
374.0,-184.0,-9.0,18.0,-18.0,5.0,-13.0,-10.0,-50.0,36.0,0.0
400.0,-61.0,13.0,33.0,9.0,23.0,-3.0,-1.0,-85.0,-93.0,0.0
448.0,230.0,88.0,36.0,1.0,0.0,-23.0,-33.0,-99.0,-85.0,0.0
304.0,302.0,78.0,33.0,-4.0,0.0,-17.0,-34.0,-80.0,-45.0,0.0
-56.0,65.0,6.0,8.0,9.0,18.0,-12.0,-13.0,-78.0,-77.0,0.0
-208.0,-132.0,-33.0,-19.0,15.0,15.0,-25.0,-23.0,-80.0,-125.0,0.0
-73.0,-212.0,-59.0,-44.0,-13.0,-16.0,-46.0,-40.0,-66.0,-89.0,0.0
-34.0,-231.0,-51.0,-50.0,-30.0,-30.0,-61.0,-52.0,-34.0,15.0,0.0
-54.0,-269.0,-51.0,-63.0,-43.0,-33.0,-54.0,-27.0,22.0,148.0,0.0
-100.0,-227.0,-56.0,-46.0,-20.0,0.0,-13.0,43.0,90.0,206.0,0.0
-203.0,-81.0,-52.0,-26.0,5.0,39.0,28.0,95.0,99.0,131.0,0.0
-285.0,9.0,-36.0,-25.0,5.0,40.0,28.0,97.0,74.0,3.0,0.0
-134.0,54.0,7.0,-21.0,-1.0,34.0,22.0,82.0,56.0,-44.0,0.0
-13.0,36.0,62.0,29.0,13.0,46.0,24.0,60.0,39.0,-43.0,0.0
-93.0,-166.0,39.0,51.0,29.0,47.0,14.0,38.0,33.0,-10.0,0.0
-190.0,-332.0,-24.0,15.0,12.0,21.0,-13.0,8.0,42.0,73.0,0.0
-204.0,-319.0,-32.0,2.0,14.0,19.0,-22.0,-9.0,17.0,70.0,0.0
-111.0,-269.0,-15.0,13.0,14.0,25.0,-12.0,-10.0,0.0,48.0,0.0
117.0,-267.0,-10.0,-13.0,-8.0,0.0,-17.0,-13.0,40.0,161.0,0.0
227.0,-309.0,-53.0,-46.0,-34.0,-21.0,-13.0,3.0,116.0,301.0,0.0
44.0,-311.0,-82.0,-45.0,-37.0,-10.0,-1.0,11.0,113.0,255.0,0.0
-146.0,-199.0,-57.0,-29.0,-25.0,12.0,10.0,2.0,85.0,158.0,0.0
-182.0,-9.0,-31.0,-22.0,-7.0,28.0,11.0,-5.0,36.0,77.0,0.0
-142.0,124.0,-2.0,5.0,9.0,42.0,33.0,1.0,0.0,25.0,0.0
-98.0,250.0,18.0,29.0,28.0,52.0,41.0,-4.0,-2.0,6.0,0.0
-52.0,405.0,38.0,38.0,45.0,51.0,36.0,-3.0,-3.0,-25.0,0.0
-32.0,318.0,70.0,14.0,12.0,45.0,13.0,3.0,12.0,-46.0,0.0
-56.0,193.0,98.0,-3.0,-16.0,17.0,-13.0,18.0,16.0,-42.0,0.0
-44.0,45.0,91.0,4.0,-19.0,-4.0,-19.0,18.0,-1.0,3.0,0.0
36.0,-61.0,48.0,-5.0,-16.0,-14.0,-13.0,-4.0,-4.0,41.0,0.0
162.0,-123.0,-11.0,-13.0,-12.0,6.0,0.0,-18.0,-1.0,66.0,0.0
214.0,-177.0,-45.0,-7.0,-2.0,17.0,1.0,-31.0,-15.0,69.0,0.0
144.0,-169.0,-43.0,-3.0,-13.0,4.0,-30.0,-61.0,-46.0,18.0,0.0
102.0,-97.0,-49.0,-25.0,-30.0,-12.0,-50.0,-91.0,-71.0,-24.0,0.0
75.0,-35.0,-34.0,-34.0,-28.0,-19.0,-51.0,-122.0,-85.0,-49.0,0.0
-20.0,2.0,-4.0,-15.0,-11.0,-11.0,-43.0,-127.0,-109.0,-84.0,0.0
-20.0,99.0,66.0,14.0,13.0,0.0,-29.0,-98.0,-115.0,-99.0,0.0
56.0,134.0,125.0,32.0,40.0,14.0,0.0,-23.0,-59.0,-73.0,0.0
132.0,91.0,112.0,12.0,41.0,23.0,29.0,72.0,39.0,-5.0,0.0
270.0,72.0,93.0,-7.0,33.0,17.0,23.0,44.0,48.0,52.0,0.0
405.0,91.0,100.0,-10.0,22.0,8.0,11.0,-3.0,10.0,41.0,0.0
359.0,89.0,16.0,-37.0,-13.0,-13.0,-5.0,0.0,-2.0,-43.0,0.0
228.0,130.0,-36.0,-52.0,-35.0,-36.0,-35.0,40.0,-10.0,-92.0,0.0
116.0,232.0,-35.0,-44.0,-23.0,-41.0,-31.0,70.0,20.0,-45.0,0.0
-104.0,234.0,-29.0,-44.0,-15.0,-26.0,-14.0,72.0,24.0,-57.0,0.0
-315.0,125.0,-45.0,-34.0,-23.0,-13.0,-7.0,44.0,-3.0,-104.0,0.0
-359.0,-49.0,-32.0,-15.0,-8.0,-5.0,-20.0,17.0,-14.0,-103.0,0.0
-354.0,-197.0,-16.0,-9.0,12.0,-15.0,-10.0,31.0,42.0,-23.0,0.0
-356.0,-339.0,-78.0,-32.0,2.0,-15.0,8.0,56.0,107.0,75.0,0.0
-361.0,-353.0,-139.0,-41.0,-6.0,6.0,43.0,56.0,117.0,88.0,0.0
-235.0,-212.0,-116.0,-24.0,3.0,23.0,39.0,53.0,91.0,65.0,0.0
-137.0,-54.0,-48.0,-5.0,22.0,20.0,40.0,35.0,68.0,17.0,0.0
-130.0,-12.0,-3.0,22.0,41.0,29.0,38.0,23.0,41.0,-42.0,0.0
-97.0,-40.0,1.0,36.0,57.0,29.0,52.0,23.0,13.0,-80.0,0.0
8.0,-55.0,-12.0,39.0,52.0,26.0,77.0,17.0,10.0,-84.0,0.0
37.0,-77.0,0.0,35.0,36.0,15.0,70.0,7.0,18.0,-62.0,0.0
-3.0,-53.0,10.0,21.0,6.0,-10.0,40.0,-13.0,18.0,-55.0,0.0
-22.0,120.0,9.0,9.0,-7.0,-20.0,28.0,-12.0,23.0,-30.0,0.0
-63.0,238.0,16.0,13.0,-7.0,-10.0,17.0,-11.0,29.0,4.0,0.0
-47.0,237.0,31.0,41.0,-1.0,-1.0,13.0,-10.0,26.0,27.0,0.0
-2.0,128.0,36.0,54.0,10.0,-3.0,12.0,-18.0,10.0,13.0,0.0
51.0,-14.0,44.0,40.0,16.0,-15.0,-12.0,-32.0,-34.0,-14.0,0.0
75.0,-109.0,53.0,20.0,14.0,-22.0,-15.0,-37.0,-48.0,-29.0,0.0
3.0,-210.0,9.0,14.0,4.0,-20.0,-5.0,-19.0,-32.0,-18.0,0.0
-115.0,-276.0,-21.0,32.0,17.0,0.0,21.0,-7.0,-49.0,-57.0,0.0
-168.0,-227.0,-31.0,50.0,44.0,30.0,26.0,-6.0,-55.0,-68.0,0.0
-43.0,-113.0,-52.0,27.0,12.0,14.0,11.0,-24.0,-21.0,36.0,0.0
186.0,26.0,-79.0,-30.0,-42.0,-27.0,-1.0,-13.0,58.0,189.0,0.0
249.0,119.0,-71.0,-44.0,-53.0,-39.0,2.0,1.0,95.0,233.0,0.0
162.0,142.0,-40.0,-11.0,-30.0,-11.0,27.0,9.0,70.0,163.0,0.0
27.0,88.0,-20.0,9.0,-7.0,6.0,26.0,3.0,41.0,93.0,0.0
-129.0,13.0,-26.0,12.0,5.0,1.0,20.0,5.0,23.0,38.0,0.0
-159.0,5.0,-9.0,16.0,0.0,-12.0,7.0,-12.0,-15.0,-20.0,0.0
-79.0,-12.0,22.0,22.0,7.0,-18.0,-17.0,-25.0,-48.0,-43.0,0.0
-40.0,-5.0,35.0,32.0,16.0,-25.0,-4.0,-26.0,-34.0,-22.0,0.0
-64.0,12.0,33.0,32.0,17.0,-22.0,11.0,-13.0,0.0,23.0,0.0
-43.0,48.0,47.0,29.0,11.0,-22.0,29.0,-8.0,11.0,28.0,0.0
-16.0,89.0,66.0,32.0,15.0,-13.0,35.0,-11.0,0.0,-7.0,0.0
-13.0,91.0,71.0,41.0,27.0,-5.0,26.0,-7.0,-20.0,-34.0,0.0
-22.0,5.0,30.0,48.0,29.0,11.0,38.0,0.0,-5.0,-38.0,0.0
-40.0,-105.0,10.0,29.0,24.0,15.0,32.0,-13.0,-12.0,-53.0,0.0
-29.0,-152.0,-5.0,11.0,13.0,-13.0,5.0,-27.0,-9.0,-33.0,0.0
1.0,-115.0,-33.0,6.0,2.0,-22.0,-1.0,-25.0,-13.0,-2.0,0.0
19.0,-46.0,-20.0,-2.0,-7.0,-20.0,-5.0,-29.0,-18.0,11.0,0.0
42.0,11.0,3.0,-5.0,-14.0,-25.0,-14.0,-29.0,-13.0,48.0,0.0
57.0,55.0,12.0,8.0,-2.0,-25.0,6.0,-10.0,-4.0,45.0,0.0
54.0,73.0,8.0,15.0,2.0,-7.0,4.0,0.0,-11.0,-8.0,0.0
48.0,81.0,15.0,15.0,5.0,8.0,6.0,-15.0,-8.0,-45.0,0.0
33.0,50.0,39.0,12.0,10.0,18.0,10.0,-28.0,-14.0,-60.0,0.0
22.0,-2.0,46.0,23.0,16.0,13.0,4.0,-14.0,-21.0,-67.0,0.0
39.0,15.0,47.0,36.0,5.0,5.0,4.0,-18.0,-24.0,-63.0,0.0
45.0,30.0,34.0,29.0,-2.0,2.0,-7.0,-34.0,-22.0,-52.0,0.0
76.0,38.0,1.0,18.0,-6.0,-9.0,-19.0,-37.0,-28.0,-24.0,0.0
128.0,109.0,-1.0,6.0,-6.0,-17.0,-28.0,-44.0,-21.0,-11.0,0.0
187.0,157.0,30.0,-2.0,-4.0,-24.0,-21.0,-53.0,-23.0,-50.0,0.0
273.0,142.0,62.0,-12.0,-24.0,-44.0,-39.0,-66.0,-35.0,-20.0,0.0
301.0,148.0,67.0,-36.0,-56.0,-85.0,-68.0,-95.0,-57.0,47.0,0.0
245.0,186.0,30.0,-47.0,-79.0,-95.0,-74.0,-102.0,-51.0,47.0,0.0
166.0,229.0,-2.0,-62.0,-76.0,-72.0,-47.0,-77.0,-50.0,6.0,0.0
176.0,225.0,-3.0,-67.0,-61.0,-50.0,-41.0,-70.0,-68.0,-36.0,0.0
259.0,251.0,43.0,-42.0,-42.0,-41.0,-42.0,-74.0,-81.0,-62.0,0.0
279.0,316.0,105.0,-4.0,-9.0,-23.0,-21.0,-61.0,-87.0,-50.0,0.0
288.0,275.0,106.0,-3.0,2.0,-18.0,-17.0,-42.0,-43.0,43.0,0.0
262.0,90.0,39.0,-20.0,-7.0,-21.0,-20.0,-15.0,0.0,140.0,0.0
10.0,-92.0,-20.0,-25.0,9.0,16.0,0.0,-1.0,13.0,88.0,0.0
-10.0,11.0,-20.0,-26.0,14.0,29.0,-17.0,-13.0,-3.0,7.0,0.0
267.0,360.0,49.0,-6.0,-2.0,1.0,-44.0,-37.0,-33.0,-5.0,0.0
270.0,437.0,89.0,15.0,9.0,3.0,-38.0,-43.0,-39.0,-27.0,0.0
59.0,163.0,36.0,17.0,18.0,30.0,-24.0,-29.0,-16.0,-30.0,0.0
-76.0,-98.0,0.0,-4.0,4.0,20.0,-36.0,-22.0,3.0,25.0,0.0
-116.0,-81.0,-7.0,-17.0,0.0,22.0,-36.0,-18.0,6.0,11.0,0.0
-85.0,89.0,36.0,3.0,19.0,23.0,-34.0,-37.0,-22.0,-74.0,0.0
-23.0,79.0,40.0,31.0,51.0,56.0,-19.0,-29.0,-41.0,-76.0,0.0
-36.0,-85.0,-7.0,27.0,74.0,93.0,29.0,4.0,-25.0,-58.0,0.0
-70.0,-134.0,-50.0,3.0,60.0,81.0,35.0,8.0,-2.0,-69.0,0.0
-188.0,-100.0,-41.0,15.0,60.0,73.0,24.0,-10.0,-24.0,-142.0,0.0
-248.0,-60.0,-17.0,48.0,98.0,93.0,34.0,-36.0,-72.0,-256.0,0.0
-26.0,31.0,-6.0,37.0,77.0,94.0,21.0,-24.0,-59.0,-245.0,0.0
441.0,160.0,20.0,0.0,-8.0,13.0,-29.0,-22.0,0.0,-12.0,0.0
751.0,177.0,33.0,-21.0,-44.0,-29.0,-53.0,-39.0,31.0,171.0,0.0
609.0,28.0,25.0,38.0,24.0,46.0,-3.0,-32.0,0.0,144.0,0.0
388.0,-123.0,51.0,81.0,67.0,82.0,5.0,-80.0,-90.0,-7.0,0.0
218.0,-172.0,84.0,69.0,64.0,60.0,-35.0,-151.0,-177.0,-145.0,0.0
151.0,-59.0,78.0,42.0,56.0,49.0,-62.0,-182.0,-144.0,-61.0,0.0
46.0,110.0,59.0,14.0,10.0,4.0,-97.0,-219.0,-45.0,217.0,0.0
-59.0,330.0,74.0,25.0,-10.0,-13.0,-76.0,-155.0,62.0,410.0,0.0
-291.0,474.0,87.0,64.0,17.0,35.0,-33.0,-53.0,108.0,368.0,0.0
-494.0,398.0,68.0,71.0,45.0,74.0,2.0,-35.0,50.0,192.0,0.0
-397.0,182.0,14.0,50.0,44.0,83.0,12.0,-54.0,-13.0,27.0,0.0
-218.0,0.0,-2.0,33.0,35.0,55.0,12.0,-6.0,17.0,20.0,0.0
-230.0,-217.0,-62.0,-25.0,-44.0,-3.0,-9.0,141.0,156.0,88.0,0.0
-387.0,-605.0,-176.0,-92.0,-107.0,-36.0,-11.0,250.0,283.0,130.0,0.0
-338.0,-760.0,-242.0,-97.0,-83.0,-10.0,8.0,282.0,264.0,165.0,0.0
-162.0,-545.0,-189.0,-58.0,-32.0,24.0,20.0,219.0,155.0,144.0,0.0
35.0,-296.0,-67.0,8.0,-8.0,17.0,-19.0,68.0,21.0,58.0,0.0
173.0,-67.0,37.0,72.0,3.0,2.0,-52.0,-44.0,-70.0,-2.0,0.0
100.0,36.0,40.0,81.0,19.0,23.0,-25.0,-55.0,-72.0,-26.0,0.0
-130.0,-135.0,-57.0,39.0,20.0,52.0,14.0,32.0,29.0,-45.0,0.0
-310.0,-456.0,-156.0,-2.0,4.0,27.0,22.0,111.0,127.0,-60.0,0.0
-413.0,-712.0,-128.0,25.0,32.0,48.0,17.0,30.0,78.0,-77.0,0.0
-319.0,-659.0,-20.0,117.0,111.0,120.0,48.0,-68.0,-54.0,-35.0,0.0
-242.0,-458.0,-15.0,132.0,134.0,145.0,83.0,-73.0,-61.0,39.0,0.0
-336.0,-406.0,-69.0,78.0,102.0,138.0,106.0,-4.0,-7.0,72.0,0.0
-348.0,-359.0,-95.0,20.0,41.0,83.0,81.0,8.0,-1.0,43.0,0.0
-254.0,-149.0,-59.0,-35.0,-43.0,-25.0,-5.0,-25.0,-29.0,-50.0,0.0
-271.0,53.0,-60.0,-69.0,-96.0,-84.0,-28.0,19.0,-16.0,-128.0,0.0
