channel0,channel1,channel2,channel3,channel4,channel5,channel6,channel7,channel8,channel9,true_locs
20.0,9.0,-41.0,-29.0,-72.0,-53.0,-41.0,5.0,-51.0,-13.0,0.0
14.0,-2.0,38.0,-32.0,-53.0,-42.0,-42.0,-10.0,-64.0,-22.0,0.0
17.0,5.0,55.0,-28.0,-47.0,-48.0,-44.0,-17.0,-54.0,-28.0,0.0
25.0,14.0,37.0,-24.0,-49.0,-39.0,-37.0,-14.0,-32.0,-11.0,0.0
22.0,19.0,-41.0,-18.0,-33.0,-3.0,-24.0,1.0,-26.0,-15.0,0.0
4.0,-1.0,-25.0,-4.0,8.0,42.0,-23.0,-9.0,-16.0,-32.0,0.0
-21.0,-25.0,-11.0,-3.0,37.0,81.0,-14.0,-23.0,-10.0,-41.0,0.0
-23.0,-13.0,10.0,-12.0,30.0,91.0,-17.0,-40.0,-17.0,-38.0,0.0
-22.0,-7.0,34.0,-17.0,24.0,80.0,-27.0,-53.0,-24.0,-35.0,0.0
-10.0,12.0,11.0,-12.0,16.0,54.0,-20.0,-50.0,-11.0,-30.0,0.0
-8.0,5.0,13.0,-16.0,1.0,37.0,-22.0,-31.0,2.0,-27.0,0.0
-3.0,4.0,25.0,-34.0,-6.0,3.0,-22.0,-12.0,-6.0,-11.0,0.0
10.0,9.0,25.0,-35.0,-1.0,-48.0,0.0,16.0,9.0,8.0,0.0
14.0,3.0,29.0,-29.0,25.0,-36.0,9.0,39.0,19.0,17.0,0.0
11.0,-2.0,23.0,-17.0,31.0,-28.0,1.0,25.0,-1.0,19.0,0.0
19.0,0.0,21.0,-14.0,-20.0,-42.0,9.0,33.0,-1.0,36.0,0.0
36.0,10.0,27.0,-16.0,-71.0,-46.0,10.0,42.0,-2.0,43.0,0.0
11.0,7.0,13.0,-21.0,-57.0,-33.0,10.0,35.0,3.0,32.0,0.0
-10.0,0.0,6.0,-26.0,-35.0,-15.0,14.0,30.0,-2.0,25.0,0.0
-17.0,-8.0,15.0,-8.0,-30.0,-19.0,0.0,6.0,-21.0,9.0,0.0
-17.0,-20.0,14.0,-3.0,-20.0,-11.0,9.0,9.0,-33.0,12.0,0.0
-15.0,-27.0,6.0,-5.0,-8.0,19.0,16.0,8.0,-45.0,19.0,0.0
-38.0,-35.0,1.0,2.0,5.0,62.0,9.0,-8.0,-59.0,6.0,0.0
-53.0,-33.0,0.0,6.0,9.0,90.0,4.0,-17.0,-71.0,-12.0,0.0
-25.0,-26.0,-2.0,10.0,20.0,80.0,8.0,-20.0,-59.0,-31.0,0.0
-3.0,-10.0,4.0,27.0,34.0,62.0,21.0,-24.0,-23.0,-27.0,0.0
1.0,0.0,-25.0,27.0,42.0,64.0,46.0,-15.0,10.0,-1.0,0.0
2.0,10.0,-127.0,13.0,13.0,38.0,56.0,3.0,35.0,9.0,0.0
5.0,23.0,-94.0,-8.0,-20.0,-20.0,51.0,20.0,51.0,17.0,0.0
8.0,27.0,14.0,-13.0,-32.0,-41.0,21.0,27.0,33.0,22.0,0.0
22.0,19.0,39.0,9.0,-20.0,-27.0,2.0,18.0,27.0,24.0,0.0
12.0,24.0,41.0,0.0,-12.0,-9.0,28.0,16.0,19.0,8.0,0.0
11.0,11.0,30.0,-21.0,-10.0,-6.0,31.0,6.0,11.0,-1.0,0.0
3.0,11.0,19.0,-23.0,-9.0,-13.0,10.0,0.0,-16.0,-3.0,0.0
0.0,21.0,14.0,-11.0,-13.0,-35.0,-25.0,-23.0,-44.0,-3.0,0.0
-14.0,17.0,21.0,9.0,-21.0,-51.0,-71.0,-50.0,-56.0,-10.0,0.0
-16.0,23.0,39.0,23.0,-9.0,-35.0,-70.0,-47.0,-45.0,6.0,0.0
-12.0,24.0,37.0,24.0,19.0,0.0,-42.0,-26.0,-39.0,9.0,0.0
-14.0,8.0,22.0,2.0,36.0,57.0,-8.0,-20.0,-38.0,-16.0,0.0
-32.0,-11.0,10.0,-3.0,48.0,88.0,13.0,-23.0,-51.0,-34.0,0.0
-43.0,-14.0,-24.0,22.0,75.0,90.0,-3.0,-36.0,-67.0,-37.0,0.0
-31.0,-14.0,-26.0,21.0,62.0,95.0,-18.0,-36.0,-78.0,-25.0,0.0
-15.0,-5.0,10.0,3.0,30.0,59.0,-22.0,-40.0,-71.0,-10.0,0.0
-11.0,12.0,19.0,-16.0,-12.0,2.0,-29.0,-40.0,-19.0,0.0,0.0
25.0,15.0,13.0,-18.0,-45.0,-30.0,-8.0,-12.0,19.0,8.0,0.0
40.0,27.0,23.0,5.0,-46.0,-51.0,13.0,3.0,21.0,15.0,0.0
37.0,3.0,33.0,6.0,-41.0,-55.0,17.0,6.0,16.0,10.0,0.0
27.0,0.0,25.0,6.0,-24.0,-19.0,10.0,10.0,38.0,15.0,0.0
39.0,0.0,23.0,5.0,-1.0,3.0,-3.0,11.0,43.0,25.0,0.0
29.0,-2.0,19.0,-7.0,12.0,23.0,-11.0,3.0,43.0,14.0,0.0
17.0,-2.0,16.0,-26.0,14.0,36.0,-15.0,-20.0,12.0,0.0,0.0
6.0,6.0,24.0,-17.0,-7.0,1.0,-29.0,-27.0,1.0,9.0,0.0
8.0,9.0,28.0,-19.0,-29.0,-7.0,-23.0,-25.0,21.0,8.0,0.0
-6.0,-26.0,4.0,-30.0,-38.0,18.0,5.0,-10.0,6.0,-18.0,0.0
-35.0,-39.0,-29.0,-50.0,-39.0,30.0,21.0,8.0,-26.0,-39.0,0.0
-44.0,-37.0,-36.0,-55.0,-30.0,47.0,17.0,-15.0,-43.0,-46.0,0.0
-35.0,-31.0,-14.0,-31.0,-13.0,44.0,-14.0,-47.0,-58.0,-54.0,0.0
-24.0,-28.0,0.0,4.0,6.0,54.0,-39.0,-48.0,-52.0,-38.0,0.0
-20.0,-26.0,-2.0,21.0,28.0,55.0,-37.0,-42.0,-50.0,-29.0,0.0
-34.0,-16.0,4.0,25.0,38.0,44.0,-36.0,-28.0,-34.0,-25.0,0.0
-21.0,-19.0,6.0,15.0,36.0,23.0,-23.0,-6.0,-23.0,-17.0,0.0
-2.0,-3.0,-3.0,4.0,8.0,-11.0,-12.0,3.0,-6.0,1.0,0.0
4.0,0.0,-29.0,-6.0,-6.0,-26.0,2.0,-2.0,0.0,11.0,0.0
10.0,8.0,-21.0,-9.0,-4.0,-34.0,22.0,0.0,12.0,5.0,0.0
14.0,3.0,-14.0,1.0,-13.0,-37.0,31.0,7.0,24.0,8.0,0.0
7.0,10.0,-7.0,1.0,-6.0,-32.0,14.0,-6.0,40.0,1.0,0.0
-12.0,6.0,8.0,3.0,4.0,-24.0,-4.0,-21.0,39.0,-9.0,0.0
-14.0,11.0,15.0,3.0,-4.0,-16.0,16.0,-22.0,45.0,-4.0,0.0
-1.0,16.0,7.0,-18.0,-20.0,-8.0,33.0,-8.0,52.0,0.0,0.0
-8.0,6.0,0.0,-15.0,-15.0,9.0,42.0,15.0,30.0,-12.0,0.0
5.0,11.0,-13.0,-11.0,-9.0,11.0,37.0,12.0,41.0,-13.0,0.0
7.0,25.0,-73.0,-4.0,-1.0,11.0,14.0,3.0,36.0,-1.0,0.0
2.0,17.0,-30.0,-7.0,19.0,65.0,22.0,-1.0,24.0,8.0,0.0
-8.0,6.0,9.0,0.0,25.0,74.0,12.0,0.0,3.0,-7.0,0.0
-20.0,5.0,0.0,-3.0,13.0,84.0,6.0,1.0,0.0,-18.0,0.0
-15.0,-1.0,-10.0,-21.0,1.0,75.0,3.0,1.0,-9.0,-24.0,0.0
-21.0,-4.0,-20.0,-28.0,-10.0,64.0,46.0,-5.0,-16.0,-19.0,0.0
-20.0,-11.0,-12.0,-32.0,-22.0,35.0,80.0,0.0,-18.0,-18.0,0.0
-2.0,2.0,-4.0,-37.0,-36.0,-35.0,70.0,13.0,-13.0,-4.0,0.0
-2.0,4.0,4.0,-33.0,-29.0,-63.0,62.0,13.0,-11.0,15.0,0.0
-2.0,4.0,13.0,-15.0,-36.0,-68.0,19.0,4.0,7.0,18.0,0.0
-11.0,10.0,15.0,-3.0,-42.0,-71.0,-21.0,2.0,20.0,21.0,0.0
-3.0,8.0,14.0,-5.0,-14.0,-56.0,-47.0,-14.0,20.0,13.0,0.0
19.0,14.0,7.0,7.0,-4.0,-22.0,-59.0,-29.0,33.0,20.0,0.0
21.0,37.0,10.0,37.0,9.0,-11.0,-48.0,-20.0,53.0,26.0,0.0
23.0,54.0,37.0,36.0,5.0,-20.0,-65.0,-27.0,49.0,22.0,0.0
14.0,33.0,21.0,7.0,9.0,-14.0,-75.0,-37.0,38.0,9.0,0.0
-11.0,0.0,-4.0,0.0,60.0,29.0,-37.0,-37.0,22.0,-8.0,0.0
-38.0,-18.0,-5.0,14.0,82.0,68.0,-37.0,-33.0,-9.0,-24.0,0.0
-60.0,-46.0,-18.0,25.0,98.0,118.0,-15.0,-24.0,-35.0,-45.0,0.0
-64.0,-54.0,-30.0,2.0,66.0,136.0,29.0,-7.0,-44.0,-59.0,0.0
-30.0,-34.0,-4.0,6.0,17.0,81.0,33.0,7.0,-34.0,-24.0,0.0
0.0,-2.0,5.0,-19.0,-27.0,8.0,4.0,23.0,-17.0,18.0,0.0
24.0,33.0,10.0,-42.0,-57.0,-56.0,-17.0,36.0,10.0,56.0,0.0
46.0,27.0,20.0,-24.0,-55.0,-97.0,-22.0,36.0,32.0,69.0,0.0
42.0,10.0,25.0,-18.0,-42.0,-122.0,-3.0,38.0,21.0,53.0,0.0
44.0,1.0,17.0,-14.0,-49.0,-118.0,-12.0,32.0,20.0,43.0,0.0
40.0,0.0,12.0,-28.0,-55.0,-104.0,-12.0,21.0,8.0,41.0,0.0
35.0,0.0,5.0,-39.0,-55.0,-96.0,-5.0,26.0,-3.0,43.0,0.0
27.0,-9.0,-10.0,-37.0,-68.0,-87.0,-2.0,28.0,-7.0,42.0,0.0
13.0,-5.0,-59.0,-24.0,-76.0,-76.0,-9.0,17.0,-4.0,34.0,1.0
-2.0,-4.0,-39.0,-20.0,-39.0,-46.0,-9.0,9.0,-9.0,28.0,1.0
-4.0,-1.0,7.0,-7.0,-14.0,-33.0,6.0,12.0,1.0,27.0,1.0
-1.0,20.0,-1.0,-2.0,-1.0,-9.0,36.0,3.0,15.0,21.0,1.0
-7.0,17.0,-1.0,-2.0,18.0,30.0,68.0,2.0,14.0,6.0,1.0
-15.0,12.0,0.0,4.0,48.0,53.0,84.0,-10.0,6.0,-15.0,1.0
-10.0,3.0,10.0,19.0,71.0,68.0,59.0,-26.0,-9.0,-22.0,1.0
-13.0,6.0,17.0,36.0,67.0,75.0,34.0,-30.0,15.0,-22.0,1.0
-9.0,15.0,15.0,33.0,52.0,59.0,17.0,-29.0,28.0,-10.0,1.0
-1.0,27.0,5.0,25.0,46.0,37.0,8.0,-29.0,26.0,1.0,1.0
2.0,24.0,-32.0,14.0,44.0,9.0,16.0,-15.0,29.0,2.0,1.0
6.0,22.0,8.0,11.0,44.0,-12.0,24.0,5.0,28.0,8.0,1.0
2.0,7.0,15.0,15.0,36.0,-34.0,31.0,23.0,15.0,19.0,1.0
3.0,0.0,-22.0,9.0,32.0,-48.0,35.0,25.0,1.0,26.0,1.0
8.0,-5.0,-107.0,-5.0,44.0,-49.0,27.0,26.0,-1.0,16.0,1.0
14.0,-14.0,-55.0,3.0,50.0,-50.0,0.0,27.0,-14.0,10.0,1.0
21.0,-9.0,-7.0,6.0,32.0,-49.0,-18.0,18.0,-27.0,5.0,1.0
31.0,-3.0,-85.0,0.0,-18.0,-47.0,-20.0,20.0,-38.0,17.0,1.0
39.0,3.0,-105.0,2.0,-74.0,-53.0,-20.0,11.0,-28.0,28.0,0.0
16.0,12.0,-2.0,14.0,-61.0,-41.0,-9.0,8.0,-25.0,21.0,0.0
6.0,2.0,19.0,12.0,-30.0,-7.0,-6.0,10.0,-24.0,8.0,0.0
3.0,-16.0,11.0,10.0,4.0,37.0,-23.0,15.0,-28.0,-6.0,0.0
-6.0,-22.0,0.0,20.0,45.0,78.0,-23.0,1.0,-34.0,-14.0,0.0
-10.0,-31.0,24.0,25.0,92.0,95.0,-34.0,-26.0,-37.0,-17.0,0.0
-12.0,-23.0,35.0,23.0,131.0,112.0,-43.0,-32.0,-28.0,-19.0,0.0
-4.0,-14.0,33.0,15.0,118.0,98.0,-40.0,-22.0,-9.0,-11.0,0.0
-2.0,-8.0,25.0,19.0,86.0,77.0,-19.0,-9.0,9.0,-24.0,0.0
13.0,5.0,31.0,28.0,34.0,23.0,-18.0,-9.0,23.0,-8.0,0.0
30.0,19.0,36.0,32.0,-7.0,-26.0,-28.0,-18.0,29.0,6.0,0.0
42.0,37.0,24.0,19.0,-47.0,-54.0,-17.0,0.0,40.0,5.0,0.0
52.0,18.0,-60.0,-2.0,-89.0,-67.0,-2.0,23.0,45.0,23.0,0.0
50.0,28.0,-96.0,-15.0,-90.0,-56.0,10.0,31.0,36.0,30.0,0.0
41.0,14.0,-2.0,-15.0,-78.0,-44.0,28.0,25.0,11.0,25.0,0.0
30.0,-7.0,34.0,0.0,-54.0,-45.0,41.0,20.0,14.0,17.0,0.0
17.0,-9.0,20.0,2.0,-48.0,-37.0,39.0,27.0,11.0,4.0,0.0
18.0,0.0,12.0,1.0,-39.0,-20.0,30.0,27.0,-12.0,1.0,0.0
17.0,0.0,9.0,-5.0,-20.0,-7.0,38.0,22.0,-17.0,-4.0,0.0
8.0,-12.0,18.0,0.0,3.0,15.0,41.0,16.0,-25.0,-6.0,0.0
-3.0,-19.0,19.0,8.0,20.0,55.0,17.0,0.0,-27.0,0.0,0.0
-11.0,-26.0,18.0,14.0,35.0,71.0,4.0,-14.0,-18.0,-12.0,0.0
-7.0,-21.0,21.0,30.0,46.0,83.0,10.0,-12.0,-8.0,-8.0,0.0
5.0,-3.0,7.0,43.0,47.0,72.0,12.0,-8.0,0.0,4.0,0.0
13.0,5.0,-69.0,48.0,50.0,51.0,21.0,-11.0,28.0,5.0,0.0
11.0,12.0,-125.0,40.0,35.0,45.0,18.0,-17.0,35.0,1.0,0.0
34.0,5.0,-54.0,12.0,9.0,20.0,63.0,-8.0,28.0,1.0,0.0
47.0,4.0,15.0,-8.0,-8.0,-27.0,78.0,3.0,38.0,3.0,0.0
49.0,11.0,29.0,-11.0,-33.0,-66.0,6.0,1.0,32.0,7.0,0.0
48.0,8.0,33.0,-7.0,-46.0,-70.0,-6.0,14.0,23.0,13.0,0.0
52.0,3.0,-42.0,1.0,-27.0,-53.0,-22.0,13.0,24.0,10.0,0.0
49.0,2.0,-121.0,-7.0,-9.0,-15.0,-8.0,11.0,6.0,14.0,0.0
41.0,0.0,-26.0,-16.0,-3.0,16.0,8.0,19.0,-22.0,12.0,0.0
26.0,-6.0,34.0,-20.0,7.0,23.0,4.0,8.0,-6.0,17.0,0.0
10.0,-13.0,9.0,-17.0,19.0,12.0,-16.0,0.0,-1.0,18.0,0.0
3.0,-11.0,-19.0,-16.0,27.0,3.0,-15.0,-9.0,-11.0,7.0,0.0
-26.0,-26.0,17.0,-19.0,26.0,40.0,13.0,-11.0,-27.0,-11.0,0.0
-57.0,-39.0,18.0,-12.0,26.0,71.0,28.0,0.0,-40.0,-33.0,0.0
-71.0,-39.0,26.0,-6.0,41.0,71.0,21.0,-7.0,-39.0,-36.0,0.0
-60.0,-24.0,32.0,2.0,52.0,84.0,21.0,4.0,-6.0,-34.0,0.0
-49.0,-11.0,34.0,2.0,59.0,76.0,28.0,13.0,25.0,-35.0,0.0
-39.0,-8.0,18.0,9.0,54.0,58.0,35.0,22.0,6.0,-18.0,0.0
-19.0,1.0,30.0,6.0,45.0,3.0,14.0,21.0,7.0,4.0,0.0
-16.0,-1.0,26.0,-10.0,28.0,-31.0,23.0,19.0,11.0,7.0,0.0
-6.0,-4.0,23.0,-12.0,31.0,-21.0,47.0,7.0,-7.0,2.0,0.0
-3.0,5.0,40.0,3.0,27.0,-5.0,16.0,-11.0,-7.0,-14.0,0.0
-1.0,14.0,45.0,16.0,12.0,-12.0,6.0,-19.0,0.0,-10.0,0.0
13.0,28.0,19.0,2.0,14.0,-36.0,23.0,-1.0,5.0,15.0,0.0
11.0,18.0,-73.0,7.0,11.0,-91.0,-3.0,0.0,10.0,32.0,0.0
-2.0,10.0,-39.0,21.0,12.0,-113.0,-28.0,-9.0,-1.0,24.0,0.0
-7.0,-8.0,28.0,14.0,22.0,-72.0,-39.0,-15.0,-27.0,2.0,0.0
0.0,-13.0,27.0,0.0,-3.0,-18.0,-13.0,9.0,-17.0,-7.0,0.0
11.0,-8.0,5.0,-21.0,-24.0,9.0,9.0,24.0,3.0,11.0,0.0
0.0,-11.0,-3.0,-34.0,-28.0,29.0,-4.0,27.0,-1.0,7.0,0.0
-11.0,-28.0,7.0,-21.0,-5.0,64.0,-7.0,25.0,-13.0,-5.0,0.0
-14.0,-21.0,24.0,22.0,25.0,78.0,-5.0,19.0,-18.0,-24.0,0.0
-21.0,-32.0,3.0,17.0,34.0,92.0,-4.0,13.0,-20.0,-41.0,0.0
-16.0,-34.0,-2.0,1.0,30.0,64.0,2.0,0.0,-11.0,-48.0,0.0
0.0,-4.0,9.0,15.0,25.0,8.0,-12.0,-21.0,1.0,-41.0,0.0
18.0,19.0,-30.0,26.0,-2.0,-35.0,-23.0,-23.0,26.0,-18.0,0.0
32.0,19.0,-123.0,7.0,-26.0,-70.0,-20.0,4.0,20.0,-1.0,0.0
38.0,12.0,-82.0,-6.0,-45.0,-80.0,1.0,9.0,25.0,-3.0,0.0
31.0,18.0,22.0,7.0,-63.0,-61.0,10.0,9.0,29.0,5.0,0.0
31.0,37.0,35.0,21.0,-55.0,-38.0,5.0,19.0,18.0,5.0,0.0
15.0,27.0,-62.0,12.0,-46.0,-28.0,26.0,42.0,15.0,19.0,0.0
1.0,28.0,-107.0,14.0,-34.0,-42.0,32.0,33.0,9.0,16.0,0.0
-11.0,12.0,-56.0,10.0,-31.0,-52.0,-18.0,-2.0,-18.0,-5.0,0.0
-16.0,13.0,45.0,5.0,-15.0,-29.0,-52.0,-6.0,-26.0,-9.0,0.0
-15.0,-2.0,55.0,7.0,24.0,8.0,-57.0,-1.0,-27.0,-9.0,0.0
-18.0,-12.0,44.0,9.0,86.0,68.0,-54.0,-7.0,-29.0,-25.0,0.0
-36.0,-31.0,28.0,20.0,123.0,122.0,-55.0,-20.0,-33.0,-42.0,0.0
-60.0,-36.0,7.0,41.0,137.0,143.0,-54.0,-26.0,-29.0,-49.0,0.0
-61.0,-34.0,-36.0,66.0,127.0,131.0,-52.0,-36.0,-20.0,-38.0,0.0
-53.0,-17.0,-8.0,69.0,93.0,69.0,-32.0,-45.0,-15.0,-28.0,0.0
-37.0,2.0,54.0,30.0,6.0,4.0,26.0,-25.0,-3.0,-19.0,0.0
-19.0,12.0,35.0,-14.0,-82.0,-45.0,68.0,7.0,35.0,-5.0,0.0
-18.0,12.0,24.0,-38.0,-107.0,-86.0,47.0,24.0,53.0,13.0,0.0
-19.0,-10.0,23.0,-60.0,-127.0,-67.0,41.0,54.0,56.0,18.0,0.0
0.0,-7.0,16.0,-62.0,-134.0,-67.0,47.0,70.0,66.0,32.0,0.0
21.0,24.0,46.0,-52.0,-131.0,-115.0,23.0,63.0,43.0,45.0,0.0
35.0,27.0,35.0,-46.0,-113.0,-126.0,32.0,39.0,23.0,33.0,0.0
22.0,15.0,-2.0,-36.0,-71.0,-78.0,32.0,25.0,9.0,24.0,0.0
12.0,0.0,3.0,-28.0,-47.0,-39.0,20.0,19.0,17.0,39.0,0.0
19.0,2.0,31.0,-12.0,-33.0,-20.0,22.0,20.0,17.0,36.0,0.0
14.0,-1.0,17.0,-17.0,-26.0,-13.0,16.0,17.0,7.0,22.0,0.0
8.0,-5.0,12.0,-13.0,-12.0,1.0,1.0,5.0,-12.0,5.0,0.0
-2.0,-20.0,35.0,-10.0,1.0,15.0,-15.0,3.0,-41.0,-3.0,0.0
-23.0,-45.0,17.0,-13.0,16.0,55.0,-7.0,1.0,-59.0,-23.0,0.0
-36.0,-56.0,-14.0,-24.0,31.0,105.0,30.0,-13.0,-54.0,-26.0,0.0
-31.0,-53.0,-62.0,-9.0,40.0,98.0,53.0,-19.0,-42.0,-25.0,0.0
-32.0,-29.0,-6.0,-10.0,38.0,79.0,35.0,-26.0,-33.0,-31.0,0.0
-32.0,-3.0,15.0,-15.0,23.0,33.0,20.0,-22.0,-14.0,-26.0,0.0
-9.0,18.0,33.0,-8.0,0.0,-35.0,15.0,-7.0,23.0,6.0,0.0
32.0,38.0,51.0,2.0,-24.0,-73.0,10.0,0.0,61.0,37.0,0.0
47.0,58.0,56.0,11.0,-22.0,-70.0,15.0,0.0,55.0,47.0,0.0
38.0,30.0,42.0,0.0,-12.0,-70.0,1.0,-10.0,12.0,41.0,0.0
18.0,13.0,25.0,-13.0,-4.0,-78.0,-3.0,6.0,17.0,34.0,0.0
9.0,5.0,13.0,-14.0,-2.0,-57.0,28.0,23.0,23.0,36.0,0.0
11.0,10.0,-2.0,-4.0,-2.0,-31.0,36.0,12.0,13.0,28.0,0.0
1.0,-4.0,-77.0,-7.0,10.0,-13.0,29.0,14.0,-7.0,16.0,0.0
-12.0,-21.0,-140.0,-16.0,15.0,-7.0,10.0,18.0,-11.0,9.0,0.0
-11.0,-7.0,-40.0,-11.0,7.0,1.0,5.0,6.0,-2.0,6.0,0.0
-15.0,-4.0,15.0,-9.0,3.0,12.0,-9.0,-11.0,-26.0,4.0,0.0
-21.0,-18.0,18.0,-6.0,17.0,53.0,-21.0,-19.0,-39.0,-2.0,0.0
-16.0,-11.0,17.0,-8.0,29.0,84.0,-21.0,-18.0,-36.0,-11.0,0.0
-16.0,0.0,21.0,-6.0,26.0,60.0,-23.0,-14.0,-31.0,-9.0,0.0
-7.0,1.0,28.0,-8.0,10.0,37.0,-44.0,-32.0,-29.0,-4.0,0.0
3.0,3.0,24.0,13.0,8.0,32.0,-47.0,-40.0,-28.0,-1.0,0.0
-9.0,9.0,16.0,14.0,0.0,12.0,-38.0,-25.0,-25.0,14.0,0.0
-5.0,13.0,21.0,4.0,1.0,-16.0,-43.0,-15.0,-39.0,27.0,0.0
9.0,10.0,19.0,5.0,4.0,-46.0,-41.0,0.0,-19.0,34.0,0.0
6.0,9.0,9.0,-4.0,-2.0,-59.0,-47.0,11.0,8.0,36.0,0.0
15.0,25.0,5.0,-9.0,-6.0,-52.0,-50.0,7.0,6.0,35.0,0.0
17.0,19.0,13.0,-2.0,11.0,-61.0,-44.0,1.0,8.0,24.0,0.0
16.0,13.0,27.0,24.0,21.0,-65.0,-48.0,-8.0,26.0,16.0,0.0
23.0,17.0,34.0,38.0,25.0,-55.0,-58.0,-4.0,34.0,12.0,0.0
10.0,15.0,30.0,19.0,-9.0,-26.0,-12.0,8.0,40.0,11.0,0.0
-21.0,-4.0,13.0,-8.0,-72.0,4.0,74.0,36.0,49.0,-3.0,0.0
-29.0,-6.0,6.0,-16.0,-83.0,14.0,90.0,39.0,47.0,-9.0,0.0
-21.0,-11.0,12.0,-9.0,-40.0,45.0,40.0,23.0,50.0,-15.0,0.0
-33.0,-12.0,19.0,12.0,4.0,79.0,9.0,-1.0,28.0,-20.0,0.0
-36.0,-11.0,13.0,11.0,32.0,92.0,-2.0,-18.0,18.0,-36.0,0.0
-29.0,-6.0,9.0,12.0,36.0,98.0,-2.0,-22.0,-5.0,-29.0,0.0
-30.0,-18.0,11.0,4.0,25.0,94.0,2.0,-5.0,5.0,-29.0,0.0
-27.0,-24.0,5.0,-18.0,7.0,68.0,14.0,7.0,-1.0,-18.0,0.0
-15.0,-16.0,-13.0,-16.0,-12.0,26.0,14.0,20.0,-12.0,3.0,0.0
14.0,0.0,-80.0,-20.0,-24.0,-24.0,9.0,33.0,2.0,6.0,0.0
21.0,6.0,-31.0,-22.0,-36.0,-53.0,14.0,33.0,0.0,15.0,0.0
21.0,10.0,43.0,-10.0,-36.0,-59.0,2.0,29.0,-11.0,26.0,0.0
20.0,10.0,33.0,-7.0,-39.0,-67.0,-1.0,17.0,-7.0,19.0,0.0
17.0,7.0,34.0,3.0,-35.0,-58.0,-5.0,2.0,-24.0,16.0,0.0
20.0,5.0,27.0,0.0,-33.0,-51.0,-19.0,2.0,-22.0,13.0,0.0
21.0,1.0,0.0,1.0,-21.0,-57.0,-21.0,-4.0,-18.0,2.0,0.0
9.0,-1.0,-82.0,7.0,-10.0,-28.0,-26.0,6.0,0.0,-9.0,0.0
-7.0,-2.0,-39.0,10.0,5.0,4.0,-5.0,20.0,15.0,-17.0,0.0
-13.0,0.0,26.0,3.0,9.0,23.0,-5.0,7.0,38.0,-19.0,0.0
-12.0,3.0,22.0,17.0,15.0,44.0,-49.0,-4.0,36.0,-10.0,0.0
-23.0,0.0,23.0,29.0,14.0,47.0,-70.0,-5.0,24.0,-6.0,0.0
-49.0,-22.0,6.0,14.0,13.0,59.0,-20.0,0.0,6.0,-41.0,0.0
-63.0,-54.0,-20.0,-14.0,24.0,50.0,25.0,23.0,2.0,-68.0,0.0
-43.0,-43.0,-16.0,-16.0,21.0,39.0,15.0,22.0,2.0,-53.0,0.0
-15.0,-26.0,-6.0,-20.0,5.0,23.0,-2.0,5.0,-9.0,-39.0,0.0
8.0,8.0,11.0,-2.0,2.0,-20.0,-9.0,1.0,8.0,-15.0,0.0
35.0,24.0,14.0,9.0,-14.0,-64.0,-33.0,2.0,14.0,6.0,0.0
41.0,10.0,9.0,-3.0,-36.0,-94.0,-37.0,13.0,0.0,10.0,0.0
44.0,5.0,7.0,1.0,-16.0,-102.0,-60.0,10.0,-6.0,10.0,0.0
52.0,3.0,2.0,19.0,11.0,-75.0,-70.0,3.0,-22.0,4.0,0.0
35.0,-5.0,-17.0,4.0,23.0,-34.0,-50.0,7.0,-30.0,-6.0,0.0
-1.0,-27.0,-31.0,-5.0,34.0,-11.0,-23.0,9.0,-40.0,-35.0,0.0
-11.0,-32.0,-26.0,-10.0,42.0,-7.0,1.0,0.0,-39.0,-36.0,0.0
-1.0,-17.0,-11.0,-7.0,28.0,-11.0,-5.0,-6.0,-34.0,-30.0,0.0
7.0,-10.0,2.0,12.0,34.0,-8.0,-20.0,-8.0,-28.0,-37.0,0.0
6.0,4.0,22.0,27.0,46.0,-4.0,-7.0,-14.0,-19.0,-44.0,0.0
-4.0,10.0,16.0,12.0,46.0,28.0,26.0,-7.0,4.0,-44.0,0.0
-21.0,-13.0,-18.0,-22.0,26.0,80.0,66.0,3.0,11.0,-40.0,0.0
-26.0,-34.0,-35.0,-26.0,11.0,122.0,96.0,12.0,10.0,-41.0,0.0
-10.0,-21.0,-24.0,-15.0,-13.0,107.0,46.0,23.0,28.0,-48.0,0.0
8.0,-7.0,-42.0,-4.0,-73.0,52.0,-4.0,18.0,23.0,-35.0,0.0
26.0,2.0,-49.0,-1.0,-116.0,-19.0,-38.0,12.0,23.0,-3.0,0.0
25.0,9.0,8.0,-19.0,-95.0,-58.0,-53.0,-3.0,-5.0,8.0,0.0
35.0,15.0,12.0,-31.0,-84.0,-90.0,-31.0,-13.0,-15.0,11.0,0.0
52.0,9.0,12.0,-28.0,-78.0,-96.0,-32.0,-12.0,-8.0,23.0,0.0
53.0,7.0,19.0,-11.0,-61.0,-86.0,-63.0,-17.0,-24.0,27.0,0.0
32.0,-1.0,-19.0,1.0,-43.0,-67.0,-29.0,-16.0,-52.0,0.0,0.0
19.0,-9.0,-66.0,-7.0,-46.0,-70.0,10.0,-16.0,-60.0,-23.0,0.0
14.0,-11.0,-94.0,-23.0,-58.0,-77.0,-9.0,-8.0,-62.0,-23.0,0.0
1.0,-1.0,-123.0,-20.0,-35.0,-43.0,-29.0,-1.0,-53.0,-23.0,0.0
-9.0,-4.0,-67.0,0.0,-16.0,-22.0,-34.0,-2.0,-46.0,-26.0,0.0
-18.0,-16.0,16.0,1.0,-8.0,-2.0,-28.0,-4.0,-49.0,-25.0,0.0
-44.0,-18.0,-18.0,13.0,13.0,50.0,-11.0,-5.0,-51.0,-31.0,0.0
-74.0,-28.0,0.0,26.0,46.0,105.0,12.0,0.0,-25.0,-41.0,0.0
-85.0,-28.0,-1.0,28.0,77.0,138.0,25.0,-4.0,-3.0,-44.0,0.0
-81.0,-20.0,-38.0,27.0,86.0,150.0,35.0,-11.0,20.0,-33.0,0.0
-64.0,-8.0,28.0,24.0,76.0,135.0,43.0,-12.0,33.0,-30.0,0.0
-35.0,-8.0,40.0,25.0,57.0,79.0,29.0,-3.0,21.0,-29.0,0.0
-12.0,3.0,45.0,33.0,13.0,-1.0,11.0,10.0,13.0,-7.0,0.0
0.0,11.0,25.0,18.0,-16.0,-58.0,1.0,19.0,13.0,-1.0,0.0
-7.0,9.0,-63.0,-6.0,-28.0,-74.0,-2.0,9.0,7.0,-15.0,0.0
-11.0,-6.0,-41.0,-5.0,-15.0,-56.0,-15.0,-17.0,-4.0,-20.0,0.0
-4.0,-2.0,14.0,-1.0,-9.0,-33.0,-17.0,-23.0,-16.0,-19.0,0.0
-1.0,13.0,26.0,6.0,9.0,-10.0,-14.0,-14.0,-17.0,-7.0,0.0
3.0,21.0,35.0,12.0,37.0,-7.0,-5.0,-14.0,-18.0,11.0,0.0
-1.0,13.0,32.0,11.0,45.0,-17.0,-12.0,-13.0,-9.0,18.0,0.0
-10.0,3.0,27.0,15.0,46.0,-13.0,-17.0,-11.0,-5.0,8.0,0.0
-34.0,-13.0,-27.0,15.0,52.0,12.0,-30.0,-17.0,-34.0,-13.0,0.0
-32.0,-7.0,-70.0,13.0,41.0,30.0,-46.0,-32.0,-60.0,-31.0,0.0
-7.0,10.0,23.0,15.0,4.0,33.0,-27.0,-14.0,-47.0,-16.0,0.0
7.0,21.0,46.0,30.0,-17.0,42.0,-4.0,5.0,0.0,8.0,0.0
21.0,22.0,67.0,39.0,-27.0,22.0,-16.0,-3.0,40.0,19.0,0.0
13.0,18.0,50.0,13.0,-54.0,3.0,0.0,-2.0,49.0,21.0,0.0
8.0,8.0,25.0,-25.0,-49.0,0.0,39.0,16.0,68.0,23.0,0.0
1.0,14.0,19.0,-33.0,-55.0,-12.0,51.0,25.0,75.0,30.0,0.0
12.0,28.0,47.0,-14.0,-69.0,-34.0,38.0,23.0,57.0,29.0,0.0
23.0,32.0,31.0,-17.0,-84.0,-52.0,27.0,34.0,46.0,39.0,0.0
28.0,29.0,25.0,-24.0,-99.0,-84.0,4.0,18.0,30.0,39.0,0.0
30.0,27.0,37.0,-9.0,-94.0,-126.0,-11.0,5.0,12.0,39.0,0.0
14.0,26.0,41.0,-17.0,-78.0,-92.0,0.0,16.0,3.0,35.0,0.0
10.0,7.0,36.0,-26.0,-60.0,-33.0,25.0,20.0,-7.0,32.0,0.0
-2.0,-17.0,20.0,-33.0,-44.0,0.0,18.0,9.0,-16.0,10.0,0.0
-3.0,-25.0,9.0,-25.0,-32.0,21.0,29.0,2.0,-14.0,10.0,0.0
-3.0,-16.0,-9.0,-16.0,-35.0,17.0,49.0,9.0,-12.0,17.0,0.0
-5.0,-16.0,-2.0,-7.0,-55.0,-3.0,23.0,2.0,4.0,19.0,0.0
-3.0,-10.0,-71.0,1.0,-32.0,0.0,-21.0,-9.0,0.0,9.0,0.0
-18.0,-17.0,-113.0,6.0,14.0,56.0,-22.0,-17.0,-3.0,-1.0,0.0
-20.0,-24.0,-19.0,7.0,43.0,102.0,1.0,-25.0,7.0,-15.0,0.0
-20.0,-8.0,-6.0,7.0,38.0,107.0,5.0,-25.0,32.0,-7.0,0.0
-11.0,18.0,-25.0,19.0,33.0,78.0,8.0,-26.0,43.0,-4.0,0.0
-7.0,18.0,35.0,20.0,19.0,69.0,20.0,-17.0,44.0,4.0,0.0
-11.0,17.0,-3.0,10.0,3.0,27.0,24.0,5.0,51.0,23.0,0.0
12.0,26.0,-102.0,3.0,-23.0,-28.0,32.0,8.0,57.0,43.0,0.0
24.0,14.0,-44.0,-9.0,-14.0,-51.0,43.0,0.0,54.0,50.0,0.0
22.0,3.0,-14.0,5.0,2.0,-47.0,33.0,-13.0,47.0,55.0,0.0
23.0,7.0,-1.0,10.0,2.0,-43.0,23.0,-9.0,25.0,62.0,0.0
30.0,6.0,70.0,1.0,-2.0,-47.0,24.0,-4.0,13.0,94.0,0.0
18.0,-2.0,17.0,-10.0,7.0,-17.0,39.0,-5.0,-11.0,47.0,0.0
-9.0,-18.0,-81.0,-9.0,20.0,16.0,55.0,0.0,-27.0,8.0,0.0
-26.0,-23.0,-17.0,-16.0,44.0,27.0,64.0,2.0,-37.0,-10.0,0.0
-24.0,-29.0,34.0,-27.0,47.0,18.0,74.0,4.0,-31.0,-12.0,0.0
-25.0,-31.0,51.0,-21.0,63.0,21.0,35.0,-13.0,-42.0,-10.0,0.0
-28.0,-35.0,52.0,-10.0,69.0,42.0,-1.0,-26.0,-45.0,-22.0,0.0
-25.0,-26.0,51.0,-3.0,35.0,70.0,-11.0,-34.0,-6.0,-5.0,0.0
-13.0,-14.0,50.0,4.0,7.0,73.0,-13.0,-40.0,21.0,-11.0,0.0
-20.0,-7.0,38.0,6.0,45.0,70.0,-14.0,-40.0,44.0,-7.0,0.0
-13.0,-6.0,-22.0,11.0,81.0,77.0,-21.0,-42.0,52.0,-7.0,0.0
2.0,6.0,-43.0,13.0,59.0,34.0,-32.0,-39.0,37.0,4.0,0.0
23.0,7.0,20.0,1.0,13.0,-11.0,-32.0,-31.0,31.0,2.0,0.0
41.0,13.0,38.0,4.0,-22.0,-52.0,-24.0,-34.0,28.0,9.0,0.0
48.0,25.0,46.0,10.0,-41.0,-60.0,-23.0,-24.0,16.0,22.0,0.0
39.0,29.0,32.0,-12.0,-85.0,-42.0,-4.0,-1.0,15.0,20.0,0.0
37.0,28.0,34.0,-41.0,-117.0,-39.0,18.0,-4.0,19.0,21.0,0.0
34.0,27.0,33.0,-40.0,-92.0,-35.0,12.0,-2.0,16.0,24.0,0.0
36.0,31.0,25.0,-27.0,-50.0,-35.0,0.0,-1.0,-7.0,19.0,0.0
25.0,17.0,11.0,-16.0,-36.0,-26.0,-7.0,0.0,-26.0,13.0,0.0
-9.0,-5.0,-7.0,-32.0,-37.0,-9.0,14.0,4.0,-39.0,-6.0,0.0
-28.0,-23.0,-10.0,-36.0,-33.0,-26.0,4.0,8.0,-56.0,-15.0,0.0
-35.0,-13.0,3.0,-36.0,-10.0,-6.0,-25.0,-3.0,-66.0,-27.0,0.0
-39.0,-8.0,0.0,-27.0,10.0,40.0,-37.0,-34.0,-64.0,-34.0,0.0
-19.0,-24.0,7.0,-7.0,21.0,63.0,-29.0,-35.0,-38.0,-41.0,0.0
-2.0,-9.0,14.0,3.0,28.0,63.0,-25.0,-27.0,-13.0,-39.0,0.0
-7.0,0.0,8.0,5.0,29.0,46.0,-17.0,-11.0,17.0,-30.0,0.0
1.0,8.0,6.0,0.0,33.0,29.0,-11.0,3.0,32.0,-14.0,0.0
15.0,20.0,4.0,6.0,33.0,19.0,-7.0,5.0,29.0,10.0,0.0
33.0,21.0,7.0,7.0,13.0,-11.0,-1.0,16.0,41.0,25.0,0.0
37.0,18.0,14.0,2.0,-3.0,-65.0,-8.0,26.0,52.0,33.0,0.0
39.0,15.0,22.0,0.0,1.0,-83.0,8.0,18.0,44.0,31.0,0.0
31.0,14.0,19.0,0.0,-3.0,-72.0,21.0,16.0,18.0,24.0,0.0
29.0,9.0,6.0,0.0,-3.0,-55.0,9.0,3.0,9.0,21.0,0.0
26.0,11.0,-15.0,6.0,-9.0,-42.0,0.0,4.0,2.0,22.0,0.0
16.0,3.0,15.0,8.0,-9.0,-21.0,-1.0,3.0,4.0,17.0,0.0
4.0,-5.0,3.0,-13.0,-5.0,-2.0,6.0,11.0,-3.0,12.0,0.0
-6.0,-11.0,-11.0,-20.0,6.0,6.0,25.0,5.0,-13.0,-2.0,0.0
-14.0,-17.0,-6.0,-5.0,17.0,20.0,25.0,-10.0,-21.0,-11.0,0.0
-18.0,-23.0,0.0,-6.0,33.0,42.0,5.0,-14.0,-33.0,-23.0,0.0
-18.0,-28.0,0.0,11.0,44.0,68.0,-11.0,-14.0,-37.0,-32.0,0.0
-23.0,-33.0,-14.0,32.0,53.0,78.0,-13.0,-21.0,-30.0,-30.0,0.0
-30.0,-25.0,-82.0,24.0,54.0,57.0,0.0,-17.0,-14.0,-30.0,0.0
-30.0,-16.0,-29.0,19.0,45.0,42.0,12.0,-3.0,19.0,-15.0,0.0
-18.0,0.0,19.0,21.0,32.0,34.0,20.0,-5.0,30.0,-3.0,0.0
-1.0,16.0,-42.0,15.0,10.0,-8.0,24.0,-2.0,43.0,15.0,0.0
28.0,20.0,-98.0,4.0,-16.0,-56.0,-7.0,-5.0,38.0,27.0,0.0
29.0,17.0,-4.0,-4.0,-36.0,-62.0,-26.0,7.0,45.0,40.0,0.0
29.0,21.0,9.0,-6.0,-45.0,-61.0,-8.0,14.0,41.0,49.0,0.0
35.0,13.0,-70.0,-13.0,-25.0,-53.0,8.0,30.0,30.0,45.0,0.0
33.0,4.0,-144.0,-10.0,0.0,-31.0,17.0,37.0,12.0,38.0,0.0
21.0,2.0,-79.0,-6.0,7.0,-28.0,10.0,33.0,4.0,25.0,0.0
10.0,2.0,27.0,14.0,1.0,-39.0,30.0,25.0,-5.0,-3.0,0.0
8.0,-10.0,47.0,15.0,0.0,-30.0,49.0,21.0,-25.0,-20.0,0.0
24.0,-23.0,43.0,1.0,0.0,-30.0,22.0,8.0,-35.0,-13.0,0.0
7.0,-21.0,41.0,11.0,-2.0,-7.0,-23.0,-7.0,-44.0,-12.0,0.0
4.0,-22.0,32.0,8.0,17.0,36.0,-28.0,-14.0,-43.0,-8.0,0.0
0.0,-28.0,21.0,4.0,35.0,80.0,-22.0,-16.0,-31.0,0.0,0.0
2.0,-17.0,36.0,22.0,41.0,73.0,-52.0,-21.0,-38.0,0.0,0.0
13.0,16.0,58.0,35.0,28.0,43.0,-77.0,-28.0,-13.0,0.0,0.0
29.0,49.0,70.0,45.0,11.0,27.0,-76.0,-31.0,8.0,17.0,0.0
47.0,44.0,63.0,35.0,9.0,0.0,-63.0,-27.0,31.0,25.0,0.0
61.0,54.0,21.0,26.0,-9.0,-44.0,-60.0,-12.0,51.0,31.0,0.0
62.0,41.0,-90.0,18.0,-29.0,-71.0,-66.0,-6.0,43.0,38.0,0.0
43.0,26.0,-130.0,8.0,-19.0,-44.0,-26.0,7.0,27.0,22.0,0.0
35.0,13.0,-36.0,-1.0,0.0,-30.0,-13.0,11.0,23.0,9.0,0.0
29.0,25.0,51.0,-1.0,5.0,-43.0,-30.0,13.0,28.0,15.0,0.0
25.0,14.0,47.0,-8.0,0.0,-34.0,-18.0,16.0,22.0,6.0,0.0
21.0,13.0,42.0,-10.0,-10.0,-25.0,-3.0,22.0,3.0,0.0,0.0
12.0,1.0,51.0,-7.0,9.0,-10.0,21.0,23.0,-9.0,0.0,0.0
0.0,-13.0,-1.0,-1.0,13.0,19.0,23.0,20.0,-18.0,-16.0,0.0
-7.0,-15.0,-93.0,13.0,21.0,33.0,24.0,12.0,-34.0,-46.0,0.0
-18.0,-16.0,-19.0,17.0,31.0,55.0,23.0,7.0,-39.0,-55.0,0.0
-28.0,-26.0,37.0,22.0,44.0,93.0,20.0,6.0,-48.0,-53.0,0.0
-31.0,-25.0,30.0,18.0,52.0,112.0,14.0,-2.0,-64.0,-49.0,0.0
-17.0,-5.0,36.0,7.0,55.0,99.0,11.0,9.0,-51.0,-29.0,0.0
-1.0,7.0,37.0,4.0,76.0,71.0,13.0,14.0,-28.0,-6.0,0.0
0.0,11.0,28.0,5.0,101.0,71.0,10.0,-2.0,-18.0,-8.0,0.0
-3.0,9.0,20.0,5.0,77.0,47.0,-11.0,-21.0,-18.0,-3.0,0.0
17.0,12.0,14.0,5.0,26.0,-5.0,-27.0,-22.0,6.0,-3.0,0.0
35.0,20.0,24.0,10.0,-43.0,-41.0,-23.0,-19.0,24.0,3.0,0.0
35.0,25.0,44.0,22.0,-85.0,-63.0,-24.0,-2.0,31.0,22.0,0.0
38.0,40.0,42.0,25.0,-87.0,-67.0,-21.0,14.0,37.0,26.0,0.0
39.0,26.0,31.0,15.0,-111.0,-65.0,-7.0,22.0,30.0,7.0,0.0
26.0,27.0,18.0,0.0,-101.0,-64.0,0.0,16.0,5.0,-16.0,0.0
14.0,9.0,0.0,-18.0,-92.0,-52.0,23.0,1.0,1.0,-20.0,0.0
-11.0,-11.0,-13.0,-9.0,-51.0,-22.0,33.0,-4.0,-24.0,-35.0,0.0
-30.0,-20.0,-20.0,-10.0,-12.0,3.0,49.0,0.0,-36.0,-44.0,0.0
-21.0,-20.0,-31.0,-5.0,21.0,41.0,71.0,18.0,-29.0,-30.0,0.0
-18.0,-30.0,-2.0,12.0,50.0,62.0,64.0,2.0,-41.0,-37.0,0.0
-8.0,-14.0,42.0,16.0,49.0,83.0,39.0,-21.0,-36.0,-30.0,0.0
-6.0,-6.0,26.0,12.0,39.0,91.0,30.0,-26.0,-7.0,-20.0,0.0
-24.0,2.0,3.0,19.0,47.0,96.0,5.0,-39.0,17.0,-8.0,0.0
-36.0,2.0,23.0,13.0,59.0,119.0,13.0,-31.0,29.0,-5.0,0.0
-33.0,-10.0,0.0,-5.0,67.0,108.0,46.0,-13.0,33.0,-13.0,0.0
-10.0,-4.0,7.0,16.0,25.0,-12.0,41.0,-12.0,24.0,9.0,0.0
20.0,15.0,24.0,36.0,-10.0,-100.0,45.0,4.0,38.0,29.0,0.0
45.0,23.0,25.0,13.0,-36.0,-113.0,63.0,35.0,37.0,31.0,0.0
33.0,4.0,15.0,-14.0,-45.0,-106.0,46.0,23.0,8.0,7.0,0.0
17.0,-2.0,22.0,-9.0,-66.0,-97.0,50.0,34.0,2.0,4.0,0.0
10.0,3.0,19.0,-2.0,-67.0,-71.0,72.0,55.0,11.0,13.0,0.0
3.0,-19.0,-8.0,-35.0,-57.0,-50.0,33.0,52.0,3.0,7.0,0.0
7.0,-11.0,-24.0,-41.0,-29.0,-48.0,-9.0,18.0,-25.0,2.0,0.0
-41.0,-8.0,-14.0,-52.0,-74.0,33.0,-16.0,7.0,2.0,9.0,0.0
-31.0,1.0,7.0,-22.0,-62.0,35.0,-22.0,-6.0,-6.0,-5.0,0.0
-11.0,-2.0,15.0,-10.0,-21.0,47.0,-27.0,-18.0,-18.0,0.0,0.0
12.0,3.0,17.0,-17.0,0.0,44.0,-13.0,-14.0,3.0,2.0,0.0
21.0,29.0,-24.0,-21.0,-12.0,5.0,-3.0,-11.0,27.0,3.0,0.0
32.0,32.0,-48.0,-17.0,-32.0,-36.0,-11.0,-6.0,49.0,13.0,0.0
24.0,8.0,-83.0,-2.0,-33.0,-59.0,-6.0,4.0,50.0,16.0,0.0
0.0,1.0,-51.0,3.0,-6.0,-45.0,-3.0,15.0,27.0,29.0,0.0
-9.0,24.0,-51.0,-2.0,37.0,-25.0,-4.0,21.0,48.0,34.0,0.0
-7.0,17.0,-83.0,-24.0,41.0,-25.0,-14.0,12.0,36.0,32.0,0.0
-1.0,1.0,0.0,-27.0,26.0,-43.0,-9.0,-2.0,3.0,12.0,0.0
-1.0,-5.0,20.0,-14.0,9.0,-44.0,4.0,-2.0,0.0,4.0,0.0
-6.0,-6.0,15.0,-16.0,-5.0,-18.0,29.0,7.0,6.0,8.0,0.0
-12.0,-14.0,-5.0,-48.0,-9.0,23.0,43.0,15.0,1.0,7.0,0.0
-29.0,-23.0,-14.0,-54.0,6.0,51.0,58.0,6.0,-28.0,-21.0,0.0
-42.0,-38.0,-13.0,-21.0,30.0,66.0,52.0,-7.0,-41.0,-43.0,0.0
-59.0,-44.0,-15.0,-5.0,64.0,109.0,46.0,-23.0,-50.0,-46.0,0.0
-58.0,-33.0,-36.0,6.0,76.0,109.0,31.0,-14.0,-58.0,-38.0,0.0
-48.0,-16.0,-126.0,15.0,50.0,70.0,11.0,-18.0,-61.0,-19.0,0.0
-42.0,-8.0,-59.0,3.0,37.0,28.0,9.0,-29.0,-69.0,-11.0,0.0
-34.0,-15.0,16.0,7.0,19.0,0.0,-1.0,-23.0,-58.0,-17.0,0.0
-7.0,-1.0,20.0,21.0,-8.0,-53.0,-9.0,-28.0,-29.0,4.0,0.0
15.0,28.0,-33.0,5.0,-28.0,-79.0,0.0,-26.0,-7.0,41.0,0.0
8.0,22.0,-123.0,1.0,-26.0,-67.0,11.0,-24.0,-10.0,39.0,0.0
-3.0,10.0,-85.0,6.0,-23.0,-54.0,22.0,-21.0,-6.0,15.0,0.0
-6.0,11.0,18.0,2.0,-30.0,-62.0,12.0,-15.0,7.0,22.0,0.0
-6.0,13.0,35.0,-11.0,-41.0,-56.0,11.0,-6.0,21.0,15.0,0.0
6.0,29.0,40.0,-3.0,-47.0,-50.0,19.0,-9.0,28.0,7.0,0.0
10.0,23.0,45.0,10.0,-50.0,-43.0,24.0,-4.0,20.0,12.0,0.0
4.0,25.0,44.0,0.0,-53.0,-32.0,29.0,11.0,19.0,19.0,0.0
0.0,26.0,36.0,0.0,-14.0,-8.0,35.0,10.0,25.0,14.0,0.0
-13.0,12.0,26.0,3.0,35.0,25.0,21.0,4.0,10.0,1.0,0.0
-37.0,-16.0,32.0,9.0,50.0,71.0,-3.0,-4.0,-2.0,-13.0,0.0
-38.0,-21.0,27.0,26.0,47.0,105.0,-17.0,-20.0,-33.0,-30.0,0.0
-29.0,-10.0,21.0,33.0,59.0,110.0,-29.0,-31.0,-48.0,-31.0,0.0
-21.0,-4.0,27.0,36.0,61.0,76.0,-26.0,-20.0,-51.0,-9.0,0.0
-4.0,8.0,24.0,25.0,44.0,35.0,-31.0,-15.0,-49.0,-13.0,0.0
0.0,12.0,4.0,8.0,17.0,14.0,-45.0,-21.0,-61.0,-10.0,0.0
19.0,24.0,3.0,3.0,0.0,-21.0,-44.0,-14.0,-45.0,7.0,0.0
27.0,43.0,18.0,1.0,-17.0,-67.0,-41.0,-13.0,-17.0,18.0,0.0
29.0,57.0,11.0,10.0,-25.0,-83.0,-35.0,-23.0,-24.0,24.0,0.0
22.0,32.0,-7.0,10.0,-15.0,-50.0,27.0,-16.0,-24.0,11.0,0.0
7.0,16.0,-17.0,2.0,-19.0,-54.0,16.0,-9.0,-27.0,-4.0,0.0
9.0,10.0,-46.0,4.0,-12.0,-50.0,-14.0,-1.0,-10.0,-2.0,0.0
9.0,10.0,-71.0,8.0,21.0,-31.0,-2.0,6.0,4.0,0.0,0.0
-3.0,3.0,-13.0,14.0,57.0,-11.0,-9.0,3.0,13.0,-6.0,0.0
-13.0,12.0,-3.0,18.0,62.0,14.0,-11.0,-6.0,14.0,-11.0,0.0
-15.0,3.0,2.0,19.0,66.0,21.0,17.0,-5.0,27.0,-19.0,0.0
-29.0,-4.0,8.0,24.0,54.0,36.0,34.0,-11.0,22.0,-43.0,0.0
-40.0,0.0,-4.0,35.0,44.0,70.0,50.0,-11.0,31.0,-46.0,0.0
-33.0,3.0,-4.0,36.0,27.0,88.0,44.0,-25.0,6.0,-38.0,0.0
-29.0,0.0,-7.0,18.0,-17.0,63.0,24.0,-40.0,-13.0,-28.0,0.0
-14.0,3.0,-23.0,8.0,-25.0,32.0,8.0,-28.0,1.0,-18.0,0.0
9.0,15.0,-2.0,18.0,-15.0,18.0,0.0,-21.0,16.0,-19.0,0.0
16.0,17.0,15.0,16.0,-7.0,0.0,-7.0,-4.0,16.0,-3.0,0.0
26.0,12.0,13.0,1.0,-14.0,-39.0,-15.0,6.0,23.0,19.0,0.0
23.0,18.0,21.0,-7.0,-37.0,-40.0,17.0,16.0,8.0,24.0,0.0
0.0,-2.0,2.0,-12.0,-43.0,-13.0,86.0,25.0,-14.0,13.0,0.0
-14.0,-14.0,-16.0,-13.0,-55.0,-14.0,74.0,10.0,-45.0,-8.0,0.0
0.0,-19.0,0.0,-10.0,-51.0,-8.0,21.0,18.0,-45.0,0.0,0.0
0.0,-9.0,4.0,-2.0,-33.0,-8.0,-7.0,16.0,-35.0,13.0,0.0
-3.0,-2.0,-6.0,0.0,-15.0,-4.0,27.0,18.0,-21.0,22.0,0.0
-8.0,-8.0,-22.0,-2.0,-7.0,9.0,49.0,23.0,-8.0,24.0,0.0
-15.0,-1.0,-46.0,-6.0,2.0,19.0,49.0,4.0,6.0,23.0,0.0
-24.0,-8.0,12.0,0.0,0.0,45.0,37.0,3.0,18.0,21.0,0.0
-29.0,-2.0,32.0,26.0,22.0,66.0,49.0,2.0,43.0,0.0,0.0
-25.0,3.0,40.0,40.0,36.0,86.0,26.0,-27.0,44.0,-14.0,0.0
-16.0,-3.0,29.0,51.0,37.0,80.0,15.0,-35.0,33.0,-8.0,0.0
-25.0,3.0,15.0,63.0,30.0,77.0,14.0,-19.0,14.0,0.0,0.0
-25.0,-14.0,1.0,34.0,27.0,84.0,41.0,2.0,17.0,4.0,0.0
-16.0,-13.0,-9.0,9.0,32.0,80.0,30.0,8.0,8.0,7.0,0.0
3.0,13.0,-4.0,3.0,21.0,9.0,7.0,0.0,-4.0,23.0,0.0
20.0,16.0,11.0,0.0,-7.0,-49.0,-18.0,-7.0,-1.0,42.0,0.0
29.0,12.0,10.0,0.0,-17.0,-63.0,-43.0,-2.0,-6.0,39.0,0.0
24.0,10.0,4.0,-7.0,0.0,-48.0,-48.0,1.0,-15.0,40.0,0.0
11.0,9.0,-2.0,-18.0,-14.0,-45.0,-51.0,-4.0,-8.0,40.0,0.0
14.0,7.0,-5.0,-31.0,-1.0,-54.0,-79.0,-27.0,-32.0,28.0,0.0
7.0,-4.0,-7.0,-41.0,32.0,-35.0,-45.0,-38.0,-49.0,7.0,0.0
6.0,-12.0,-5.0,-38.0,15.0,-43.0,3.0,-24.0,-52.0,-6.0,0.0
5.0,-1.0,4.0,-15.0,-17.0,-47.0,14.0,-5.0,-26.0,8.0,0.0
-7.0,0.0,5.0,0.0,-4.0,-22.0,37.0,6.0,9.0,6.0,0.0
-27.0,0.0,7.0,2.0,19.0,17.0,26.0,9.0,30.0,-1.0,0.0
-30.0,-3.0,2.0,9.0,-29.0,57.0,25.0,0.0,27.0,6.0,0.0
-8.0,2.0,4.0,3.0,-107.0,24.0,12.0,1.0,24.0,32.0,0.0
-5.0,-1.0,9.0,-15.0,-82.0,26.0,7.0,13.0,29.0,35.0,0.0
-20.0,-11.0,2.0,-20.0,-15.0,57.0,20.0,13.0,7.0,16.0,0.0
-15.0,-1.0,7.0,4.0,9.0,39.0,21.0,20.0,18.0,18.0,0.0
3.0,8.0,12.0,10.0,-3.0,-9.0,-11.0,14.0,24.0,24.0,0.0
14.0,-5.0,7.0,-2.0,-16.0,-49.0,-24.0,12.0,8.0,20.0,0.0
5.0,-6.0,3.0,-3.0,-21.0,-68.0,-10.0,7.0,6.0,9.0,0.0
-18.0,-14.0,-12.0,0.0,-30.0,-62.0,-5.0,10.0,6.0,2.0,0.0
-9.0,-25.0,-22.0,3.0,-27.0,-50.0,-5.0,10.0,-11.0,-1.0,0.0
5.0,-18.0,-4.0,3.0,-4.0,-43.0,-7.0,14.0,-2.0,9.0,0.0
12.0,-2.0,3.0,14.0,-2.0,-40.0,-21.0,12.0,14.0,26.0,0.0
13.0,12.0,11.0,21.0,-12.0,-43.0,-37.0,-4.0,-5.0,26.0,0.0
19.0,16.0,11.0,6.0,-11.0,-30.0,-39.0,-2.0,-16.0,26.0,0.0
12.0,-8.0,0.0,-15.0,-6.0,-6.0,-39.0,13.0,-4.0,27.0,0.0
-11.0,-20.0,-18.0,-17.0,1.0,15.0,-53.0,8.0,3.0,16.0,0.0
-33.0,-28.0,-23.0,-12.0,28.0,52.0,-59.0,-12.0,-6.0,-5.0,0.0
-49.0,-30.0,-9.0,3.0,56.0,111.0,-45.0,-13.0,-23.0,-24.0,0.0
-51.0,-30.0,-18.0,9.0,70.0,141.0,-28.0,3.0,3.0,-27.0,0.0
-48.0,-24.0,-84.0,10.0,92.0,136.0,-17.0,0.0,10.0,-35.0,0.0
-32.0,-14.0,-111.0,16.0,84.0,114.0,-16.0,-12.0,-3.0,-41.0,0.0
-15.0,0.0,-79.0,19.0,52.0,65.0,-40.0,-8.0,1.0,-29.0,0.0
0.0,5.0,-21.0,5.0,31.0,31.0,-32.0,20.0,25.0,-7.0,0.0
-2.0,2.0,3.0,-2.0,21.0,4.0,-25.0,22.0,7.0,3.0,0.0
5.0,13.0,5.0,-1.0,24.0,-32.0,-25.0,20.0,0.0,9.0,0.0
12.0,25.0,8.0,-2.0,20.0,-54.0,-35.0,26.0,18.0,17.0,0.0
25.0,39.0,24.0,10.0,-7.0,-101.0,-55.0,2.0,15.0,29.0,0.0
31.0,46.0,46.0,34.0,-31.0,-107.0,-46.0,-5.0,-5.0,35.0,0.0
22.0,23.0,35.0,14.0,-37.0,-77.0,-40.0,14.0,-14.0,36.0,0.0
20.0,0.0,-15.0,-21.0,-51.0,-55.0,-38.0,30.0,-20.0,29.0,0.0
0.0,-13.0,-34.0,-28.0,-28.0,-23.0,-12.0,37.0,-19.0,21.0,0.0
-22.0,-13.0,-12.0,-21.0,13.0,-7.0,-17.0,19.0,-25.0,5.0,0.0
-36.0,-17.0,-6.0,-6.0,36.0,-3.0,-49.0,-15.0,-44.0,-16.0,0.0
-53.0,-33.0,-4.0,-13.0,44.0,34.0,-52.0,-28.0,-50.0,-37.0,0.0
-57.0,-51.0,-15.0,-27.0,35.0,82.0,-47.0,-24.0,-56.0,-44.0,0.0
-47.0,-22.0,-2.0,-18.0,37.0,84.0,-30.0,-19.0,-49.0,-41.0,0.0
-17.0,-1.0,17.0,4.0,11.0,80.0,-6.0,-9.0,-46.0,-23.0,0.0
9.0,16.0,35.0,15.0,-9.0,47.0,-5.0,-2.0,-19.0,1.0,0.0
36.0,33.0,37.0,20.0,-21.0,-16.0,-25.0,-1.0,-1.0,19.0,0.0
41.0,28.0,18.0,23.0,-48.0,-50.0,-27.0,0.0,20.0,30.0,0.0
48.0,32.0,19.0,14.0,-72.0,-55.0,-37.0,12.0,46.0,33.0,0.0
54.0,61.0,25.0,17.0,-43.0,-59.0,-44.0,17.0,49.0,37.0,0.0
56.0,51.0,27.0,17.0,-23.0,-42.0,-17.0,11.0,58.0,36.0,0.0
41.0,32.0,12.0,16.0,-35.0,-21.0,59.0,9.0,56.0,24.0,0.0
29.0,19.0,0.0,9.0,-51.0,-26.0,66.0,16.0,44.0,16.0,0.0
3.0,-1.0,-6.0,6.0,-50.0,-54.0,27.0,4.0,32.0,21.0,0.0
-6.0,1.0,-62.0,5.0,-47.0,-60.0,5.0,-14.0,20.0,23.0,0.0
6.0,2.0,-129.0,-4.0,-48.0,-41.0,-3.0,-12.0,5.0,19.0,0.0
11.0,6.0,-32.0,-6.0,-26.0,-9.0,-15.0,0.0,15.0,24.0,0.0
-4.0,-20.0,6.0,0.0,6.0,42.0,-14.0,7.0,0.0,15.0,0.0
-13.0,-27.0,9.0,4.0,46.0,79.0,-28.0,-4.0,-16.0,-3.0,0.0
-12.0,-30.0,-4.0,10.0,77.0,88.0,-45.0,-24.0,-25.0,-8.0,0.0
-10.0,-24.0,-37.0,27.0,112.0,84.0,-46.0,-23.0,-31.0,-9.0,0.0
-6.0,-17.0,3.0,28.0,112.0,70.0,-26.0,-15.0,-36.0,-6.0,0.0
13.0,-2.0,27.0,24.0,86.0,34.0,-7.0,-34.0,-43.0,5.0,0.0
23.0,0.0,20.0,25.0,63.0,14.0,37.0,-18.0,-31.0,11.0,0.0
23.0,8.0,9.0,18.0,31.0,-4.0,28.0,-1.0,-14.0,14.0,0.0
22.0,-2.0,0.0,0.0,2.0,-27.0,6.0,5.0,5.0,10.0,0.0
28.0,15.0,0.0,-16.0,-22.0,-27.0,3.0,20.0,37.0,18.0,0.0
28.0,16.0,19.0,1.0,-35.0,-42.0,-1.0,10.0,55.0,35.0,0.0
14.0,15.0,10.0,10.0,-22.0,-40.0,-2.0,-6.0,42.0,34.0,0.0
0.0,-1.0,-10.0,18.0,14.0,-16.0,19.0,-8.0,45.0,10.0,0.0
-19.0,-19.0,-12.0,20.0,52.0,-4.0,18.0,-9.0,35.0,-5.0,0.0
-29.0,-29.0,-6.0,38.0,62.0,-3.0,5.0,-13.0,12.0,-24.0,0.0
-31.0,-21.0,5.0,57.0,54.0,18.0,-12.0,-25.0,-18.0,-24.0,0.0
-16.0,8.0,39.0,51.0,16.0,23.0,-31.0,-37.0,-32.0,-15.0,0.0
-20.0,-2.0,13.0,1.0,15.0,69.0,2.0,-17.0,-27.0,-12.0,0.0
-59.0,-36.0,-32.0,-42.0,22.0,139.0,26.0,3.0,-33.0,-35.0,0.0
-68.0,-35.0,-26.0,-38.0,27.0,132.0,14.0,1.0,-39.0,-48.0,0.0
-25.0,-19.0,10.0,-15.0,12.0,65.0,-25.0,-9.0,-36.0,-30.0,0.0
7.0,2.0,43.0,6.0,-4.0,19.0,-57.0,-4.0,-35.0,-11.0,0.0
18.0,15.0,35.0,-15.0,-34.0,-27.0,-45.0,-2.0,-21.0,5.0,0.0
28.0,26.0,13.0,-39.0,-67.0,-78.0,-51.0,-3.0,17.0,24.0,0.0
30.0,25.0,9.0,-53.0,-68.0,-91.0,-40.0,13.0,43.0,34.0,0.0
43.0,26.0,15.0,-36.0,-46.0,-60.0,1.0,29.0,65.0,36.0,0.0
37.0,20.0,28.0,-16.0,-29.0,-55.0,4.0,24.0,53.0,16.0,0.0
36.0,45.0,53.0,-7.0,-41.0,-63.0,-6.0,27.0,53.0,12.0,0.0
36.0,35.0,35.0,-22.0,-65.0,-55.0,23.0,36.0,56.0,16.0,0.0
27.0,28.0,0.0,-38.0,-80.0,-43.0,92.0,56.0,37.0,12.0,0.0
23.0,30.0,-25.0,-15.0,-52.0,-38.0,81.0,40.0,8.0,6.0,0.0
9.0,18.0,-19.0,15.0,-23.0,-18.0,48.0,28.0,0.0,10.0,0.0
-6.0,-4.0,18.0,-6.0,-15.0,-13.0,41.0,7.0,-25.0,1.0,0.0
-8.0,-18.0,14.0,-20.0,1.0,14.0,45.0,-10.0,-40.0,-27.0,0.0
-15.0,-18.0,19.0,-4.0,23.0,71.0,46.0,-7.0,-25.0,-26.0,0.0
-9.0,-5.0,14.0,9.0,40.0,102.0,31.0,-9.0,-18.0,-23.0,0.0
-1.0,-1.0,10.0,4.0,37.0,107.0,15.0,-2.0,-19.0,-17.0,0.0
6.0,-7.0,-6.0,9.0,39.0,105.0,17.0,3.0,-23.0,-6.0,0.0
12.0,1.0,-44.0,12.0,30.0,83.0,7.0,17.0,-16.0,5.0,0.0
24.0,14.0,21.0,11.0,22.0,29.0,-15.0,26.0,6.0,5.0,0.0
26.0,5.0,41.0,7.0,-4.0,-24.0,-9.0,33.0,22.0,-1.0,0.0
13.0,9.0,22.0,-14.0,-32.0,-57.0,16.0,30.0,11.0,-5.0,0.0
3.0,8.0,11.0,-23.0,-39.0,-78.0,22.0,19.0,19.0,-3.0,0.0
10.0,21.0,26.0,-11.0,-32.0,-71.0,3.0,3.0,21.0,0.0,0.0
19.0,38.0,41.0,3.0,-10.0,-57.0,-22.0,-14.0,28.0,-8.0,0.0
25.0,26.0,30.0,6.0,-2.0,-39.0,-31.0,-25.0,28.0,-18.0,0.0
22.0,23.0,26.0,7.0,6.0,-28.0,-12.0,-36.0,4.0,-18.0,0.0
18.0,9.0,16.0,0.0,33.0,-23.0,-16.0,-47.0,7.0,-16.0,0.0
2.0,16.0,20.0,-12.0,33.0,-10.0,-19.0,-41.0,3.0,-24.0,0.0
-2.0,5.0,15.0,-14.0,22.0,11.0,-19.0,-38.0,-24.0,-28.0,0.0
0.0,5.0,11.0,-4.0,15.0,43.0,-15.0,-50.0,-32.0,-42.0,0.0
1.0,12.0,16.0,5.0,8.0,52.0,-9.0,-43.0,-34.0,-31.0,0.0
0.0,7.0,10.0,11.0,-24.0,56.0,9.0,-29.0,-24.0,-19.0,0.0
-6.0,6.0,-33.0,8.0,-45.0,40.0,29.0,-21.0,-31.0,-9.0,0.0
-8.0,-5.0,-118.0,-1.0,-25.0,32.0,19.0,-28.0,-47.0,-17.0,0.0
2.0,-9.0,-66.0,4.0,-4.0,26.0,7.0,-17.0,-46.0,-22.0,0.0
13.0,-2.0,3.0,11.0,0.0,-5.0,9.0,-1.0,-26.0,-17.0,0.0
32.0,12.0,-65.0,3.0,2.0,-37.0,20.0,9.0,-1.0,-11.0,0.0
37.0,-2.0,-117.0,-12.0,-3.0,-57.0,18.0,13.0,27.0,-20.0,0.0
30.0,1.0,-17.0,-17.0,6.0,-50.0,1.0,11.0,43.0,-16.0,0.0
34.0,-5.0,8.0,-18.0,24.0,-34.0,10.0,13.0,66.0,-7.0,0.0
30.0,2.0,11.0,-10.0,28.0,-15.0,20.0,9.0,73.0,-11.0,0.0
22.0,-8.0,10.0,-21.0,25.0,0.0,39.0,7.0,57.0,-11.0,0.0
29.0,-3.0,25.0,-8.0,24.0,1.0,26.0,-2.0,58.0,-1.0,0.0
27.0,10.0,37.0,5.0,10.0,-25.0,11.0,-19.0,38.0,-2.0,0.0
28.0,8.0,21.0,-14.0,0.0,-41.0,-1.0,-12.0,27.0,-3.0,0.0
26.0,8.0,13.0,-24.0,13.0,-29.0,-18.0,-13.0,11.0,-2.0,0.0
0.0,-4.0,1.0,-22.0,35.0,27.0,-16.0,-28.0,-12.0,-24.0,0.0
-18.0,-1.0,-26.0,-8.0,45.0,73.0,-25.0,-45.0,-42.0,-35.0,0.0
-17.0,-2.0,-117.0,2.0,54.0,75.0,-61.0,-30.0,-50.0,-47.0,0.0
-22.0,6.0,-98.0,8.0,61.0,52.0,-62.0,-17.0,-46.0,-42.0,0.0
-8.0,7.0,-41.0,9.0,60.0,7.0,-41.0,-10.0,-37.0,-26.0,0.0
-10.0,14.0,22.0,8.0,44.0,-26.0,-27.0,2.0,-31.0,-8.0,0.0
-2.0,-7.0,11.0,-14.0,25.0,-58.0,-27.0,13.0,-33.0,-11.0,0.0
11.0,14.0,-17.0,-19.0,-6.0,-93.0,-48.0,20.0,-35.0,8.0,0.0
23.0,15.0,18.0,-17.0,-51.0,-93.0,-62.0,13.0,-33.0,20.0,0.0
26.0,17.0,2.0,-22.0,-66.0,-72.0,-49.0,21.0,-9.0,21.0,0.0
18.0,28.0,-35.0,-6.0,-52.0,-63.0,-36.0,30.0,5.0,17.0,0.0
11.0,12.0,19.0,-9.0,-49.0,-60.0,-39.0,17.0,19.0,0.0,0.0
14.0,22.0,21.0,-8.0,-33.0,-47.0,-45.0,3.0,38.0,3.0,0.0
0.0,18.0,26.0,-5.0,-12.0,-32.0,-56.0,-23.0,33.0,4.0,0.0
-32.0,0.0,12.0,-8.0,-33.0,-10.0,-2.0,-18.0,13.0,-11.0,0.0
-66.0,-16.0,-43.0,-24.0,-55.0,34.0,105.0,6.0,10.0,-11.0,0.0
-60.0,-26.0,-6.0,-30.0,-53.0,27.0,47.0,-14.0,-4.0,-21.0,0.0
-43.0,-2.0,44.0,11.0,-23.0,56.0,-12.0,-41.0,-15.0,-24.0,0.0
-51.0,-22.0,24.0,29.0,12.0,107.0,-24.0,-37.0,-25.0,-35.0,0.0
-48.0,-37.0,-47.0,0.0,10.0,103.0,-20.0,-32.0,-28.0,-49.0,0.0
-21.0,-30.0,4.0,-8.0,28.0,94.0,0.0,-14.0,-16.0,-39.0,0.0
-5.0,-13.0,7.0,7.0,29.0,53.0,40.0,9.0,-12.0,-17.0,0.0
9.0,-4.0,-77.0,-3.0,-20.0,-9.0,29.0,22.0,-6.0,6.0,0.0
23.0,-3.0,-19.0,-14.0,-55.0,-74.0,16.0,33.0,8.0,14.0,0.0
26.0,3.0,27.0,-5.0,-56.0,-110.0,8.0,28.0,13.0,17.0,0.0
18.0,4.0,28.0,2.0,-51.0,-97.0,2.0,18.0,22.0,19.0,0.0
15.0,2.0,38.0,15.0,-41.0,-65.0,-18.0,10.0,34.0,16.0,0.0
9.0,13.0,27.0,18.0,-4.0,-51.0,-22.0,5.0,32.0,15.0,0.0
1.0,10.0,-33.0,25.0,37.0,-35.0,-29.0,3.0,36.0,9.0,0.0
14.0,21.0,-60.0,33.0,46.0,-28.0,-45.0,-5.0,22.0,1.0,0.0
23.0,5.0,17.0,19.0,35.0,-27.0,-45.0,-11.0,10.0,1.0,0.0
16.0,-3.0,34.0,9.0,12.0,-28.0,-53.0,-21.0,-1.0,-12.0,0.0
1.0,-8.0,31.0,10.0,10.0,-14.0,-57.0,-20.0,-24.0,-32.0,0.0
-8.0,-23.0,29.0,17.0,4.0,8.0,-38.0,-33.0,-49.0,-46.0,0.0
-11.0,-25.0,35.0,8.0,-45.0,10.0,0.0,-24.0,-46.0,-40.0,0.0
-8.0,-32.0,22.0,0.0,-72.0,20.0,27.0,-13.0,-37.0,-33.0,0.0
-10.0,-47.0,21.0,0.0,-41.0,34.0,18.0,-7.0,-42.0,-26.0,0.0
3.0,-37.0,20.0,-1.0,-8.0,35.0,13.0,13.0,-38.0,-13.0,0.0
7.0,-24.0,11.0,15.0,14.0,5.0,-14.0,10.0,-32.0,-4.0,0.0
5.0,-30.0,7.0,9.0,17.0,-33.0,-39.0,4.0,-42.0,-4.0,0.0
6.0,-30.0,-7.0,2.0,-3.0,-42.0,-22.0,10.0,-35.0,-2.0,0.0
5.0,-17.0,-6.0,2.0,-11.0,-38.0,-12.0,26.0,-25.0,23.0,0.0
12.0,2.0,3.0,8.0,-28.0,-56.0,-26.0,22.0,-20.0,27.0,0.0
17.0,20.0,3.0,13.0,-38.0,-69.0,-28.0,9.0,-12.0,22.0,0.0
22.0,23.0,11.0,7.0,-30.0,-69.0,-19.0,2.0,5.0,26.0,0.0
24.0,23.0,7.0,-6.0,-29.0,-60.0,-23.0,5.0,30.0,22.0,0.0
12.0,20.0,-2.0,-6.0,-15.0,-43.0,-30.0,7.0,37.0,21.0,0.0
5.0,11.0,10.0,-12.0,-9.0,-20.0,-27.0,-1.0,24.0,8.0,0.0
5.0,-7.0,-16.0,-20.0,0.0,2.0,-30.0,-11.0,24.0,-17.0,0.0
-2.0,-22.0,-79.0,-19.0,19.0,29.0,-16.0,-16.0,16.0,-18.0,0.0
-20.0,-22.0,-28.0,-22.0,43.0,53.0,-1.0,-4.0,11.0,-24.0,0.0
-22.0,-33.0,-2.0,-23.0,64.0,97.0,-2.0,0.0,-10.0,-20.0,0.0
-24.0,-35.0,0.0,-11.0,81.0,118.0,-4.0,-6.0,-25.0,-26.0,0.0
-24.0,-20.0,6.0,14.0,74.0,102.0,-4.0,1.0,-19.0,-28.0,0.0
-16.0,-13.0,3.0,8.0,42.0,74.0,-11.0,11.0,-14.0,-27.0,0.0
-3.0,-9.0,-13.0,1.0,5.0,32.0,-17.0,16.0,-18.0,-27.0,0.0
6.0,9.0,-2.0,5.0,-10.0,-20.0,-31.0,16.0,-12.0,-11.0,0.0
8.0,9.0,26.0,-8.0,-23.0,-66.0,-39.0,28.0,-17.0,7.0,0.0
-5.0,-1.0,12.0,-20.0,-33.0,-73.0,-26.0,31.0,-9.0,22.0,0.0
-2.0,-15.0,9.0,-27.0,-8.0,-61.0,-6.0,26.0,0.0,22.0,0.0
1.0,-20.0,-2.0,-25.0,29.0,-46.0,-31.0,16.0,-14.0,7.0,0.0
-7.0,-19.0,6.0,-8.0,26.0,-34.0,-56.0,0.0,-21.0,-5.0,0.0
11.0,-14.0,14.0,16.0,12.0,-17.0,-32.0,15.0,23.0,8.0,0.0
21.0,18.0,25.0,46.0,-5.0,-25.0,-22.0,30.0,60.0,26.0,0.0
-2.0,18.0,9.0,21.0,-7.0,-6.0,19.0,29.0,60.0,11.0,0.0
-34.0,7.0,-9.0,-18.0,-9.0,24.0,76.0,23.0,50.0,-5.0,0.0
-40.0,9.0,7.0,-12.0,8.0,29.0,67.0,11.0,62.0,4.0,0.0
-45.0,-1.0,12.0,13.0,46.0,71.0,42.0,-7.0,54.0,-9.0,0.0
-46.0,-17.0,14.0,21.0,55.0,100.0,29.0,-8.0,24.0,-10.0,0.0
-43.0,-18.0,2.0,14.0,38.0,95.0,27.0,2.0,18.0,1.0,0.0
-43.0,-15.0,-15.0,-7.0,8.0,88.0,52.0,7.0,27.0,4.0,0.0
-25.0,-4.0,-23.0,-24.0,-29.0,37.0,62.0,4.0,3.0,21.0,0.0
-9.0,0.0,-1.0,-31.0,-53.0,-12.0,40.0,13.0,-5.0,32.0,0.0
-11.0,-7.0,-8.0,-54.0,-85.0,-75.0,21.0,18.0,-6.0,38.0,0.0
1.0,-18.0,-11.0,-57.0,-84.0,-91.0,-2.0,18.0,-15.0,29.0,0.0
16.0,-3.0,6.0,-29.0,-66.0,-64.0,-16.0,13.0,-25.0,29.0,0.0
-2.0,21.0,22.0,9.0,-43.0,-61.0,-36.0,-12.0,-49.0,10.0,0.0
-11.0,23.0,28.0,9.0,-27.0,-54.0,-39.0,-28.0,-46.0,-8.0,0.0
-10.0,16.0,25.0,-13.0,-30.0,-47.0,-41.0,-19.0,-31.0,0.0,0.0
-2.0,3.0,29.0,-4.0,-32.0,-44.0,-51.0,-21.0,-11.0,-1.0,0.0
-7.0,9.0,27.0,6.0,-26.0,-32.0,-51.0,-20.0,3.0,-1.0,0.0
-16.0,4.0,6.0,7.0,-18.0,-14.0,-16.0,-13.0,19.0,-24.0,0.0
-31.0,-8.0,-44.0,-6.0,-19.0,10.0,0.0,-1.0,21.0,-33.0,0.0
-28.0,-13.0,-136.0,-3.0,-18.0,45.0,7.0,0.0,-6.0,-12.0,0.0
-31.0,-10.0,-100.0,9.0,10.0,78.0,8.0,-2.0,-18.0,-6.0,0.0
-26.0,-8.0,1.0,16.0,33.0,78.0,0.0,-11.0,-19.0,1.0,0.0
-7.0,-4.0,-5.0,29.0,22.0,60.0,-9.0,-28.0,-44.0,11.0,0.0
-1.0,0.0,20.0,23.0,25.0,43.0,-28.0,-25.0,-42.0,26.0,0.0
-13.0,-11.0,53.0,11.0,37.0,12.0,-31.0,-13.0,-46.0,21.0,0.0
-16.0,-15.0,43.0,4.0,42.0,-10.0,-4.0,2.0,-37.0,13.0,0.0
-7.0,-14.0,25.0,-13.0,52.0,-2.0,32.0,16.0,-22.0,9.0,0.0
-3.0,-19.0,17.0,-13.0,66.0,16.0,71.0,10.0,-33.0,-3.0,0.0
-3.0,-16.0,16.0,-14.0,62.0,23.0,73.0,-5.0,-34.0,-15.0,0.0
10.0,1.0,23.0,-5.0,14.0,-10.0,54.0,-3.0,-37.0,10.0,0.0
15.0,10.0,36.0,14.0,-35.0,-79.0,44.0,5.0,-16.0,21.0,0.0
18.0,17.0,30.0,10.0,-82.0,-102.0,48.0,18.0,18.0,20.0,0.0
16.0,2.0,-10.0,5.0,-84.0,-67.0,44.0,35.0,47.0,19.0,0.0
10.0,-6.0,-108.0,0.0,-42.0,-23.0,50.0,31.0,48.0,9.0,0.0
6.0,-16.0,-82.0,5.0,-4.0,13.0,43.0,16.0,60.0,1.0,0.0
-10.0,-21.0,-4.0,18.0,17.0,44.0,24.0,9.0,58.0,-1.0,0.0
-6.0,-17.0,26.0,26.0,21.0,66.0,12.0,-11.0,36.0,7.0,0.0
8.0,2.0,55.0,30.0,6.0,55.0,11.0,-20.0,33.0,9.0,0.0
8.0,0.0,41.0,19.0,-17.0,39.0,44.0,-15.0,12.0,1.0,0.0
-2.0,-19.0,-13.0,0.0,-30.0,22.0,88.0,-26.0,-19.0,-20.0,0.0
-10.0,-12.0,22.0,-4.0,-9.0,20.0,78.0,-15.0,-36.0,-9.0,0.0
11.0,3.0,44.0,10.0,-10.0,-18.0,48.0,-1.0,-23.0,17.0,0.0
27.0,1.0,44.0,6.0,-28.0,-57.0,33.0,16.0,-1.0,33.0,0.0
20.0,4.0,31.0,-7.0,-49.0,-73.0,28.0,23.0,6.0,48.0,0.0
17.0,-3.0,17.0,-16.0,-51.0,-61.0,20.0,23.0,1.0,51.0,0.0
14.0,-23.0,6.0,-11.0,-40.0,-46.0,29.0,19.0,-3.0,32.0,0.0
-5.0,-28.0,1.0,0.0,-21.0,-35.0,32.0,12.0,3.0,10.0,0.0
-17.0,-38.0,1.0,-8.0,-18.0,-45.0,1.0,0.0,-1.0,4.0,0.0
-14.0,-27.0,7.0,2.0,-17.0,-51.0,-13.0,-1.0,7.0,5.0,0.0
0.0,-12.0,8.0,10.0,-15.0,-43.0,-14.0,1.0,50.0,7.0,0.0
-9.0,-10.0,-27.0,4.0,-4.0,-5.0,-4.0,2.0,56.0,0.0,0.0
-33.0,-23.0,-9.0,6.0,40.0,31.0,36.0,-14.0,42.0,-11.0,0.0
-44.0,-23.0,17.0,28.0,71.0,75.0,37.0,-20.0,2.0,-32.0,0.0
-40.0,-18.0,20.0,46.0,79.0,98.0,11.0,-37.0,-37.0,-49.0,0.0
-36.0,-29.0,0.0,41.0,68.0,104.0,-3.0,-38.0,-45.0,-49.0,0.0
-28.0,-21.0,2.0,31.0,67.0,74.0,0.0,-13.0,-30.0,-47.0,0.0
-8.0,-18.0,12.0,11.0,56.0,60.0,-5.0,-3.0,-18.0,-34.0,0.0
20.0,-26.0,19.0,0.0,25.0,54.0,-3.0,2.0,-22.0,-20.0,0.0
43.0,0.0,30.0,1.0,13.0,11.0,7.0,-2.0,-20.0,0.0,0.0
62.0,14.0,37.0,4.0,8.0,-25.0,-10.0,-5.0,-18.0,21.0,0.0
69.0,13.0,31.0,-14.0,-24.0,-42.0,-29.0,-16.0,-20.0,37.0,0.0
72.0,13.0,25.0,-17.0,-55.0,-57.0,-48.0,-27.0,-15.0,39.0,0.0
70.0,11.0,13.0,-1.0,-45.0,-64.0,-41.0,-9.0,-5.0,35.0,0.0
58.0,27.0,3.0,14.0,-12.0,-63.0,-29.0,2.0,-5.0,34.0,0.0
44.0,29.0,-19.0,1.0,9.0,-25.0,-17.0,0.0,-15.0,27.0,0.0
41.0,15.0,-70.0,-9.0,29.0,5.0,-4.0,4.0,-5.0,22.0,0.0
37.0,0.0,-152.0,11.0,112.0,52.0,0.0,6.0,15.0,6.0,0.0
22.0,-9.0,-127.0,27.0,131.0,77.0,15.0,22.0,33.0,-5.0,0.0
-4.0,-29.0,-68.0,8.0,82.0,92.0,6.0,30.0,36.0,-13.0,0.0
-14.0,-26.0,-128.0,-10.0,-1.0,68.0,7.0,32.0,12.0,-16.0,0.0
-8.0,-26.0,-77.0,-11.0,-47.0,35.0,-1.0,18.0,3.0,-11.0,0.0
-19.0,-26.0,-48.0,-2.0,-38.0,39.0,10.0,9.0,21.0,-5.0,0.0
-31.0,-5.0,24.0,0.0,-64.0,23.0,2.0,3.0,13.0,-7.0,0.0
-23.0,10.0,40.0,1.0,-98.0,-19.0,-38.0,-17.0,-6.0,2.0,0.0
-16.0,19.0,1.0,9.0,-68.0,-29.0,-51.0,-17.0,-15.0,2.0,0.0
-18.0,6.0,-10.0,19.0,-30.0,-35.0,-40.0,1.0,-22.0,0.0,0.0
-13.0,-9.0,19.0,4.0,-17.0,-39.0,-40.0,1.0,-32.0,-1.0,0.0
-14.0,-20.0,16.0,-8.0,-14.0,-39.0,-60.0,-11.0,-51.0,-9.0,0.0
-11.0,-14.0,-51.0,-14.0,-12.0,-36.0,-60.0,-17.0,-53.0,-6.0,0.0
4.0,2.0,-7.0,-7.0,-43.0,-49.0,-55.0,-10.0,-16.0,14.0,0.0
30.0,13.0,74.0,3.0,-63.0,-43.0,-40.0,6.0,12.0,26.0,0.0
36.0,10.0,55.0,-12.0,-58.0,-39.0,-19.0,12.0,21.0,33.0,0.0
37.0,14.0,39.0,-13.0,-31.0,-28.0,-7.0,14.0,46.0,30.0,0.0
29.0,13.0,47.0,10.0,10.0,-11.0,8.0,12.0,46.0,21.0,0.0
16.0,1.0,38.0,14.0,31.0,18.0,13.0,0.0,13.0,5.0,0.0
2.0,-8.0,14.0,-2.0,41.0,51.0,2.0,-11.0,-20.0,-3.0,0.0
1.0,-14.0,7.0,-18.0,48.0,70.0,-3.0,-9.0,-26.0,-8.0,0.0
-9.0,-28.0,-11.0,-19.0,66.0,96.0,39.0,0.0,-24.0,-31.0,0.0
-21.0,-45.0,-9.0,-15.0,72.0,88.0,43.0,13.0,-28.0,-36.0,0.0
-18.0,-34.0,0.0,-25.0,53.0,37.0,-6.0,1.0,-29.0,-8.0,0.0
-11.0,-24.0,20.0,-14.0,21.0,-7.0,-33.0,-7.0,-44.0,10.0,0.0
-7.0,-9.0,22.0,-24.0,4.0,-29.0,-25.0,-7.0,-44.0,25.0,0.0
10.0,7.0,34.0,-28.0,-20.0,-51.0,-6.0,3.0,-17.0,40.0,0.0
23.0,19.0,48.0,-40.0,-46.0,-60.0,0.0,8.0,-4.0,48.0,0.0
20.0,17.0,47.0,-66.0,-55.0,-57.0,-4.0,13.0,-10.0,44.0,0.0
3.0,15.0,39.0,-51.0,-54.0,-59.0,-4.0,15.0,-20.0,33.0,0.0
-21.0,16.0,31.0,-40.0,-38.0,-39.0,6.0,27.0,-14.0,22.0,0.0
-25.0,16.0,10.0,-34.0,-16.0,-16.0,0.0,28.0,-6.0,13.0,0.0
-18.0,6.0,11.0,-16.0,-13.0,-18.0,-20.0,17.0,14.0,12.0,0.0
4.0,9.0,14.0,-15.0,-9.0,-28.0,-31.0,0.0,24.0,9.0,0.0
10.0,13.0,11.0,-21.0,-10.0,-18.0,-34.0,4.0,31.0,2.0,0.0
0.0,0.0,2.0,-9.0,5.0,27.0,-27.0,9.0,44.0,-2.0,0.0
-18.0,-17.0,0.0,2.0,28.0,55.0,-20.0,-1.0,42.0,-8.0,0.0
-30.0,-13.0,0.0,6.0,50.0,80.0,-34.0,-10.0,12.0,-9.0,0.0
-18.0,-7.0,14.0,9.0,71.0,94.0,-25.0,2.0,9.0,-18.0,0.0
-14.0,-18.0,17.0,16.0,66.0,71.0,-24.0,-7.0,7.0,-44.0,0.0
-4.0,20.0,22.0,24.0,48.0,46.0,-37.0,-26.0,-9.0,-28.0,0.0
-4.0,34.0,17.0,9.0,31.0,24.0,-15.0,-10.0,-36.0,-22.0,0.0
-6.0,19.0,5.0,-22.0,-2.0,-6.0,17.0,8.0,-25.0,-9.0,0.0
8.0,22.0,-4.0,-21.0,-19.0,-56.0,34.0,24.0,0.0,11.0,0.0
31.0,17.0,-98.0,-33.0,-32.0,-70.0,12.0,20.0,-4.0,20.0,0.0
27.0,7.0,-156.0,-40.0,-24.0,-57.0,-11.0,7.0,-23.0,9.0,0.0
11.0,8.0,-119.0,-33.0,-20.0,-44.0,-16.0,6.0,-20.0,-4.0,0.0
10.0,14.0,-166.0,-18.0,-12.0,-26.0,-8.0,17.0,3.0,-4.0,0.0
-6.0,9.0,-114.0,-5.0,-2.0,-14.0,-13.0,15.0,11.0,-14.0,0.0
-12.0,26.0,-1.0,8.0,12.0,-4.0,-1.0,13.0,27.0,-24.0,0.0
-10.0,25.0,20.0,16.0,2.0,0.0,30.0,24.0,48.0,-15.0,0.0
-6.0,22.0,15.0,14.0,-19.0,-9.0,18.0,21.0,39.0,-6.0,0.0
-6.0,7.0,6.0,30.0,-7.0,11.0,-10.0,3.0,44.0,-15.0,0.0
-18.0,-1.0,37.0,39.0,21.0,43.0,-20.0,-11.0,30.0,-17.0,0.0
-28.0,-5.0,46.0,44.0,37.0,63.0,-18.0,-29.0,1.0,-21.0,0.0
-22.0,-13.0,32.0,36.0,46.0,62.0,-16.0,-34.0,-11.0,-27.0,0.0
-25.0,-4.0,14.0,26.0,81.0,68.0,-20.0,-33.0,-21.0,-29.0,0.0
-29.0,-9.0,2.0,22.0,101.0,80.0,16.0,-39.0,-32.0,-40.0,0.0
-21.0,-20.0,20.0,4.0,86.0,53.0,48.0,-31.0,-31.0,-45.0,0.0
-14.0,-18.0,23.0,-10.0,49.0,6.0,26.0,-8.0,-23.0,-26.0,0.0
2.0,-5.0,34.0,-10.0,28.0,-32.0,8.0,0.0,-4.0,10.0,0.0
24.0,5.0,20.0,-1.0,19.0,-63.0,-21.0,3.0,-5.0,29.0,0.0
35.0,19.0,-77.0,5.0,-17.0,-106.0,-26.0,3.0,-3.0,46.0,0.0
39.0,32.0,-103.0,4.0,-68.0,-110.0,0.0,9.0,8.0,42.0,0.0
32.0,39.0,-62.0,-7.0,-79.0,-55.0,23.0,23.0,16.0,30.0,0.0
24.0,20.0,7.0,-6.0,-47.0,-36.0,29.0,10.0,13.0,17.0,0.0
8.0,6.0,54.0,-5.0,-45.0,-37.0,31.0,-1.0,0.0,2.0,0.0
-4.0,-3.0,40.0,-5.0,-63.0,-40.0,35.0,-13.0,11.0,-4.0,0.0
-16.0,-7.0,47.0,10.0,-55.0,-19.0,51.0,-9.0,20.0,-5.0,0.0
-17.0,-9.0,43.0,15.0,-37.0,20.0,54.0,-5.0,8.0,-8.0,0.0
-17.0,-16.0,37.0,15.0,-13.0,45.0,48.0,3.0,-5.0,-7.0,0.0
-27.0,-16.0,23.0,11.0,-5.0,59.0,46.0,-5.0,-7.0,-5.0,0.0
-25.0,-5.0,-81.0,12.0,-10.0,55.0,29.0,-14.0,-12.0,-3.0,0.0
-14.0,-5.0,-84.0,15.0,-1.0,55.0,14.0,-5.0,-6.0,3.0,0.0
-6.0,-1.0,25.0,7.0,6.0,41.0,33.0,7.0,11.0,0.0,0.0
6.0,6.0,51.0,5.0,-9.0,13.0,24.0,28.0,14.0,7.0,0.0
5.0,11.0,45.0,10.0,-21.0,-19.0,9.0,39.0,16.0,23.0,0.0
4.0,20.0,43.0,3.0,-25.0,-39.0,3.0,38.0,18.0,32.0,0.0
-10.0,0.0,23.0,-11.0,-32.0,-33.0,12.0,29.0,4.0,25.0,0.0
-26.0,-12.0,1.0,-5.0,-28.0,-15.0,61.0,32.0,-7.0,13.0,0.0
-23.0,-8.0,-24.0,13.0,-37.0,-32.0,68.0,28.0,-1.0,8.0,0.0
-4.0,2.0,-109.0,7.0,-35.0,-38.0,32.0,23.0,23.0,14.0,0.0
-3.0,2.0,-63.0,1.0,-4.0,-31.0,24.0,8.0,14.0,2.0,0.0
-8.0,-9.0,22.0,5.0,37.0,-12.0,14.0,0.0,14.0,-5.0,0.0
2.0,-3.0,-33.0,6.0,46.0,-5.0,12.0,-11.0,35.0,-2.0,0.0
21.0,27.0,-115.0,9.0,34.0,0.0,-6.0,-29.0,14.0,4.0,0.0
9.0,0.0,-77.0,8.0,47.0,39.0,-4.0,-29.0,-8.0,-5.0,0.0
-8.0,-14.0,25.0,-2.0,52.0,76.0,8.0,-28.0,-17.0,-17.0,0.0
-19.0,-12.0,46.0,-19.0,27.0,77.0,14.0,-12.0,-19.0,-3.0,0.0
-28.0,-6.0,39.0,-18.0,9.0,47.0,6.0,-2.0,-24.0,9.0,0.0
-31.0,-15.0,13.0,-8.0,15.0,23.0,-8.0,-18.0,-38.0,-1.0,0.0
-23.0,-27.0,30.0,-5.0,22.0,-13.0,-14.0,-14.0,-37.0,-4.0,0.0
-20.0,-10.0,47.0,-4.0,11.0,-54.0,-26.0,2.0,-34.0,0.0,0.0
0.0,4.0,51.0,-12.0,-9.0,-96.0,-38.0,7.0,-26.0,17.0,0.0
14.0,2.0,30.0,-15.0,-17.0,-97.0,-35.0,21.0,-23.0,30.0,0.0
8.0,0.0,-26.0,-10.0,-12.0,-70.0,-20.0,25.0,-27.0,33.0,0.0
2.0,-4.0,-3.0,-15.0,-8.0,-64.0,-3.0,24.0,-8.0,25.0,0.0
1.0,-5.0,41.0,-23.0,1.0,-48.0,19.0,21.0,18.0,13.0,0.0
17.0,2.0,40.0,-24.0,2.0,-29.0,40.0,20.0,28.0,3.0,0.0
22.0,6.0,36.0,-23.0,29.0,2.0,58.0,19.0,28.0,-10.0,0.0
18.0,-7.0,23.0,-27.0,46.0,36.0,68.0,10.0,17.0,-22.0,0.0
11.0,-18.0,-10.0,-19.0,50.0,66.0,57.0,20.0,35.0,-13.0,0.0
0.0,-17.0,-33.0,9.0,64.0,103.0,24.0,7.0,23.0,-13.0,0.0
-19.0,-10.0,20.0,37.0,78.0,119.0,-6.0,-9.0,3.0,-33.0,0.0
-23.0,10.0,43.0,61.0,55.0,88.0,-43.0,-15.0,-9.0,-28.0,0.0
-6.0,15.0,58.0,38.0,45.0,81.0,-59.0,-16.0,-18.0,-11.0,0.0
19.0,8.0,36.0,15.0,22.0,33.0,-46.0,0.0,-9.0,7.0,0.0
42.0,18.0,38.0,14.0,0.0,-10.0,-18.0,22.0,15.0,20.0,0.0
39.0,12.0,45.0,2.0,-25.0,-37.0,4.0,22.0,4.0,10.0,0.0
19.0,9.0,38.0,6.0,-53.0,-94.0,12.0,17.0,-7.0,6.0,0.0
13.0,28.0,45.0,12.0,-36.0,-105.0,1.0,16.0,-25.0,22.0,0.0
16.0,8.0,35.0,-13.0,3.0,-87.0,18.0,26.0,-24.0,15.0,0.0
15.0,6.0,27.0,-25.0,-6.0,-86.0,24.0,22.0,-14.0,10.0,0.0
16.0,16.0,43.0,-13.0,-5.0,-69.0,-6.0,23.0,0.0,21.0,0.0
10.0,29.0,9.0,-30.0,-12.0,-40.0,-25.0,24.0,2.0,21.0,0.0
7.0,28.0,-39.0,-39.0,-26.0,-28.0,-22.0,9.0,12.0,17.0,0.0
6.0,15.0,2.0,-9.0,-20.0,-19.0,-13.0,4.0,26.0,20.0,0.0
2.0,1.0,13.0,7.0,-2.0,-9.0,-6.0,-1.0,38.0,7.0,0.0
-6.0,-1.0,30.0,9.0,20.0,17.0,-5.0,5.0,49.0,5.0,0.0
-18.0,2.0,25.0,16.0,49.0,60.0,9.0,8.0,35.0,2.0,0.0
-30.0,-2.0,24.0,18.0,62.0,99.0,12.0,-11.0,13.0,-18.0,0.0
-29.0,-6.0,23.0,15.0,50.0,112.0,2.0,-24.0,-6.0,-22.0,0.0
-17.0,-4.0,16.0,-7.0,13.0,74.0,-17.0,-37.0,-17.0,-26.0,0.0
-15.0,6.0,18.0,-13.0,-36.0,34.0,-27.0,-18.0,2.0,-3.0,0.0
-1.0,27.0,2.0,-11.0,-61.0,-9.0,-34.0,2.0,5.0,25.0,0.0
20.0,22.0,-3.0,-12.0,-68.0,-68.0,-35.0,20.0,-5.0,29.0,0.0
18.0,26.0,18.0,-15.0,-73.0,-97.0,-21.0,32.0,4.0,31.0,0.0
14.0,17.0,15.0,-35.0,-74.0,-85.0,-14.0,29.0,-1.0,32.0,0.0
15.0,9.0,-3.0,-28.0,-63.0,-64.0,16.0,20.0,3.0,20.0,0.0
26.0,6.0,-14.0,-23.0,-57.0,-52.0,17.0,19.0,2.0,13.0,0.0
21.0,12.0,17.0,-27.0,-43.0,-63.0,-13.0,0.0,-36.0,12.0,0.0
18.0,7.0,14.0,-27.0,-31.0,-70.0,-27.0,-28.0,-59.0,6.0,0.0
2.0,8.0,13.0,-13.0,-18.0,-48.0,-32.0,-37.0,-40.0,-8.0,0.0
1.0,11.0,-3.0,1.0,7.0,-18.0,-34.0,-33.0,-22.0,-11.0,0.0
0.0,19.0,-66.0,3.0,15.0,3.0,-36.0,-21.0,-3.0,-8.0,0.0
-25.0,-6.0,-37.0,-5.0,25.0,66.0,-10.0,-4.0,18.0,-20.0,0.0
-45.0,-17.0,-23.0,6.0,55.0,119.0,35.0,16.0,30.0,-39.0,0.0
-39.0,-11.0,-77.0,12.0,83.0,120.0,37.0,16.0,41.0,-24.0,0.0
-18.0,-6.0,-119.0,21.0,98.0,92.0,19.0,4.0,18.0,-20.0,0.0
-26.0,-10.0,-21.0,15.0,83.0,102.0,23.0,-3.0,-5.0,-32.0,0.0
-28.0,-7.0,21.0,2.0,32.0,96.0,64.0,1.0,-11.0,-43.0,0.0
-9.0,19.0,36.0,-1.0,-30.0,43.0,50.0,12.0,-10.0,-27.0,0.0
4.0,22.0,26.0,-17.0,-31.0,-8.0,42.0,32.0,5.0,-3.0,0.0
-3.0,6.0,12.0,-24.0,13.0,-43.0,23.0,30.0,-3.0,7.0,0.0
0.0,0.0,12.0,-38.0,24.0,-49.0,3.0,8.0,-15.0,5.0,0.0
4.0,9.0,21.0,-40.0,0.0,-68.0,-19.0,-17.0,-40.0,-6.0,0.0
17.0,14.0,31.0,-20.0,-26.0,-82.0,2.0,-20.0,-50.0,-13.0,0.0
16.0,3.0,24.0,-26.0,-53.0,-75.0,24.0,-11.0,-37.0,-10.0,0.0
8.0,4.0,-4.0,-46.0,-74.0,-44.0,22.0,0.0,-21.0,-6.0,0.0
10.0,13.0,-8.0,-30.0,-84.0,-18.0,21.0,-6.0,6.0,-7.0,0.0
-2.0,22.0,18.0,3.0,-53.0,7.0,8.0,-6.0,10.0,-19.0,0.0
-26.0,15.0,22.0,13.0,16.0,43.0,-10.0,-15.0,2.0,-25.0,0.0
-63.0,-21.0,7.0,3.0,68.0,84.0,-12.0,-43.0,-16.0,-44.0,0.0
-57.0,-27.0,2.0,7.0,125.0,95.0,-25.0,-63.0,-27.0,-61.0,0.0
-29.0,-5.0,15.0,24.0,141.0,77.0,-32.0,-64.0,-33.0,-50.0,0.0
-11.0,1.0,23.0,37.0,119.0,83.0,-12.0,-47.0,-21.0,-39.0,0.0
-4.0,-8.0,11.0,26.0,96.0,58.0,8.0,-28.0,-1.0,-36.0,0.0
9.0,-16.0,4.0,-8.0,26.0,15.0,11.0,-2.0,16.0,-22.0,0.0
37.0,9.0,18.0,-3.0,-66.0,-49.0,6.0,10.0,25.0,16.0,0.0
61.0,34.0,22.0,-10.0,-139.0,-105.0,16.0,38.0,40.0,36.0,0.0
45.0,25.0,2.0,-22.0,-153.0,-102.0,23.0,54.0,41.0,33.0,0.0
17.0,11.0,-2.0,-17.0,-86.0,-83.0,1.0,25.0,13.0,15.0,0.0
9.0,8.0,-17.0,6.0,-29.0,-88.0,-19.0,1.0,-6.0,-8.0,0.0
19.0,7.0,-113.0,12.0,7.0,-62.0,-6.0,-3.0,-12.0,-17.0,0.0
8.0,-4.0,-127.0,-19.0,-8.0,-37.0,-4.0,-5.0,-67.0,-16.0,0.0
6.0,-40.0,-27.0,-58.0,-47.0,-58.0,-63.0,-14.0,-228.0,-24.0,0.0
16.0,-12.0,15.0,-25.0,-26.0,-30.0,-31.0,-19.0,-65.0,-5.0,0.0
25.0,8.0,11.0,-16.0,-16.0,-19.0,-32.0,-20.0,-6.0,9.0,0.0
25.0,8.0,10.0,-4.0,1.0,7.0,-43.0,-16.0,32.0,8.0,0.0
0.0,-9.0,5.0,5.0,41.0,59.0,-42.0,-4.0,54.0,-5.0,0.0
-22.0,-19.0,-6.0,5.0,59.0,85.0,-27.0,-8.0,25.0,-26.0,0.0
-15.0,-17.0,-17.0,6.0,57.0,85.0,-33.0,-16.0,-5.0,-30.0,0.0
-2.0,-15.0,2.0,16.0,54.0,75.0,-22.0,-8.0,-6.0,-16.0,0.0
-13.0,-14.0,0.0,-3.0,42.0,83.0,57.0,9.0,1.0,-23.0,0.0
-3.0,-9.0,-65.0,-1.0,27.0,55.0,93.0,35.0,26.0,1.0,0.0
19.0,-2.0,-80.0,0.0,8.0,-9.0,49.0,49.0,72.0,41.0,0.0
20.0,29.0,16.0,2.0,-1.0,-57.0,18.0,39.0,92.0,59.0,0.0
21.0,36.0,46.0,33.0,19.0,-81.0,1.0,17.0,77.0,34.0,0.0
14.0,29.0,40.0,44.0,29.0,-79.0,0.0,6.0,77.0,5.0,0.0
1.0,14.0,39.0,37.0,9.0,-72.0,31.0,7.0,71.0,2.0,0.0
0.0,17.0,50.0,35.0,-1.0,-48.0,51.0,11.0,55.0,10.0,0.0
0.0,2.0,31.0,23.0,2.0,-21.0,41.0,10.0,46.0,11.0,0.0
-10.0,-9.0,2.0,-1.0,-1.0,0.0,40.0,12.0,17.0,4.0,0.0
-21.0,-19.0,-5.0,-20.0,-27.0,0.0,29.0,8.0,-11.0,-3.0,0.0
-21.0,-11.0,-3.0,-26.0,-23.0,7.0,-4.0,-1.0,-20.0,-8.0,0.0
-23.0,-16.0,5.0,-14.0,8.0,36.0,-25.0,-14.0,-31.0,-14.0,0.0
-44.0,-26.0,-1.0,2.0,34.0,60.0,-38.0,-18.0,-35.0,-24.0,0.0
-36.0,-20.0,-5.0,11.0,51.0,86.0,-34.0,-24.0,-31.0,-19.0,0.0
-32.0,-24.0,0.0,9.0,56.0,86.0,-29.0,-25.0,-20.0,-19.0,0.0
-42.0,-30.0,-2.0,-7.0,46.0,79.0,-16.0,-14.0,-19.0,-12.0,0.0
-38.0,-29.0,-11.0,-11.0,34.0,75.0,4.0,11.0,5.0,4.0,0.0
-26.0,-14.0,-10.0,-3.0,14.0,29.0,18.0,26.0,35.0,19.0,0.0
5.0,14.0,4.0,4.0,-5.0,-18.0,39.0,23.0,52.0,33.0,0.0
36.0,21.0,19.0,16.0,-9.0,-56.0,42.0,11.0,49.0,39.0,0.0
46.0,31.0,15.0,1.0,-23.0,-73.0,32.0,5.0,49.0,34.0,0.0
42.0,23.0,11.0,-12.0,-18.0,-66.0,20.0,5.0,50.0,37.0,0.0
41.0,6.0,6.0,0.0,8.0,-41.0,33.0,22.0,70.0,39.0,0.0
33.0,-13.0,19.0,7.0,22.0,7.0,44.0,36.0,60.0,34.0,0.0
24.0,-23.0,15.0,4.0,22.0,29.0,47.0,44.0,61.0,39.0,0.0
29.0,-15.0,-2.0,2.0,13.0,11.0,68.0,41.0,46.0,40.0,0.0
35.0,-6.0,-3.0,12.0,11.0,-10.0,52.0,32.0,40.0,37.0,0.0
1.0,-9.0,0.0,17.0,16.0,8.0,55.0,12.0,8.0,20.0,0.0
-35.0,-30.0,-19.0,16.0,19.0,48.0,66.0,-8.0,-30.0,-17.0,0.0
-46.0,-33.0,-19.0,30.0,26.0,74.0,45.0,-36.0,-43.0,-39.0,0.0
-31.0,-18.0,-21.0,18.0,37.0,71.0,22.0,-42.0,-47.0,-24.0,0.0
-12.0,-15.0,-79.0,9.0,53.0,63.0,17.0,-43.0,-60.0,-1.0,0.0
-9.0,-21.0,-68.0,10.0,52.0,55.0,-1.0,-33.0,-62.0,13.0,0.0
5.0,-11.0,4.0,0.0,31.0,17.0,-10.0,-26.0,-57.0,8.0,0.0
18.0,1.0,-3.0,-15.0,4.0,-19.0,3.0,-5.0,-29.0,20.0,0.0
25.0,4.0,-96.0,-10.0,-15.0,-56.0,-12.0,7.0,9.0,33.0,0.0
16.0,20.0,-78.0,14.0,-17.0,-67.0,-48.0,6.0,37.0,33.0,0.0
-3.0,6.0,16.0,11.0,-4.0,-57.0,-54.0,-1.0,50.0,18.0,0.0
-4.0,2.0,-41.0,0.0,0.0,-52.0,-32.0,-9.0,38.0,14.0,0.0
17.0,16.0,-125.0,-2.0,-18.0,-52.0,-35.0,2.0,52.0,38.0,0.0
15.0,11.0,-37.0,0.0,-20.0,-39.0,-39.0,15.0,40.0,46.0,0.0
13.0,-9.0,36.0,5.0,-24.0,-24.0,-37.0,27.0,35.0,41.0,0.0
13.0,-23.0,31.0,2.0,-27.0,-20.0,-43.0,13.0,10.0,39.0,0.0
6.0,-14.0,14.0,0.0,-11.0,0.0,-36.0,10.0,12.0,34.0,0.0
-11.0,-15.0,0.0,10.0,17.0,46.0,-20.0,7.0,1.0,10.0,0.0
-26.0,-32.0,6.0,13.0,46.0,56.0,-25.0,-17.0,-9.0,-10.0,0.0
-31.0,-48.0,8.0,13.0,46.0,74.0,-12.0,-21.0,-12.0,-30.0,0.0
-39.0,-59.0,-4.0,7.0,43.0,98.0,27.0,0.0,-29.0,-52.0,0.0
-33.0,-52.0,5.0,6.0,23.0,78.0,20.0,-3.0,-36.0,-52.0,0.0
-12.0,-36.0,13.0,0.0,-1.0,39.0,-8.0,-10.0,-48.0,-26.0,0.0
5.0,-28.0,24.0,1.0,-14.0,-20.0,-59.0,-1.0,-46.0,-8.0,0.0
25.0,3.0,36.0,-3.0,-43.0,-65.0,-99.0,0.0,-30.0,11.0,0.0
30.0,20.0,26.0,-25.0,-49.0,-93.0,-101.0,-5.0,-18.0,14.0,0.0
33.0,32.0,26.0,-25.0,-42.0,-86.0,-98.0,-4.0,9.0,17.0,0.0
30.0,29.0,23.0,-16.0,-41.0,-74.0,-96.0,2.0,8.0,21.0,0.0
4.0,8.0,6.0,-18.0,-23.0,-55.0,-58.0,-5.0,-9.0,22.0,0.0
-5.0,3.0,-11.0,-39.0,-10.0,-25.0,-38.0,-13.0,-1.0,18.0,0.0
-11.0,8.0,-58.0,-51.0,5.0,2.0,9.0,-20.0,19.0,-1.0,0.0
-17.0,-4.0,-73.0,-29.0,0.0,20.0,47.0,-3.0,22.0,-11.0,0.0
-5.0,-7.0,-30.0,1.0,-35.0,-19.0,30.0,9.0,52.0,2.0,0.0
16.0,21.0,5.0,2.0,-97.0,-46.0,6.0,15.0,60.0,26.0,0.0
-6.0,5.0,-9.0,15.0,-81.0,8.0,7.0,7.0,21.0,11.0,0.0
-46.0,-24.0,-65.0,37.0,-21.0,82.0,7.0,-7.0,-21.0,-11.0,0.0
-68.0,-25.0,-26.0,43.0,4.0,107.0,0.0,-17.0,-26.0,-18.0,0.0
-49.0,-24.0,46.0,47.0,16.0,67.0,-33.0,-44.0,-46.0,-19.0,0.0
-43.0,-23.0,28.0,32.0,15.0,44.0,-42.0,-51.0,-45.0,-12.0,0.0
-46.0,-9.0,22.0,23.0,-12.0,17.0,-47.0,-39.0,-35.0,0.0,0.0
-25.0,-9.0,29.0,23.0,-37.0,-23.0,-56.0,-31.0,-31.0,9.0,0.0
-5.0,-9.0,34.0,19.0,-58.0,-55.0,-52.0,-21.0,-22.0,41.0,0.0
8.0,-7.0,13.0,-5.0,-75.0,-61.0,-11.0,-17.0,-25.0,40.0,0.0
14.0,-18.0,-1.0,-5.0,-72.0,-46.0,28.0,-11.0,-18.0,0.0,0.0
3.0,-16.0,-14.0,5.0,-50.0,-22.0,21.0,1.0,-6.0,-6.0,0.0
5.0,-16.0,-50.0,2.0,-21.0,-9.0,4.0,0.0,5.0,-9.0,0.0
6.0,-21.0,-54.0,3.0,33.0,6.0,-5.0,-12.0,21.0,1.0,0.0
-2.0,-10.0,-75.0,4.0,57.0,26.0,1.0,-18.0,28.0,5.0,0.0
3.0,1.0,9.0,17.0,33.0,17.0,11.0,-32.0,35.0,1.0,0.0
1.0,-1.0,22.0,22.0,23.0,7.0,5.0,-35.0,25.0,-3.0,0.0
-4.0,-1.0,23.0,28.0,11.0,9.0,-29.0,-42.0,25.0,-5.0,0.0
-9.0,-3.0,27.0,27.0,-9.0,13.0,-41.0,-60.0,13.0,-13.0,0.0
-19.0,-17.0,23.0,17.0,-12.0,46.0,-32.0,-51.0,0.0,-37.0,0.0
-21.0,-21.0,14.0,9.0,7.0,66.0,-1.0,-35.0,0.0,-56.0,0.0
-28.0,-11.0,-17.0,6.0,36.0,53.0,3.0,-27.0,7.0,-41.0,0.0
-10.0,-19.0,-11.0,1.0,34.0,51.0,-3.0,-29.0,-2.0,-25.0,0.0
25.0,-8.0,29.0,6.0,20.0,17.0,-10.0,-38.0,-19.0,-5.0,0.0
54.0,6.0,36.0,-2.0,0.0,-24.0,-25.0,-19.0,-14.0,6.0,0.0
63.0,18.0,42.0,-23.0,-66.0,-54.0,-14.0,4.0,11.0,30.0,0.0
75.0,35.0,41.0,-13.0,-96.0,-59.0,10.0,29.0,26.0,49.0,0.0
61.0,32.0,25.0,-13.0,-82.0,-45.0,30.0,27.0,7.0,28.0,0.0
47.0,22.0,26.0,-14.0,-79.0,-55.0,22.0,13.0,-8.0,23.0,0.0
24.0,6.0,4.0,-23.0,-55.0,-37.0,60.0,13.0,-2.0,19.0,0.0
2.0,-13.0,-70.0,-20.0,-26.0,-16.0,128.0,26.0,16.0,9.0,0.0
0.0,13.0,-15.0,0.0,-22.0,-26.0,97.0,35.0,68.0,27.0,0.0
-2.0,46.0,32.0,35.0,-15.0,-46.0,57.0,12.0,74.0,10.0,0.0
0.0,45.0,37.0,44.0,1.0,-25.0,31.0,-5.0,55.0,-3.0,0.0
-4.0,13.0,24.0,19.0,9.0,11.0,-11.0,-15.0,34.0,-10.0,0.0
-26.0,8.0,4.0,4.0,-2.0,36.0,-34.0,-21.0,18.0,-23.0,0.0
-19.0,6.0,7.0,1.0,7.0,65.0,-20.0,-18.0,11.0,-18.0,0.0
-5.0,8.0,-24.0,-7.0,17.0,61.0,13.0,-16.0,13.0,-12.0,0.0
-7.0,5.0,-68.0,-7.0,22.0,48.0,34.0,-5.0,2.0,-1.0,0.0
12.0,4.0,-10.0,-7.0,18.0,29.0,14.0,4.0,10.0,0.0,0.0
20.0,14.0,10.0,-5.0,14.0,-9.0,-21.0,8.0,-7.0,15.0,0.0
7.0,14.0,12.0,5.0,28.0,-47.0,-36.0,0.0,-16.0,10.0,0.0
10.0,2.0,-29.0,-6.0,27.0,-71.0,-45.0,-3.0,-17.0,8.0,0.0
22.0,13.0,-77.0,-8.0,18.0,-76.0,-30.0,-1.0,-21.0,21.0,0.0
24.0,2.0,-6.0,-1.0,16.0,-64.0,-7.0,17.0,-11.0,33.0,0.0
-3.0,-4.0,-22.0,-18.0,1.0,-30.0,29.0,27.0,-10.0,11.0,0.0
-7.0,4.0,-14.0,-17.0,-19.0,-13.0,44.0,21.0,8.0,5.0,0.0
9.0,19.0,18.0,4.0,-30.0,-25.0,36.0,19.0,32.0,10.0,0.0
16.0,11.0,23.0,-5.0,-38.0,-7.0,42.0,17.0,31.0,2.0,0.0
-4.0,-13.0,12.0,-24.0,-57.0,-8.0,55.0,21.0,36.0,-6.0,0.0
-11.0,-14.0,-32.0,-9.0,-18.0,11.0,55.0,25.0,43.0,-6.0,0.0
-19.0,-22.0,-121.0,9.0,34.0,63.0,46.0,17.0,34.0,-18.0,0.0
-32.0,-33.0,-52.0,4.0,64.0,94.0,38.0,5.0,5.0,-32.0,0.0
-37.0,-38.0,0.0,11.0,68.0,91.0,13.0,-17.0,-10.0,-32.0,0.0
-22.0,-13.0,22.0,14.0,69.0,64.0,-22.0,-28.0,-10.0,-22.0,0.0
-5.0,1.0,42.0,19.0,51.0,64.0,-30.0,-31.0,-23.0,-24.0,0.0
-1.0,4.0,-14.0,15.0,4.0,48.0,-19.0,-12.0,-21.0,-3.0,0.0
13.0,0.0,-43.0,5.0,-52.0,-1.0,-13.0,9.0,-13.0,20.0,0.0
24.0,6.0,49.0,-10.0,-63.0,-71.0,-18.0,24.0,0.0,25.0,0.0
15.0,6.0,64.0,-30.0,-66.0,-74.0,-22.0,34.0,-1.0,33.0,0.0
7.0,-8.0,42.0,-51.0,-74.0,-50.0,3.0,47.0,-21.0,23.0,0.0
-4.0,-11.0,19.0,-53.0,-71.0,-50.0,15.0,53.0,-10.0,11.0,0.0
1.0,-7.0,31.0,-30.0,-31.0,-45.0,-5.0,45.0,24.0,7.0,0.0
7.0,14.0,34.0,-15.0,-1.0,-51.0,-30.0,26.0,36.0,4.0,0.0
11.0,8.0,36.0,-2.0,-3.0,-51.0,-42.0,13.0,63.0,0.0,0.0
5.0,-17.0,27.0,-3.0,2.0,-37.0,-27.0,22.0,54.0,-4.0,0.0
-13.0,-41.0,8.0,-9.0,14.0,-7.0,-15.0,20.0,30.0,-22.0,0.0
-24.0,-40.0,9.0,-6.0,14.0,59.0,28.0,14.0,11.0,-46.0,0.0
-31.0,-45.0,8.0,-17.0,4.0,94.0,59.0,8.0,-18.0,-75.0,0.0
-24.0,-45.0,10.0,-24.0,3.0,90.0,50.0,-4.0,-35.0,-73.0,0.0
-15.0,-34.0,26.0,-8.0,21.0,89.0,24.0,-14.0,-47.0,-64.0,0.0
-14.0,-34.0,29.0,6.0,30.0,62.0,5.0,-20.0,-41.0,-53.0,0.0
0.0,-18.0,26.0,16.0,20.0,37.0,2.0,-6.0,-19.0,-18.0,0.0
4.0,-7.0,10.0,1.0,6.0,8.0,-26.0,9.0,-3.0,0.0,0.0
16.0,0.0,3.0,-5.0,-4.0,-14.0,-21.0,19.0,-7.0,12.0,0.0
27.0,3.0,7.0,-3.0,1.0,-36.0,-11.0,27.0,-5.0,11.0,0.0
13.0,9.0,2.0,-9.0,7.0,-52.0,-7.0,18.0,-2.0,4.0,0.0
-1.0,7.0,-1.0,-4.0,23.0,-64.0,0.0,17.0,-5.0,4.0,0.0
-4.0,0.0,-2.0,7.0,45.0,-60.0,-12.0,16.0,0.0,12.0,0.0
5.0,-11.0,-2.0,11.0,59.0,-57.0,-32.0,9.0,-30.0,13.0,0.0
10.0,-18.0,-11.0,-2.0,61.0,-48.0,-34.0,1.0,-46.0,0.0,0.0
-6.0,-22.0,-21.0,3.0,45.0,-33.0,-34.0,8.0,-48.0,0.0,0.0
-20.0,-8.0,-20.0,3.0,3.0,-10.0,-36.0,8.0,-44.0,-1.0,0.0
-34.0,-24.0,12.0,-5.0,-7.0,39.0,-15.0,-7.0,-51.0,-11.0,0.0
-45.0,-40.0,18.0,3.0,26.0,97.0,-17.0,-29.0,-60.0,-37.0,0.0
-40.0,-23.0,5.0,7.0,35.0,102.0,-24.0,-36.0,-32.0,-36.0,0.0
-22.0,-6.0,5.0,5.0,27.0,82.0,-30.0,-39.0,7.0,-22.0,0.0
-4.0,3.0,9.0,0.0,1.0,53.0,-7.0,-27.0,32.0,-7.0,0.0
25.0,22.0,24.0,16.0,-27.0,5.0,3.0,-4.0,51.0,13.0,0.0
40.0,34.0,32.0,32.0,-49.0,-34.0,-23.0,6.0,55.0,28.0,0.0
38.0,39.0,29.0,28.0,-56.0,-68.0,-34.0,5.0,40.0,40.0,0.0
18.0,32.0,4.0,17.0,-61.0,-91.0,-14.0,8.0,10.0,40.0,0.0
0.0,21.0,-21.0,8.0,-57.0,-100.0,13.0,24.0,-7.0,28.0,0.0
-16.0,20.0,-14.0,14.0,-49.0,-88.0,3.0,10.0,0.0,18.0,0.0
-27.0,7.0,-6.0,22.0,-39.0,-62.0,27.0,3.0,-11.0,12.0,0.0
-24.0,-7.0,-11.0,8.0,-26.0,-60.0,38.0,-4.0,-33.0,12.0,0.0
-12.0,1.0,-9.0,2.0,-18.0,-69.0,31.0,-12.0,-35.0,21.0,0.0
-12.0,4.0,-4.0,11.0,-30.0,-48.0,4.0,-6.0,-39.0,18.0,0.0
-36.0,-19.0,-12.0,-1.0,-17.0,-15.0,-1.0,-5.0,-41.0,2.0,0.0
-44.0,-23.0,-53.0,5.0,-1.0,8.0,4.0,-3.0,-30.0,-1.0,0.0
-34.0,-5.0,-100.0,16.0,15.0,27.0,6.0,-7.0,-26.0,-2.0,0.0
-35.0,-20.0,-11.0,5.0,34.0,52.0,-10.0,-14.0,-26.0,-16.0,0.0
-43.0,-23.0,17.0,12.0,54.0,81.0,-27.0,-14.0,-22.0,-11.0,0.0
-34.0,-7.0,-42.0,10.0,66.0,83.0,-18.0,-6.0,-11.0,-13.0,0.0
-28.0,-7.0,-83.0,14.0,70.0,63.0,9.0,-4.0,-18.0,-19.0,0.0
-32.0,-14.0,-9.0,15.0,62.0,71.0,34.0,8.0,-40.0,-11.0,0.0
-23.0,-9.0,12.0,9.0,42.0,52.0,52.0,16.0,-28.0,-3.0,0.0
3.0,6.0,23.0,13.0,9.0,-10.0,25.0,16.0,-17.0,8.0,0.0
18.0,20.0,19.0,6.0,-12.0,-50.0,-26.0,7.0,-29.0,20.0,0.0
5.0,24.0,10.0,-13.0,-27.0,-40.0,-22.0,10.0,-29.0,9.0,0.0
-4.0,32.0,8.0,-8.0,-34.0,-21.0,-8.0,20.0,-5.0,4.0,0.0
6.0,21.0,-12.0,-7.0,-25.0,-14.0,-8.0,14.0,3.0,3.0,0.0
22.0,25.0,-14.0,3.0,-16.0,-8.0,-19.0,-9.0,2.0,13.0,0.0
16.0,28.0,18.0,10.0,18.0,2.0,-23.0,-24.0,5.0,4.0,0.0
2.0,16.0,12.0,10.0,63.0,13.0,-14.0,-16.0,9.0,-5.0,0.0
-9.0,-4.0,18.0,19.0,116.0,22.0,-14.0,-22.0,13.0,-20.0,0.0
-2.0,-8.0,4.0,6.0,115.0,29.0,-12.0,-22.0,5.0,-32.0,0.0
-1.0,-10.0,0.0,8.0,85.0,65.0,0.0,-14.0,-1.0,-52.0,0.0
-8.0,-20.0,20.0,24.0,62.0,78.0,24.0,-12.0,-20.0,-52.0,0.0
-1.0,-21.0,8.0,3.0,6.0,69.0,23.0,-10.0,-25.0,-23.0,0.0
10.0,-16.0,-100.0,1.0,-78.0,55.0,-2.0,10.0,-24.0,-16.0,0.0
21.0,0.0,-144.0,13.0,-112.0,16.0,-19.0,23.0,-17.0,-3.0,0.0
41.0,24.0,-36.0,31.0,-84.0,-17.0,-35.0,22.0,-8.0,7.0,0.0
39.0,50.0,41.0,13.0,-56.0,-49.0,-46.0,13.0,-11.0,19.0,0.0
18.0,36.0,45.0,-3.0,-53.0,-56.0,-33.0,16.0,-6.0,26.0,0.0
7.0,34.0,38.0,-20.0,-56.0,-41.0,-13.0,25.0,2.0,28.0,0.0
18.0,23.0,25.0,-19.0,-36.0,-28.0,0.0,28.0,2.0,15.0,0.0
21.0,19.0,27.0,-24.0,-23.0,-26.0,7.0,28.0,25.0,3.0,0.0
2.0,0.0,7.0,-51.0,-19.0,-2.0,66.0,27.0,29.0,-12.0,0.0
3.0,9.0,-25.0,-49.0,-23.0,9.0,100.0,18.0,55.0,-12.0,0.0
9.0,24.0,9.0,-21.0,-21.0,-8.0,80.0,0.0,51.0,-1.0,0.0
5.0,12.0,23.0,5.0,-6.0,-15.0,54.0,-17.0,31.0,-5.0,0.0
13.0,6.0,20.0,18.0,2.0,-19.0,16.0,-15.0,23.0,0.0,0.0
10.0,6.0,23.0,20.0,21.0,-10.0,-19.0,-10.0,-5.0,-6.0,0.0
-15.0,-19.0,19.0,15.0,49.0,48.0,-27.0,-21.0,-30.0,-26.0,0.0
-30.0,-31.0,17.0,12.0,72.0,97.0,-49.0,-46.0,-45.0,-40.0,0.0
-21.0,-15.0,15.0,38.0,95.0,99.0,-80.0,-67.0,-51.0,-48.0,0.0
-12.0,-21.0,29.0,46.0,100.0,97.0,-78.0,-61.0,-55.0,-38.0,0.0
-8.0,-6.0,41.0,45.0,68.0,57.0,-46.0,-45.0,-43.0,-11.0,0.0
8.0,8.0,46.0,40.0,49.0,-3.0,-45.0,-19.0,-30.0,2.0,0.0
19.0,15.0,2.0,29.0,24.0,-53.0,-17.0,-6.0,-18.0,-1.0,0.0
9.0,-7.0,-54.0,2.0,-35.0,-81.0,10.0,14.0,-22.0,-18.0,0.0
-3.0,-25.0,-31.0,-49.0,-73.0,-70.0,64.0,27.0,-15.0,-18.0,0.0
-4.0,-18.0,-19.0,-68.0,-98.0,-64.0,68.0,41.0,-7.0,-7.0,0.0
2.0,-4.0,-5.0,-51.0,-71.0,-50.0,45.0,43.0,-1.0,1.0,0.0
18.0,5.0,-1.0,-49.0,-43.0,-48.0,33.0,37.0,14.0,14.0,0.0
38.0,29.0,11.0,-41.0,-30.0,-67.0,11.0,32.0,29.0,27.0,0.0
30.0,22.0,11.0,-36.0,-29.0,-75.0,-12.0,18.0,40.0,8.0,0.0
10.0,2.0,5.0,-38.0,-39.0,-36.0,-7.0,7.0,44.0,-17.0,0.0
-5.0,5.0,13.0,-19.0,-37.0,-3.0,0.0,-8.0,42.0,-25.0,0.0
-8.0,-3.0,16.0,8.0,-34.0,44.0,5.0,-8.0,34.0,-32.0,0.0
-6.0,-11.0,12.0,16.0,-12.0,100.0,17.0,0.0,17.0,-24.0,0.0
-18.0,-6.0,-2.0,9.0,-7.0,105.0,12.0,5.0,22.0,-19.0,0.0
-26.0,-21.0,2.0,8.0,-10.0,99.0,11.0,4.0,20.0,-25.0,0.0
-33.0,-38.0,-2.0,6.0,-11.0,85.0,9.0,2.0,-4.0,-14.0,0.0
-27.0,-40.0,-8.0,-8.0,-15.0,82.0,20.0,10.0,-9.0,-12.0,0.0
-14.0,-32.0,0.0,-23.0,-12.0,47.0,25.0,19.0,2.0,-4.0,0.0
-12.0,-14.0,4.0,-23.0,-11.0,3.0,31.0,20.0,10.0,8.0,0.0
-3.0,3.0,10.0,-4.0,-11.0,-27.0,30.0,14.0,15.0,28.0,0.0
-6.0,3.0,10.0,3.0,21.0,-26.0,2.0,7.0,0.0,20.0,0.0
-3.0,-8.0,7.0,7.0,55.0,-19.0,-24.0,6.0,-5.0,6.0,0.0
-1.0,-8.0,-13.0,18.0,70.0,11.0,-42.0,-7.0,-6.0,4.0,0.0
10.0,11.0,-86.0,39.0,69.0,3.0,-42.0,-24.0,5.0,12.0,0.0
6.0,17.0,-38.0,46.0,62.0,-6.0,-15.0,-39.0,11.0,4.0,0.0
4.0,12.0,30.0,20.0,25.0,-10.0,14.0,-42.0,16.0,1.0,0.0
29.0,18.0,-33.0,-5.0,-34.0,-18.0,35.0,-18.0,59.0,14.0,0.0
48.0,38.0,-64.0,13.0,-81.0,-11.0,42.0,-9.0,70.0,33.0,0.0
43.0,41.0,14.0,28.0,-97.0,-12.0,27.0,-15.0,35.0,29.0,0.0
24.0,18.0,21.0,22.0,-48.0,34.0,0.0,-16.0,18.0,9.0,0.0
19.0,12.0,8.0,21.0,12.0,58.0,0.0,-28.0,2.0,4.0,0.0
19.0,14.0,13.0,12.0,57.0,63.0,1.0,-42.0,-24.0,2.0,0.0
17.0,9.0,10.0,-2.0,51.0,36.0,-3.0,-35.0,-26.0,9.0,0.0
27.0,16.0,4.0,-23.0,16.0,-3.0,15.0,-8.0,-20.0,22.0,0.0
37.0,27.0,13.0,-34.0,-13.0,-55.0,12.0,-5.0,-22.0,32.0,0.0
36.0,12.0,17.0,-39.0,-19.0,-79.0,10.0,-10.0,-29.0,30.0,0.0
44.0,4.0,-21.0,-43.0,-14.0,-59.0,18.0,4.0,-22.0,24.0,0.0
34.0,6.0,-97.0,-54.0,-11.0,-54.0,-7.0,16.0,-19.0,16.0,0.0
19.0,7.0,-44.0,-33.0,2.0,-48.0,-29.0,-3.0,-31.0,15.0,0.0
18.0,11.0,36.0,-17.0,27.0,-34.0,-35.0,-3.0,-34.0,17.0,0.0
18.0,19.0,31.0,-13.0,39.0,-9.0,-9.0,-1.0,-4.0,17.0,0.0
14.0,24.0,-56.0,-8.0,9.0,7.0,39.0,15.0,32.0,24.0,0.0
6.0,5.0,-16.0,-13.0,-23.0,9.0,68.0,28.0,43.0,22.0,0.0
-4.0,-11.0,16.0,-19.0,-19.0,26.0,68.0,15.0,49.0,14.0,0.0
-18.0,-4.0,2.0,-11.0,-34.0,47.0,66.0,0.0,40.0,4.0,0.0
-26.0,-10.0,7.0,0.0,-47.0,57.0,41.0,-2.0,28.0,-7.0,0.0
-25.0,-9.0,7.0,18.0,-3.0,79.0,8.0,-16.0,2.0,-7.0,0.0
-18.0,-13.0,0.0,18.0,19.0,94.0,0.0,-15.0,2.0,-9.0,0.0
-7.0,-5.0,4.0,11.0,8.0,78.0,-6.0,-16.0,-3.0,-24.0,0.0
3.0,-4.0,14.0,9.0,-7.0,49.0,0.0,5.0,-18.0,-17.0,0.0
15.0,-2.0,16.0,5.0,-29.0,-1.0,0.0,9.0,-20.0,-2.0,0.0
25.0,10.0,25.0,7.0,-41.0,-47.0,-23.0,5.0,-23.0,15.0,0.0
33.0,27.0,30.0,7.0,-48.0,-71.0,-31.0,1.0,-30.0,22.0,0.0
36.0,32.0,34.0,-5.0,-40.0,-69.0,-44.0,-4.0,-20.0,20.0,0.0
25.0,32.0,-8.0,-10.0,-30.0,-55.0,-39.0,-9.0,-18.0,18.0,0.0
21.0,42.0,-6.0,-1.0,-24.0,-47.0,-44.0,-10.0,-20.0,16.0,0.0
28.0,32.0,26.0,2.0,-22.0,-38.0,-40.0,0.0,9.0,32.0,0.0
13.0,36.0,0.0,-4.0,-20.0,-32.0,-37.0,1.0,31.0,17.0,0.0
5.0,20.0,-4.0,-6.0,-8.0,-28.0,-30.0,-9.0,47.0,10.0,0.0
-1.0,18.0,8.0,4.0,13.0,-12.0,-20.0,-1.0,48.0,5.0,0.0
-9.0,0.0,12.0,7.0,24.0,4.0,-5.0,-1.0,52.0,-6.0,0.0
-23.0,-18.0,10.0,11.0,41.0,38.0,-14.0,0.0,14.0,-24.0,0.0
-25.0,-9.0,10.0,8.0,49.0,87.0,-14.0,1.0,24.0,-21.0,0.0
-26.0,-9.0,13.0,10.0,48.0,95.0,-14.0,-22.0,0.0,-19.0,0.0
-27.0,-8.0,13.0,0.0,31.0,89.0,-15.0,-33.0,-6.0,-20.0,0.0
-25.0,-4.0,-44.0,-8.0,19.0,61.0,5.0,-22.0,0.0,-21.0,0.0
-22.0,0.0,-13.0,-3.0,2.0,34.0,28.0,-5.0,-6.0,-25.0,0.0
-9.0,13.0,30.0,2.0,-5.0,5.0,57.0,2.0,-13.0,-10.0,0.0
2.0,18.0,54.0,6.0,-1.0,-31.0,41.0,9.0,-7.0,0.0,0.0
0.0,17.0,42.0,15.0,6.0,-31.0,-1.0,14.0,-17.0,-5.0,0.0
3.0,4.0,28.0,13.0,2.0,-30.0,0.0,21.0,-23.0,2.0,0.0
15.0,15.0,-26.0,4.0,-1.0,-46.0,-1.0,14.0,-37.0,3.0,0.0
6.0,16.0,-101.0,4.0,-10.0,-67.0,-38.0,-14.0,-69.0,-14.0,0.0
2.0,12.0,-25.0,7.0,-8.0,-68.0,-44.0,-4.0,-52.0,-12.0,0.0
-1.0,2.0,15.0,-1.0,-11.0,-48.0,-42.0,17.0,-23.0,-4.0,0.0
-2.0,-12.0,7.0,2.0,-15.0,-20.0,-15.0,20.0,10.0,2.0,0.0
-7.0,-16.0,-4.0,-3.0,-5.0,0.0,1.0,22.0,30.0,-1.0,0.0
-19.0,-15.0,-32.0,-10.0,19.0,29.0,4.0,10.0,33.0,-6.0,0.0
-26.0,-17.0,-1.0,-3.0,43.0,72.0,1.0,2.0,43.0,-25.0,0.0
-31.0,-14.0,-45.0,19.0,42.0,94.0,-8.0,0.0,24.0,-44.0,0.0
-33.0,-13.0,4.0,40.0,48.0,93.0,-14.0,-2.0,15.0,-31.0,0.0
-29.0,-11.0,34.0,27.0,62.0,60.0,-14.0,5.0,-8.0,-25.0,0.0
-17.0,-15.0,23.0,23.0,62.0,53.0,0.0,21.0,-8.0,-15.0,0.0
-4.0,-8.0,22.0,19.0,46.0,16.0,-1.0,27.0,8.0,-11.0,0.0
16.0,0.0,27.0,11.0,37.0,-27.0,-13.0,30.0,20.0,6.0,0.0
33.0,4.0,39.0,9.0,18.0,-59.0,-33.0,18.0,3.0,26.0,0.0
30.0,-8.0,38.0,-12.0,7.0,-62.0,-19.0,15.0,-7.0,27.0,0.0
31.0,-7.0,45.0,-14.0,8.0,-53.0,-12.0,10.0,-3.0,23.0,0.0
33.0,3.0,45.0,-5.0,13.0,-56.0,-18.0,9.0,7.0,23.0,0.0
25.0,-16.0,44.0,-6.0,5.0,-47.0,31.0,6.0,-8.0,7.0,0.0
11.0,-41.0,15.0,-26.0,-21.0,-13.0,88.0,1.0,-28.0,-9.0,0.0
0.0,-47.0,-50.0,-48.0,-28.0,9.0,114.0,0.0,-35.0,-15.0,0.0
3.0,-30.0,-139.0,-27.0,-19.0,-17.0,50.0,1.0,-20.0,-2.0,0.0
4.0,-24.0,-160.0,-20.0,-24.0,-9.0,18.0,0.0,1.0,4.0,0.0
-16.0,-31.0,-146.0,-18.0,-13.0,20.0,55.0,-4.0,15.0,-7.0,0.0
-23.0,-23.0,-69.0,-9.0,20.0,51.0,69.0,-13.0,20.0,-25.0,0.0
-22.0,-5.0,36.0,7.0,57.0,87.0,52.0,-26.0,28.0,-14.0,0.0
-17.0,8.0,58.0,16.0,65.0,71.0,-6.0,-46.0,7.0,-8.0,0.0
-3.0,19.0,59.0,20.0,51.0,37.0,-50.0,-54.0,-28.0,1.0,0.0
-5.0,5.0,47.0,16.0,28.0,14.0,-24.0,-32.0,-29.0,2.0,0.0
-15.0,-15.0,25.0,-11.0,-4.0,-24.0,35.0,0.0,-31.0,-4.0,0.0
2.0,-12.0,29.0,-42.0,-27.0,-71.0,19.0,-13.0,-29.0,1.0,0.0
27.0,19.0,42.0,-29.0,-39.0,-77.0,-19.0,-22.0,-26.0,17.0,0.0
40.0,31.0,57.0,-17.0,-47.0,-71.0,-36.0,-18.0,-12.0,17.0,0.0
26.0,15.0,52.0,-21.0,-49.0,-58.0,-33.0,-4.0,-1.0,15.0,0.0
34.0,23.0,48.0,-13.0,-62.0,-54.0,-17.0,14.0,-1.0,28.0,0.0
17.0,25.0,54.0,-11.0,-78.0,-72.0,5.0,23.0,-10.0,34.0,0.0
-10.0,-4.0,35.0,-25.0,-66.0,-66.0,15.0,9.0,-26.0,27.0,0.0
-27.0,-13.0,35.0,-18.0,-32.0,-55.0,15.0,1.0,-29.0,13.0,0.0
-28.0,-9.0,34.0,-9.0,-1.0,-35.0,23.0,-16.0,0.0,5.0,0.0
-29.0,-10.0,24.0,-6.0,40.0,6.0,18.0,-27.0,17.0,-14.0,0.0
-45.0,-20.0,7.0,15.0,71.0,82.0,41.0,-41.0,7.0,-37.0,0.0
-82.0,-36.0,9.0,32.0,112.0,148.0,58.0,-52.0,-12.0,-65.0,0.0
-105.0,-37.0,-2.0,27.0,156.0,201.0,66.0,-50.0,-30.0,-83.0,0.0
-108.0,-26.0,-9.0,12.0,155.0,225.0,37.0,-55.0,-64.0,-91.0,0.0
-83.0,-28.0,-8.0,-2.0,113.0,172.0,28.0,-47.0,-54.0,-74.0,0.0
-51.0,-6.0,1.0,3.0,29.0,57.0,1.0,-35.0,-22.0,-32.0,0.0
-2.0,16.0,28.0,6.0,-26.0,-59.0,-57.0,-18.0,-3.0,2.0,0.0
17.0,10.0,28.0,0.0,-54.0,-116.0,-62.0,-1.0,7.0,20.0,0.0
17.0,15.0,17.0,-10.0,-84.0,-135.0,-28.0,25.0,6.0,46.0,0.0
23.0,24.0,22.0,-10.0,-96.0,-134.0,-42.0,28.0,4.0,48.0,0.0
32.0,24.0,8.0,-10.0,-95.0,-118.0,-54.0,29.0,17.0,42.0,0.0
27.0,16.0,18.0,-9.0,-48.0,-62.0,-45.0,24.0,10.0,34.0,0.0
33.0,13.0,11.0,-3.0,6.0,-36.0,-25.0,20.0,-3.0,30.0,0.0
25.0,20.0,-95.0,4.0,-1.0,-44.0,-23.0,19.0,-7.0,24.0,0.0
15.0,39.0,-157.0,-6.0,-30.0,-37.0,-56.0,21.0,0.0,16.0,0.0
24.0,27.0,-133.0,-24.0,-50.0,-25.0,-61.0,22.0,2.0,18.0,0.0
17.0,23.0,-29.0,-19.0,-31.0,-7.0,-45.0,12.0,5.0,25.0,0.0
5.0,3.0,12.0,-7.0,-10.0,49.0,-17.0,0.0,0.0,-2.0,0.0
7.0,6.0,24.0,7.0,-20.0,76.0,-14.0,12.0,25.0,-13.0,0.0
1.0,5.0,21.0,26.0,4.0,66.0,-9.0,21.0,41.0,-16.0,0.0
-6.0,-7.0,-28.0,38.0,1.0,73.0,12.0,17.0,25.0,-32.0,0.0
-9.0,10.0,-6.0,35.0,-40.0,52.0,40.0,28.0,41.0,-19.0,0.0
-2.0,25.0,-67.0,28.0,-89.0,0.0,20.0,28.0,25.0,-8.0,0.0
20.0,38.0,-31.0,15.0,-87.0,-43.0,1.0,31.0,21.0,3.0,0.0
37.0,19.0,38.0,-6.0,-78.0,-74.0,-12.0,33.0,27.0,9.0,0.0
33.0,7.0,46.0,-6.0,-70.0,-70.0,-10.0,32.0,29.0,11.0,0.0
19.0,-2.0,30.0,-10.0,-30.0,-28.0,28.0,40.0,30.0,-1.0,0.0
4.0,-10.0,3.0,-10.0,-44.0,-23.0,49.0,21.0,-2.0,-2.0,0.0
24.0,-12.0,33.0,-46.0,-60.0,-55.0,-16.0,3.0,-170.0,12.0,0.0
20.0,28.0,-64.0,-9.0,-17.0,-18.0,10.0,8.0,-20.0,25.0,0.0
0.0,7.0,-79.0,-18.0,2.0,-21.0,-47.0,-18.0,-133.0,26.0,0.0
-21.0,-98.0,9.0,-93.0,-3.0,-86.0,-202.0,-61.0,-658.0,1.0,0.0
-38.0,-62.0,17.0,-51.0,24.0,4.0,-120.0,-34.0,-375.0,-15.0,0.0
-47.0,-13.0,-82.0,8.0,70.0,127.0,31.0,-17.0,48.0,-32.0,0.0
-30.0,-23.0,-69.0,22.0,97.0,151.0,56.0,-25.0,68.0,-37.0,0.0
-2.0,0.0,26.0,49.0,109.0,131.0,58.0,-20.0,72.0,-25.0,0.0
2.0,1.0,34.0,61.0,88.0,88.0,82.0,-12.0,93.0,-19.0,0.0
6.0,13.0,38.0,57.0,63.0,78.0,107.0,16.0,121.0,-6.0,0.0
25.0,10.0,23.0,21.0,29.0,31.0,109.0,45.0,150.0,1.0,0.0
35.0,8.0,22.0,-7.0,-24.0,-52.0,77.0,34.0,128.0,3.0,0.0
47.0,24.0,46.0,14.0,-32.0,-80.0,29.0,18.0,95.0,6.0,0.0
40.0,40.0,56.0,39.0,-22.0,-65.0,13.0,23.0,80.0,13.0,0.0
22.0,42.0,38.0,18.0,-29.0,-51.0,10.0,44.0,80.0,23.0,0.0
16.0,31.0,20.0,-5.0,-46.0,-51.0,-6.0,62.0,72.0,22.0,0.0
13.0,50.0,17.0,-7.0,-39.0,-40.0,-14.0,59.0,66.0,10.0,0.0
1.0,33.0,14.0,-28.0,-36.0,-24.0,-6.0,41.0,45.0,9.0,0.0
-27.0,15.0,-7.0,-31.0,-24.0,-10.0,1.0,24.0,23.0,-1.0,0.0
-36.0,10.0,-59.0,-12.0,3.0,-4.0,12.0,24.0,14.0,-7.0,0.0
-37.0,-5.0,-41.0,-5.0,15.0,15.0,-5.0,11.0,3.0,-18.0,0.0
-51.0,-16.0,-12.0,6.0,34.0,52.0,-27.0,-5.0,-13.0,-31.0,0.0
-63.0,-20.0,6.0,16.0,60.0,82.0,-23.0,-11.0,-22.0,-44.0,0.0
-60.0,-14.0,4.0,18.0,83.0,103.0,-14.0,-4.0,-16.0,-28.0,0.0
-42.0,0.0,5.0,17.0,75.0,100.0,-3.0,-2.0,-7.0,-18.0,0.0
-19.0,2.0,13.0,27.0,60.0,76.0,21.0,5.0,-14.0,-29.0,0.0
-15.0,-25.0,-3.0,21.0,23.0,25.0,-2.0,4.0,-144.0,-23.0,0.0
-9.0,0.0,5.0,26.0,-4.0,7.0,38.0,13.0,0.0,-14.0,0.0
24.0,35.0,16.0,13.0,-36.0,-51.0,44.0,25.0,99.0,11.0,0.0
45.0,55.0,20.0,14.0,-38.0,-72.0,35.0,33.0,93.0,38.0,0.0
38.0,47.0,-54.0,26.0,-15.0,-63.0,21.0,32.0,58.0,43.0,0.0
22.0,35.0,-137.0,41.0,1.0,-44.0,17.0,19.0,21.0,38.0,0.0
3.0,22.0,-136.0,34.0,26.0,-35.0,0.0,7.0,8.0,21.0,0.0
-1.0,10.0,35.0,7.0,10.0,8.0,20.0,3.0,21.0,-6.0,0.0
-1.0,-2.0,45.0,-4.0,-13.0,13.0,30.0,-2.0,-2.0,-6.0,0.0
-6.0,-49.0,39.0,-41.0,-32.0,-19.0,-38.0,-13.0,-170.0,2.0,0.0
-12.0,-102.0,0.0,-90.0,-38.0,-69.0,-152.0,-15.0,-592.0,6.0,0.0
-30.0,-35.0,-89.0,0.0,-3.0,40.0,0.0,12.0,-143.0,0.0,0.0
-60.0,-27.0,-142.0,25.0,-3.0,97.0,69.0,22.0,35.0,-29.0,0.0
-69.0,-45.0,-78.0,13.0,-17.0,67.0,49.0,-4.0,35.0,-49.0,0.0
-48.0,-20.0,34.0,25.0,-4.0,24.0,20.0,-32.0,52.0,-40.0,0.0
-25.0,-18.0,53.0,14.0,2.0,-9.0,-31.0,-47.0,-60.0,-38.0,0.0
-7.0,-12.0,68.0,7.0,-7.0,-41.0,-63.0,-54.0,-118.0,-19.0,0.0
19.0,16.0,82.0,11.0,-17.0,-58.0,-21.0,-44.0,37.0,4.0,0.0
28.0,33.0,73.0,4.0,-25.0,-91.0,-5.0,-25.0,47.0,21.0,0.0
40.0,37.0,30.0,9.0,-24.0,-98.0,0.0,-16.0,36.0,29.0,0.0
42.0,52.0,4.0,19.0,-14.0,-86.0,-31.0,-26.0,18.0,21.0,0.0
25.0,31.0,-15.0,15.0,1.0,-58.0,-48.0,-22.0,12.0,9.0,0.0
21.0,30.0,14.0,10.0,12.0,-43.0,-47.0,-22.0,23.0,13.0,0.0
19.0,19.0,23.0,8.0,18.0,-15.0,-26.0,-3.0,23.0,9.0,0.0
7.0,2.0,14.0,15.0,17.0,9.0,-13.0,11.0,27.0,7.0,0.0
-5.0,0.0,14.0,11.0,9.0,8.0,11.0,9.0,41.0,14.0,0.0
-19.0,18.0,-2.0,4.0,0.0,20.0,58.0,19.0,51.0,9.0,0.0
-34.0,16.0,-1.0,33.0,22.0,42.0,51.0,12.0,59.0,-15.0,0.0
-48.0,2.0,13.0,43.0,49.0,75.0,24.0,-11.0,59.0,-40.0,0.0
-48.0,5.0,22.0,38.0,66.0,99.0,23.0,-8.0,59.0,-47.0,0.0
-23.0,22.0,13.0,32.0,72.0,98.0,19.0,-1.0,75.0,-36.0,0.0
-9.0,7.0,-60.0,10.0,60.0,80.0,26.0,0.0,70.0,-26.0,0.0
-2.0,5.0,-110.0,5.0,33.0,38.0,22.0,9.0,68.0,-2.0,0.0
11.0,16.0,-14.0,-3.0,7.0,0.0,16.0,13.0,59.0,10.0,0.0
25.0,19.0,33.0,1.0,-11.0,-36.0,20.0,8.0,50.0,19.0,0.0
39.0,24.0,39.0,12.0,-37.0,-64.0,42.0,15.0,44.0,19.0,0.0
25.0,9.0,46.0,7.0,-6.0,-71.0,22.0,3.0,19.0,24.0,0.0
12.0,5.0,37.0,-1.0,-3.0,-69.0,17.0,-6.0,-11.0,22.0,0.0
12.0,-43.0,34.0,-21.0,-16.0,-95.0,-59.0,-15.0,-229.0,25.0,0.0
15.0,-88.0,31.0,-40.0,-46.0,-144.0,-153.0,-21.0,-539.0,9.0,0.0
4.0,-16.0,33.0,23.0,-31.0,-57.0,1.0,9.0,-72.0,-1.0,0.0
-1.0,7.0,1.0,17.0,-25.0,-17.0,48.0,15.0,61.0,-4.0,0.0
-9.0,1.0,-37.0,14.0,-1.0,17.0,67.0,11.0,75.0,-6.0,0.0
-20.0,5.0,-32.0,28.0,41.0,67.0,69.0,11.0,95.0,-12.0,0.0
-27.0,-6.0,1.0,18.0,52.0,107.0,69.0,8.0,95.0,-23.0,0.0
-17.0,-15.0,0.0,20.0,53.0,86.0,30.0,-9.0,85.0,-44.0,0.0
-16.0,-7.0,0.0,43.0,53.0,61.0,-8.0,-15.0,50.0,-41.0,0.0
-13.0,-1.0,7.0,43.0,41.0,35.0,-21.0,-8.0,55.0,-17.0,0.0
-3.0,0.0,-40.0,24.0,29.0,30.0,-7.0,17.0,61.0,6.0,0.0
14.0,2.0,-145.0,17.0,-5.0,0.0,5.0,32.0,70.0,22.0,0.0
30.0,7.0,-97.0,16.0,-36.0,-41.0,-8.0,23.0,66.0,31.0,0.0
22.0,8.0,-22.0,-10.0,-46.0,-51.0,-21.0,20.0,37.0,34.0,0.0
24.0,9.0,-17.0,-47.0,-51.0,-41.0,-19.0,17.0,10.0,38.0,0.0
27.0,6.0,-3.0,-39.0,-44.0,-28.0,-31.0,6.0,5.0,32.0,0.0
24.0,2.0,1.0,-16.0,-25.0,-23.0,-27.0,-11.0,0.0,16.0,0.0
17.0,-10.0,-34.0,-12.0,-15.0,-21.0,-47.0,-36.0,-55.0,13.0,0.0
-3.0,-37.0,-131.0,-27.0,-11.0,-17.0,-64.0,-24.0,-163.0,6.0,0.0
-4.0,1.0,-47.0,-9.0,10.0,18.0,-11.0,-12.0,-2.0,2.0,0.0
-7.0,-3.0,15.0,0.0,19.0,43.0,-18.0,-30.0,16.0,-4.0,0.0
-20.0,-13.0,27.0,4.0,34.0,73.0,0.0,-32.0,19.0,-11.0,0.0
-5.0,4.0,35.0,15.0,27.0,72.0,36.0,-31.0,47.0,0.0,0.0
-2.0,-2.0,29.0,9.0,18.0,60.0,47.0,-32.0,55.0,0.0,0.0
1.0,1.0,24.0,14.0,21.0,51.0,55.0,-29.0,32.0,0.0,0.0
18.0,32.0,52.0,30.0,0.0,28.0,60.0,-5.0,18.0,13.0,0.0
22.0,35.0,8.0,1.0,-30.0,15.0,72.0,11.0,16.0,22.0,0.0
19.0,23.0,-110.0,-19.0,-42.0,-7.0,111.0,14.0,25.0,22.0,0.0
25.0,22.0,-76.0,-8.0,-23.0,-11.0,100.0,10.0,33.0,26.0,0.0
17.0,10.0,33.0,-3.0,-10.0,-31.0,41.0,5.0,39.0,28.0,0.0
0.0,25.0,47.0,3.0,-4.0,-80.0,-19.0,-15.0,47.0,28.0,0.0
14.0,21.0,49.0,11.0,5.0,-116.0,-44.0,-10.0,67.0,28.0,0.0
25.0,29.0,49.0,11.0,35.0,-96.0,-51.0,-5.0,67.0,30.0,0.0
3.0,6.0,46.0,-1.0,40.0,-41.0,-50.0,-9.0,44.0,21.0,0.0
7.0,15.0,51.0,-8.0,17.0,-6.0,-36.0,-4.0,27.0,20.0,0.0
16.0,11.0,27.0,-19.0,4.0,13.0,2.0,6.0,43.0,9.0,0.0
10.0,6.0,28.0,-31.0,-16.0,21.0,24.0,16.0,41.0,8.0,0.0
-7.0,3.0,33.0,-19.0,-17.0,52.0,14.0,3.0,25.0,10.0,0.0
-4.0,0.0,28.0,0.0,-44.0,38.0,-11.0,-7.0,11.0,0.0,0.0
-10.0,-15.0,28.0,-10.0,-74.0,12.0,-31.0,-21.0,0.0,-7.0,0.0
-14.0,-24.0,15.0,-17.0,-43.0,36.0,-38.0,-24.0,-7.0,-12.0,0.0
-6.0,-17.0,24.0,-5.0,-37.0,30.0,-51.0,-24.0,-14.0,-12.0,0.0
23.0,8.0,41.0,-7.0,-50.0,0.0,-28.0,-11.0,2.0,-3.0,0.0
30.0,10.0,26.0,-36.0,-56.0,-52.0,1.0,26.0,56.0,29.0,0.0
14.0,20.0,37.0,-29.0,-47.0,-70.0,-14.0,-1.0,48.0,22.0,0.0
8.0,16.0,56.0,-44.0,-29.0,-102.0,-109.0,-50.0,-141.0,32.0,0.0
0.0,-73.0,37.0,-108.0,-37.0,-149.0,-227.0,-83.0,-559.0,17.0,0.0
-15.0,-29.0,7.0,-72.0,-19.0,-54.0,-33.0,-34.0,-142.0,-3.0,0.0
-27.0,-12.0,-12.0,-49.0,0.0,32.0,86.0,14.0,63.0,0.0,0.0
-14.0,8.0,-1.0,-25.0,34.0,31.0,86.0,23.0,77.0,-1.0,0.0
7.0,17.0,23.0,-22.0,37.0,-19.0,35.0,24.0,109.0,11.0,0.0
17.0,33.0,36.0,-15.0,5.0,-20.0,47.0,30.0,109.0,16.0,0.0
5.0,11.0,19.0,-14.0,-20.0,-1.0,84.0,43.0,99.0,-2.0,0.0
-17.0,-3.0,15.0,5.0,-11.0,11.0,53.0,20.0,66.0,-13.0,0.0
-23.0,-12.0,-12.0,24.0,-3.0,48.0,23.0,1.0,44.0,-13.0,0.0
-27.0,-18.0,-5.0,2.0,3.0,84.0,2.0,-10.0,33.0,-12.0,0.0
-18.0,-5.0,10.0,-2.0,17.0,84.0,-21.0,-22.0,16.0,-5.0,0.0
-1.0,12.0,-13.0,1.0,16.0,72.0,-33.0,-20.0,22.0,13.0,0.0
0.0,25.0,1.0,1.0,13.0,25.0,-35.0,-19.0,8.0,16.0,0.0
14.0,33.0,28.0,-4.0,58.0,-5.0,-8.0,-14.0,11.0,18.0,0.0
16.0,-7.0,18.0,-16.0,58.0,-20.0,12.0,-9.0,-5.0,18.0,0.0
18.0,-13.0,4.0,-24.0,26.0,-57.0,21.0,8.0,-15.0,18.0,0.0
9.0,-3.0,-15.0,-22.0,9.0,-63.0,41.0,6.0,-14.0,11.0,0.0
20.0,-1.0,-5.0,-17.0,-9.0,-62.0,25.0,-16.0,-13.0,8.0,0.0
35.0,3.0,4.0,0.0,-39.0,-53.0,0.0,-37.0,-1.0,-5.0,0.0
37.0,25.0,17.0,10.0,-98.0,-59.0,-20.0,-24.0,9.0,-3.0,0.0
50.0,26.0,16.0,-10.0,-149.0,-80.0,-22.0,-12.0,5.0,8.0,0.0
48.0,0.0,-1.0,-36.0,-106.0,-72.0,-53.0,-23.0,-151.0,1.0,0.0
43.0,0.0,0.0,-13.0,-45.0,-32.0,-15.0,-20.0,-69.0,-11.0,0.0
33.0,26.0,-6.0,14.0,-9.0,18.0,16.0,-11.0,40.0,-9.0,0.0
5.0,0.0,-18.0,17.0,19.0,70.0,7.0,-14.0,43.0,-24.0,0.0
-29.0,-10.0,-15.0,12.0,39.0,99.0,2.0,-21.0,31.0,-32.0,0.0
-53.0,-29.0,-18.0,6.0,60.0,112.0,28.0,-23.0,16.0,-32.0,0.0
-35.0,-33.0,-43.0,6.0,54.0,98.0,35.0,-12.0,11.0,-31.0,0.0
-30.0,-18.0,-63.0,3.0,37.0,73.0,20.0,6.0,12.0,-12.0,0.0
-12.0,-17.0,-14.0,2.0,11.0,29.0,15.0,25.0,28.0,10.0,0.0
6.0,-19.0,-62.0,2.0,2.0,-23.0,17.0,31.0,20.0,22.0,0.0
6.0,-15.0,-146.0,-5.0,-6.0,-56.0,-15.0,15.0,0.0,12.0,0.0
9.0,-11.0,-109.0,-13.0,-13.0,-60.0,-26.0,10.0,6.0,14.0,0.0
9.0,2.0,-20.0,-10.0,-3.0,-55.0,-15.0,13.0,7.0,25.0,0.0
0.0,0.0,24.0,8.0,17.0,-49.0,-8.0,15.0,1.0,21.0,0.0
-6.0,-3.0,44.0,10.0,30.0,-19.0,17.0,17.0,21.0,15.0,0.0
-3.0,-10.0,36.0,0.0,25.0,10.0,45.0,27.0,43.0,7.0,0.0
-1.0,-8.0,16.0,-14.0,16.0,15.0,53.0,39.0,59.0,2.0,0.0
0.0,14.0,-4.0,-6.0,22.0,0.0,39.0,37.0,62.0,5.0,0.0
8.0,32.0,-57.0,8.0,40.0,-4.0,7.0,18.0,49.0,5.0,0.0
0.0,10.0,-14.0,11.0,63.0,27.0,-6.0,0.0,25.0,-1.0,0.0
-17.0,-9.0,21.0,16.0,74.0,78.0,-19.0,-10.0,13.0,-8.0,0.0
-25.0,-25.0,14.0,6.0,77.0,114.0,-4.0,-13.0,-6.0,-30.0,0.0
-15.0,-14.0,15.0,11.0,66.0,99.0,5.0,-18.0,-19.0,-24.0,0.0
-13.0,-9.0,19.0,18.0,49.0,66.0,24.0,-17.0,-11.0,-6.0,0.0
-31.0,-28.0,3.0,16.0,31.0,57.0,37.0,-10.0,-32.0,-23.0,0.0
-5.0,-11.0,8.0,1.0,1.0,-5.0,3.0,0.0,-18.0,-10.0,0.0
14.0,19.0,25.0,-17.0,-38.0,-59.0,-13.0,-3.0,-12.0,6.0,0.0
23.0,18.0,39.0,-20.0,-51.0,-79.0,-19.0,11.0,-9.0,14.0,0.0
30.0,0.0,45.0,-14.0,-40.0,-65.0,-47.0,17.0,-21.0,5.0,0.0
37.0,-16.0,31.0,-6.0,-5.0,-42.0,-28.0,11.0,-20.0,4.0,0.0
29.0,-21.0,-8.0,-10.0,10.0,-27.0,-1.0,25.0,-18.0,-3.0,0.0
3.0,-40.0,-116.0,-12.0,11.0,-30.0,-19.0,7.0,-31.0,-34.0,0.0
7.0,-44.0,-91.0,13.0,7.0,-20.0,-15.0,6.0,-14.0,-27.0,0.0
5.0,-21.0,5.0,23.0,6.0,-2.0,24.0,18.0,17.0,-16.0,0.0
-2.0,-23.0,16.0,9.0,7.0,12.0,59.0,30.0,51.0,-15.0,0.0
11.0,-24.0,1.0,-3.0,-1.0,30.0,61.0,38.0,68.0,-9.0,0.0
10.0,-20.0,3.0,-1.0,-12.0,51.0,44.0,25.0,65.0,-17.0,0.0
4.0,-9.0,37.0,14.0,2.0,65.0,8.0,-6.0,6.0,-37.0,0.0
-11.0,-23.0,24.0,14.0,45.0,103.0,17.0,-2.0,-14.0,-47.0,0.0
-24.0,-23.0,4.0,12.0,76.0,108.0,30.0,12.0,-16.0,-43.0,0.0
-12.0,-18.0,-4.0,15.0,78.0,89.0,26.0,14.0,-23.0,-34.0,0.0
-2.0,-16.0,-2.0,11.0,66.0,44.0,8.0,9.0,-27.0,-21.0,0.0
13.0,-6.0,-5.0,9.0,44.0,-27.0,-27.0,13.0,-27.0,1.0,0.0
24.0,13.0,3.0,10.0,-2.0,-98.0,-42.0,16.0,-28.0,12.0,0.0
23.0,4.0,-1.0,-3.0,-44.0,-117.0,-37.0,17.0,-29.0,0.0,0.0
7.0,-2.0,-1.0,-6.0,-54.0,-85.0,-38.0,18.0,-39.0,-8.0,0.0
-2.0,-12.0,-14.0,-2.0,-24.0,-63.0,-51.0,12.0,-45.0,-16.0,0.0
-11.0,-23.0,-57.0,-18.0,-16.0,-47.0,-34.0,3.0,-52.0,-29.0,0.0
-9.0,-20.0,-14.0,-10.0,-5.0,-44.0,-31.0,-23.0,-34.0,-15.0,0.0
-5.0,3.0,18.0,24.0,6.0,-43.0,-32.0,-27.0,-20.0,-11.0,0.0
-8.0,24.0,15.0,43.0,8.0,-18.0,-18.0,-4.0,19.0,-1.0,0.0
-4.0,19.0,8.0,40.0,3.0,-8.0,0.0,10.0,44.0,2.0,0.0
2.0,24.0,7.0,33.0,-26.0,11.0,4.0,10.0,58.0,1.0,0.0
-6.0,15.0,-1.0,37.0,-42.0,41.0,-16.0,12.0,59.0,-13.0,0.0
-26.0,-6.0,-8.0,30.0,-8.0,74.0,-30.0,-2.0,30.0,-35.0,0.0
-28.0,-19.0,-11.0,10.0,10.0,81.0,-31.0,-15.0,12.0,-20.0,0.0
-16.0,-16.0,-18.0,2.0,-9.0,74.0,-28.0,-17.0,20.0,-13.0,0.0
-10.0,-3.0,-22.0,0.0,-28.0,45.0,-17.0,-1.0,36.0,2.0,0.0
15.0,15.0,-20.0,5.0,-53.0,-10.0,-29.0,4.0,32.0,24.0,0.0
40.0,51.0,-4.0,6.0,-65.0,-61.0,-50.0,5.0,17.0,37.0,0.0
38.0,38.0,5.0,11.0,-62.0,-88.0,-58.0,-15.0,9.0,27.0,0.0
20.0,39.0,-24.0,8.0,-45.0,-74.0,-44.0,-11.0,-4.0,16.0,0.0
6.0,18.0,-105.0,3.0,-10.0,-56.0,-31.0,5.0,-3.0,9.0,0.0
-1.0,-3.0,-34.0,5.0,9.0,-62.0,-25.0,2.0,-6.0,3.0,0.0
5.0,-4.0,7.0,3.0,2.0,-85.0,-10.0,-4.0,-5.0,2.0,0.0
12.0,-5.0,4.0,-6.0,-1.0,-71.0,-11.0,-7.0,-21.0,11.0,0.0
6.0,-2.0,10.0,15.0,7.0,-52.0,-54.0,-13.0,-40.0,13.0,0.0
4.0,4.0,29.0,33.0,7.0,-41.0,-62.0,-32.0,-34.0,15.0,0.0
2.0,1.0,18.0,6.0,-2.0,5.0,6.0,-28.0,-21.0,3.0,0.0
-21.0,-21.0,-62.0,-35.0,-13.0,50.0,69.0,-11.0,-4.0,-29.0,0.0
-39.0,-23.0,-107.0,-19.0,13.0,73.0,56.0,-13.0,5.0,-44.0,0.0
-37.0,-7.0,-32.0,21.0,56.0,100.0,44.0,-13.0,31.0,-24.0,0.0
-46.0,-12.0,14.0,17.0,53.0,95.0,39.0,-17.0,34.0,-19.0,0.0
-66.0,-26.0,-5.0,-1.0,36.0,95.0,47.0,-9.0,14.0,-23.0,0.0
-64.0,-25.0,-12.0,-3.0,17.0,70.0,49.0,3.0,8.0,-14.0,0.0
-20.0,7.0,-7.0,1.0,-4.0,5.0,18.0,21.0,26.0,20.0,0.0
14.0,24.0,32.0,13.0,-32.0,-62.0,-5.0,34.0,28.0,48.0,0.0
11.0,34.0,41.0,29.0,-30.0,-96.0,5.0,30.0,28.0,45.0,0.0
-1.0,34.0,32.0,22.0,-37.0,-79.0,16.0,26.0,7.0,38.0,0.0
0.0,25.0,-17.0,-16.0,-52.0,-53.0,19.0,34.0,18.0,30.0,0.0
1.0,4.0,-127.0,-38.0,-44.0,-34.0,9.0,40.0,21.0,40.0,0.0
3.0,5.0,-93.0,-31.0,-26.0,-24.0,-19.0,30.0,3.0,32.0,0.0
5.0,4.0,19.0,-12.0,-21.0,-23.0,-40.0,11.0,-10.0,26.0,0.0
14.0,0.0,58.0,-3.0,-11.0,-45.0,-52.0,-16.0,-22.0,26.0,0.0
4.0,-2.0,64.0,20.0,-3.0,-64.0,-50.0,-21.0,-16.0,20.0,0.0
-12.0,-8.0,54.0,35.0,19.0,-35.0,-41.0,-25.0,-19.0,5.0,0.0
-44.0,-24.0,33.0,13.0,28.0,36.0,8.0,-30.0,-49.0,-31.0,0.0
-62.0,-36.0,7.0,-2.0,20.0,76.0,33.0,-18.0,-45.0,-63.0,0.0
-74.0,-53.0,-4.0,-14.0,21.0,76.0,37.0,-19.0,-35.0,-68.0,0.0
-82.0,-57.0,-11.0,-17.0,39.0,72.0,55.0,-22.0,-15.0,-57.0,0.0
-60.0,-38.0,2.0,5.0,63.0,55.0,46.0,-13.0,13.0,-46.0,0.0
-29.0,-3.0,24.0,21.0,56.0,29.0,27.0,0.0,15.0,-17.0,0.0
0.0,-12.0,24.0,-2.0,50.0,5.0,22.0,13.0,12.0,5.0,0.0
7.0,5.0,18.0,10.0,24.0,-42.0,12.0,13.0,27.0,16.0,0.0
2.0,17.0,16.0,23.0,3.0,-79.0,2.0,10.0,20.0,19.0,0.0
1.0,-4.0,10.0,8.0,-21.0,-66.0,7.0,0.0,18.0,17.0,0.0
15.0,6.0,13.0,-3.0,-42.0,-55.0,19.0,12.0,19.0,30.0,0.0
16.0,10.0,-34.0,-15.0,-58.0,-47.0,27.0,15.0,31.0,28.0,0.0
31.0,16.0,-66.0,-17.0,-60.0,-52.0,23.0,23.0,31.0,33.0,0.0
44.0,27.0,11.0,-7.0,-49.0,-44.0,-8.0,36.0,12.0,40.0,0.0
28.0,10.0,17.0,-8.0,-33.0,-6.0,-12.0,33.0,-14.0,28.0,0.0
5.0,0.0,6.0,-2.0,-19.0,34.0,8.0,26.0,-11.0,16.0,0.0
-15.0,-13.0,-7.0,13.0,-2.0,56.0,3.0,7.0,-23.0,1.0,0.0
-9.0,-20.0,9.0,29.0,13.0,55.0,-17.0,-11.0,-55.0,-1.0,0.0
-13.0,-17.0,32.0,25.0,28.0,57.0,-26.0,-28.0,-61.0,-7.0,0.0
-28.0,-25.0,24.0,7.0,34.0,76.0,-22.0,-35.0,-72.0,-15.0,0.0
-16.0,-24.0,17.0,1.0,45.0,64.0,11.0,-16.0,-60.0,-10.0,0.0
7.0,-20.0,-9.0,2.0,40.0,56.0,22.0,-2.0,-30.0,0.0,0.0
32.0,1.0,21.0,6.0,30.0,16.0,-1.0,-8.0,-5.0,27.0,0.0
30.0,19.0,34.0,19.0,60.0,-10.0,-20.0,0.0,24.0,47.0,0.0
17.0,7.0,23.0,14.0,73.0,-25.0,-43.0,-11.0,-42.0,29.0,0.0
4.0,-4.0,-64.0,0.0,17.0,-28.0,11.0,-2.0,-34.0,4.0,0.0
-2.0,-4.0,-146.0,-13.0,-7.0,-43.0,29.0,-7.0,-37.0,-1.0,0.0
7.0,-81.0,-136.0,-81.0,-56.0,-122.0,-111.0,-34.0,-384.0,7.0,0.0
5.0,-108.0,-34.0,-109.0,-113.0,-154.0,-168.0,-33.0,-557.0,-7.0,0.0
5.0,-12.0,17.0,-19.0,-54.0,-68.0,-31.0,3.0,-29.0,-12.0,0.0
-5.0,0.0,18.0,6.0,11.0,-24.0,-12.0,2.0,31.0,-18.0,0.0
-20.0,5.0,-17.0,15.0,29.0,22.0,3.0,-15.0,42.0,-37.0,0.0
-15.0,18.0,-71.0,24.0,7.0,62.0,-3.0,-18.0,60.0,-29.0,0.0
-16.0,6.0,8.0,12.0,4.0,98.0,13.0,-14.0,60.0,-33.0,0.0
-2.0,11.0,19.0,-2.0,29.0,120.0,34.0,2.0,77.0,-38.0,0.0
14.0,21.0,30.0,9.0,36.0,86.0,16.0,-11.0,76.0,-18.0,0.0
15.0,12.0,28.0,9.0,26.0,60.0,-4.0,-30.0,68.0,-11.0,0.0
36.0,21.0,20.0,1.0,6.0,41.0,10.0,-13.0,74.0,-5.0,0.0
61.0,48.0,18.0,-3.0,-8.0,-13.0,21.0,10.0,81.0,21.0,0.0
59.0,44.0,17.0,-11.0,-34.0,-73.0,3.0,8.0,81.0,36.0,0.0
46.0,46.0,26.0,-20.0,-48.0,-116.0,-31.0,-4.0,79.0,34.0,0.0
46.0,-16.0,-69.0,-40.0,-53.0,-108.0,-98.0,-19.0,-159.0,26.0,0.0
45.0,4.0,-87.0,-16.0,-43.0,-66.0,-33.0,-7.0,7.0,25.0,0.0
46.0,-18.0,7.0,-17.0,-21.0,-59.0,-27.0,-14.0,-73.0,22.0,0.0
41.0,-76.0,10.0,-68.0,-9.0,-100.0,-132.0,-35.0,-495.0,21.0,0.0
36.0,-33.0,12.0,-16.0,5.0,-50.0,-66.0,-23.0,-196.0,1.0,0.0
35.0,4.0,14.0,19.0,21.0,-4.0,7.0,-1.0,56.0,-8.0,0.0
16.0,-8.0,5.0,25.0,61.0,45.0,32.0,-3.0,63.0,-19.0,0.0
-12.0,-29.0,8.0,29.0,119.0,91.0,31.0,-10.0,59.0,-33.0,0.0
-33.0,-33.0,11.0,24.0,144.0,115.0,29.0,-12.0,68.0,-45.0,0.0
-49.0,-28.0,1.0,28.0,135.0,135.0,49.0,2.0,80.0,-32.0,0.0
-50.0,-23.0,0.0,32.0,110.0,137.0,88.0,11.0,98.0,-20.0,0.0
-35.0,-6.0,1.0,27.0,39.0,94.0,99.0,9.0,111.0,-9.0,0.0
-6.0,9.0,-25.0,10.0,-70.0,18.0,64.0,7.0,98.0,12.0,0.0
31.0,28.0,-51.0,-20.0,-197.0,-68.0,22.0,24.0,119.0,40.0,0.0
43.0,30.0,0.0,-36.0,-209.0,-96.0,35.0,38.0,108.0,50.0,0.0
28.0,37.0,12.0,-13.0,-121.0,-55.0,53.0,40.0,70.0,32.0,0.0
16.0,6.0,5.0,-28.0,-55.0,-55.0,-53.0,2.0,-91.0,19.0,0.0
31.0,30.0,14.0,-15.0,-26.0,-25.0,-26.0,-6.0,-10.0,7.0,0.0
13.0,-34.0,3.0,-71.0,-33.0,-66.0,-116.0,-26.0,-346.0,11.0,0.0
1.0,-43.0,-37.0,-74.0,-22.0,-66.0,-111.0,-16.0,-339.0,11.0,0.0
6.0,29.0,-43.0,5.0,2.0,-7.0,19.0,24.0,100.0,3.0,0.0
18.0,31.0,17.0,13.0,-11.0,-23.0,26.0,16.0,125.0,7.0,0.0
14.0,15.0,28.0,21.0,-2.0,4.0,22.0,8.0,82.0,9.0,0.0
-2.0,12.0,26.0,11.0,18.0,59.0,22.0,5.0,78.0,0.0,0.0
-14.0,16.0,22.0,6.0,23.0,90.0,23.0,4.0,67.0,-11.0,0.0
-18.0,4.0,13.0,3.0,10.0,73.0,21.0,-6.0,54.0,-11.0,0.0
-19.0,-2.0,16.0,4.0,1.0,38.0,8.0,-22.0,30.0,-8.0,0.0
-25.0,5.0,16.0,-6.0,-16.0,21.0,32.0,-26.0,13.0,-8.0,0.0
-27.0,4.0,16.0,-6.0,-12.0,-11.0,53.0,-17.0,2.0,-8.0,0.0
-10.0,4.0,0.0,-7.0,-14.0,-47.0,55.0,-1.0,12.0,5.0,0.0
6.0,0.0,3.0,-35.0,-29.0,-91.0,-17.0,-5.0,-148.0,11.0,0.0
8.0,18.0,22.0,-14.0,-25.0,-62.0,17.0,0.0,19.0,-2.0,0.0
6.0,2.0,1.0,-36.0,-28.0,-47.0,23.0,21.0,3.0,7.0,0.0
0.0,-84.0,-14.0,-111.0,-58.0,-99.0,-143.0,1.0,-478.0,20.0,0.0
7.0,-87.0,-8.0,-93.0,-36.0,-103.0,-163.0,-16.0,-516.0,1.0,0.0
14.0,17.0,-17.0,12.0,6.0,-3.0,11.0,3.0,80.0,-7.0,0.0
16.0,12.0,-14.0,21.0,7.0,26.0,5.0,0.0,112.0,0.0,0.0
0.0,12.0,17.0,13.0,23.0,46.0,-4.0,4.0,79.0,1.0,0.0
-7.0,21.0,-3.0,26.0,35.0,69.0,0.0,15.0,63.0,-4.0,0.0
-5.0,15.0,-123.0,34.0,35.0,102.0,26.0,18.0,65.0,-6.0,0.0
1.0,15.0,-134.0,23.0,36.0,102.0,54.0,7.0,78.0,-8.0,0.0
-5.0,24.0,-6.0,19.0,31.0,83.0,55.0,0.0,89.0,-11.0,0.0
2.0,23.0,41.0,11.0,23.0,60.0,41.0,-20.0,89.0,-7.0,0.0
24.0,35.0,55.0,17.0,20.0,42.0,21.0,-2.0,120.0,13.0,0.0
20.0,36.0,46.0,19.0,5.0,19.0,1.0,16.0,132.0,21.0,0.0
8.0,43.0,-30.0,26.0,-7.0,-8.0,-10.0,25.0,135.0,26.0,0.0
20.0,34.0,-85.0,26.0,-8.0,-32.0,-18.0,20.0,111.0,29.0,0.0
13.0,48.0,-3.0,17.0,-20.0,-32.0,-18.0,25.0,94.0,38.0,0.0
0.0,0.0,0.0,-15.0,-39.0,-25.0,17.0,27.0,2.0,12.0,0.0
-22.0,-36.0,-119.0,-35.0,-9.0,-24.0,16.0,11.0,-15.0,-28.0,0.0
-18.0,-30.0,-22.0,-26.0,-11.0,-16.0,15.0,-5.0,-9.0,-21.0,0.0
-24.0,-88.0,-9.0,-67.0,-19.0,-68.0,-100.0,-41.0,-357.0,-23.0,0.0
-38.0,-119.0,-50.0,-82.0,-50.0,-96.0,-147.0,-59.0,-551.0,-35.0,0.0
-64.0,-38.0,-24.0,2.0,-25.0,6.0,12.0,-47.0,-38.0,-40.0,0.0
-68.0,-19.0,24.0,27.0,10.0,66.0,15.0,-55.0,43.0,-49.0,0.0
-71.0,-7.0,41.0,45.0,59.0,104.0,9.0,-48.0,63.0,-37.0,0.0
-50.0,-3.0,57.0,40.0,66.0,91.0,22.0,-42.0,78.0,-27.0,0.0
-26.0,8.0,58.0,30.0,44.0,69.0,18.0,-33.0,71.0,-31.0,0.0
-30.0,7.0,56.0,27.0,43.0,50.0,14.0,-17.0,46.0,-24.0,0.0
-26.0,0.0,43.0,26.0,39.0,32.0,4.0,-12.0,42.0,-1.0,0.0
-5.0,-1.0,23.0,3.0,32.0,-6.0,-12.0,-12.0,41.0,15.0,0.0
0.0,9.0,16.0,-3.0,41.0,-36.0,-10.0,-15.0,31.0,6.0,0.0
-10.0,14.0,10.0,10.0,36.0,-34.0,-9.0,-14.0,12.0,-3.0,0.0
-14.0,18.0,5.0,15.0,4.0,-39.0,-13.0,-6.0,9.0,0.0,0.0
15.0,21.0,45.0,-10.0,-48.0,-85.0,-17.0,-14.0,36.0,7.0,0.0
20.0,18.0,38.0,-17.0,-60.0,-87.0,2.0,-3.0,42.0,15.0,0.0
12.0,-21.0,15.0,-49.0,-49.0,-73.0,-9.0,11.0,-104.0,21.0,0.0
-13.0,-107.0,-3.0,-104.0,-41.0,-116.0,-148.0,-17.0,-626.0,-4.0,0.0
-26.0,-39.0,24.0,-15.0,-14.0,-37.0,-21.0,-10.0,-184.0,-18.0,0.0
-40.0,-8.0,22.0,27.0,2.0,40.0,62.0,15.0,107.0,-25.0,0.0
-57.0,-17.0,-36.0,4.0,0.0,75.0,76.0,39.0,124.0,-22.0,0.0
-63.0,-18.0,-96.0,-6.0,-1.0,97.0,72.0,44.0,123.0,-35.0,0.0
-48.0,-16.0,-17.0,-6.0,14.0,99.0,79.0,40.0,124.0,-24.0,0.0
-29.0,-8.0,1.0,-13.0,5.0,78.0,85.0,50.0,133.0,0.0,0.0
-24.0,7.0,-44.0,-6.0,-30.0,40.0,94.0,50.0,132.0,13.0,0.0
-14.0,18.0,-11.0,15.0,-41.0,-12.0,71.0,55.0,113.0,20.0,0.0
29.0,-56.0,-105.0,-89.0,-65.0,-160.0,-206.0,17.0,-545.0,45.0,0.0
4.0,-97.0,8.0,-91.0,-74.0,-157.0,-277.0,6.0,-752.0,27.0,0.0
-6.0,-47.0,1.0,-25.0,-47.0,-70.0,-135.0,26.0,-355.0,16.0,0.0
-12.0,-95.0,-87.0,-53.0,-45.0,-76.0,-178.0,-7.0,-565.0,6.0,0.0
-16.0,6.0,6.0,32.0,23.0,90.0,-35.0,-4.0,-15.0,-17.0,0.0
-21.0,8.0,-85.0,34.0,10.0,77.0,-15.0,5.0,17.0,-15.0,0.0
-14.0,35.0,-121.0,30.0,13.0,68.0,13.0,15.0,99.0,2.0,0.0
4.0,5.0,-42.0,-22.0,-26.0,-21.0,-104.0,-5.0,-248.0,29.0,0.0
33.0,61.0,75.0,14.0,-22.0,-44.0,-57.0,15.0,-100.0,62.0,0.0
48.0,90.0,78.0,50.0,6.0,-20.0,84.0,51.0,144.0,66.0,0.0
37.0,95.0,42.0,62.0,14.0,-15.0,140.0,46.0,273.0,44.0,0.0
31.0,106.0,62.0,68.0,12.0,-28.0,83.0,18.0,238.0,36.0,0.0
30.0,61.0,65.0,46.0,-9.0,-44.0,19.0,0.0,50.0,37.0,0.0
27.0,51.0,50.0,48.0,-2.0,1.0,53.0,16.0,113.0,38.0,0.0
23.0,76.0,45.0,44.0,21.0,44.0,115.0,40.0,239.0,42.0,0.0
18.0,48.0,45.0,37.0,44.0,69.0,106.0,36.0,206.0,23.0,0.0
7.0,47.0,46.0,46.0,39.0,61.0,88.0,37.0,205.0,4.0,0.0
3.0,52.0,25.0,59.0,14.0,40.0,62.0,32.0,227.0,2.0,0.0
10.0,41.0,-46.0,47.0,15.0,68.0,61.0,22.0,232.0,-7.0,0.0
1.0,30.0,-33.0,28.0,19.0,87.0,56.0,17.0,222.0,-5.0,0.0
5.0,55.0,38.0,19.0,106.0,129.0,12.0,35.0,208.0,-15.0,0.0
4.0,43.0,43.0,24.0,128.0,132.0,23.0,27.0,177.0,-8.0,0.0
9.0,24.0,40.0,20.0,99.0,88.0,-30.0,22.0,16.0,3.0,0.0
12.0,-83.0,10.0,-88.0,-10.0,-57.0,-209.0,10.0,-612.0,12.0,0.0
11.0,-53.0,11.0,-77.0,-57.0,-72.0,-132.0,2.0,-323.0,-7.0,0.0
36.0,27.0,23.0,-19.0,-72.0,-45.0,-17.0,-5.0,134.0,0.0,0.0
53.0,47.0,26.0,-7.0,-96.0,-65.0,-3.0,-2.0,148.0,14.0,0.0
29.0,37.0,15.0,0.0,-70.0,-33.0,52.0,19.0,160.0,0.0,0.0
5.0,6.0,4.0,-4.0,-27.0,-51.0,62.0,31.0,162.0,-18.0,0.0
25.0,8.0,9.0,8.0,2.0,-71.0,46.0,32.0,159.0,-5.0,0.0
23.0,15.0,0.0,20.0,19.0,-41.0,48.0,38.0,151.0,10.0,0.0
16.0,21.0,2.0,27.0,39.0,-15.0,42.0,31.0,130.0,6.0,0.0
4.0,18.0,-84.0,33.0,12.0,-19.0,18.0,12.0,98.0,-5.0,0.0
-3.0,23.0,-139.0,12.0,-40.0,7.0,10.0,14.0,115.0,-7.0,0.0
-10.0,9.0,-101.0,-12.0,-64.0,56.0,25.0,19.0,116.0,-24.0,0.0
-29.0,-4.0,12.0,2.0,-17.0,88.0,38.0,7.0,88.0,-26.0,0.0
-45.0,-17.0,45.0,12.0,14.0,100.0,34.0,2.0,82.0,-30.0,0.0
-19.0,-3.0,53.0,23.0,19.0,94.0,19.0,-6.0,58.0,-21.0,0.0
0.0,23.0,61.0,14.0,0.0,54.0,-1.0,-28.0,42.0,-2.0,0.0
21.0,15.0,60.0,4.0,-16.0,15.0,9.0,-28.0,37.0,8.0,0.0
27.0,20.0,45.0,-3.0,-21.0,-22.0,12.0,-38.0,47.0,9.0,0.0
27.0,23.0,-3.0,-5.0,-23.0,-52.0,16.0,-24.0,56.0,15.0,0.0
30.0,18.0,33.0,4.0,-6.0,-43.0,-9.0,-13.0,74.0,22.0,0.0
16.0,7.0,45.0,6.0,16.0,-25.0,-10.0,1.0,74.0,19.0,0.0
1.0,-3.0,45.0,13.0,9.0,-19.0,25.0,10.0,84.0,8.0,0.0
5.0,5.0,45.0,19.0,1.0,-11.0,45.0,8.0,101.0,7.0,0.0
4.0,7.0,54.0,2.0,0.0,-9.0,43.0,-4.0,80.0,3.0,0.0
-1.0,0.0,63.0,3.0,2.0,-11.0,30.0,-10.0,54.0,1.0,0.0
3.0,-8.0,44.0,2.0,-14.0,-4.0,44.0,-16.0,40.0,9.0,0.0
-6.0,-19.0,31.0,-4.0,-16.0,13.0,38.0,-16.0,19.0,3.0,0.0
-23.0,-20.0,35.0,2.0,6.0,49.0,10.0,-25.0,-12.0,-12.0,0.0
-20.0,-22.0,28.0,8.0,20.0,74.0,-10.0,-38.0,-20.0,-24.0,0.0
-22.0,-16.0,5.0,-8.0,5.0,91.0,-3.0,-32.0,-29.0,-23.0,0.0
-17.0,-4.0,-14.0,-9.0,17.0,84.0,6.0,-6.0,-34.0,-10.0,0.0
-8.0,-2.0,-1.0,-1.0,17.0,66.0,-1.0,6.0,-26.0,4.0,0.0
-9.0,13.0,-14.0,-3.0,6.0,29.0,-11.0,13.0,-15.0,13.0,0.0
2.0,16.0,-22.0,-16.0,-9.0,2.0,-2.0,34.0,9.0,20.0,0.0
23.0,17.0,-2.0,-17.0,-19.0,-28.0,24.0,34.0,20.0,34.0,0.0
35.0,11.0,-86.0,-19.0,-30.0,-51.0,56.0,22.0,27.0,45.0,0.0
36.0,31.0,-35.0,-4.0,-39.0,-60.0,23.0,7.0,14.0,29.0,0.0
33.0,30.0,34.0,0.0,-36.0,-39.0,17.0,17.0,32.0,23.0,0.0
24.0,20.0,14.0,5.0,-18.0,-17.0,57.0,41.0,60.0,18.0,0.0
11.0,7.0,7.0,0.0,-11.0,-8.0,61.0,39.0,66.0,10.0,0.0
-2.0,-3.0,10.0,-6.0,-6.0,-13.0,66.0,25.0,46.0,0.0,0.0
-28.0,-4.0,9.0,-9.0,-11.0,-10.0,52.0,12.0,10.0,-1.0,0.0
-36.0,-18.0,-1.0,-24.0,-18.0,-20.0,43.0,0.0,-12.0,-2.0,0.0
-15.0,-15.0,3.0,-27.0,17.0,-13.0,10.0,-11.0,-10.0,0.0,0.0
-10.0,-20.0,4.0,-32.0,37.0,26.0,-17.0,-20.0,-11.0,0.0,0.0
-17.0,-27.0,-7.0,-33.0,28.0,50.0,-8.0,-17.0,-18.0,-20.0,0.0
-26.0,-16.0,0.0,-23.0,36.0,66.0,4.0,-15.0,-21.0,-33.0,0.0
-23.0,-12.0,17.0,-12.0,44.0,62.0,-6.0,-6.0,-28.0,-41.0,0.0
-20.0,-12.0,20.0,9.0,32.0,49.0,-11.0,-1.0,-39.0,-22.0,0.0
-24.0,-5.0,10.0,0.0,29.0,36.0,1.0,-10.0,-22.0,-10.0,0.0
-18.0,-5.0,-13.0,-6.0,23.0,-11.0,-4.0,-22.0,-10.0,-15.0,0.0
-16.0,-1.0,-17.0,1.0,27.0,-36.0,0.0,-11.0,-1.0,-24.0,0.0
-17.0,1.0,-16.0,11.0,52.0,-24.0,1.0,2.0,10.0,-23.0,0.0
-3.0,0.0,-5.0,29.0,42.0,-15.0,-4.0,-1.0,20.0,-17.0,0.0
0.0,1.0,2.0,30.0,15.0,-6.0,-12.0,13.0,46.0,4.0,0.0
21.0,30.0,24.0,38.0,-15.0,-27.0,-28.0,13.0,57.0,21.0,0.0
41.0,40.0,51.0,39.0,-31.0,-36.0,-17.0,4.0,31.0,10.0,0.0
27.0,16.0,28.0,7.0,-24.0,-11.0,22.0,8.0,21.0,10.0,0.0
16.0,-1.0,-32.0,-23.0,-52.0,-30.0,18.0,17.0,26.0,9.0,0.0
0.0,-1.0,-71.0,-10.0,-48.0,-47.0,-49.0,-2.0,0.0,-1.0,0.0
-9.0,-14.0,0.0,-2.0,-30.0,-13.0,-44.0,-17.0,-22.0,-24.0,0.0
-24.0,-40.0,-58.0,-13.0,-13.0,54.0,3.0,-27.0,-53.0,-32.0,0.0
-22.0,-45.0,-78.0,-16.0,15.0,76.0,-3.0,-29.0,-69.0,-16.0,0.0
-5.0,-36.0,-7.0,-12.0,41.0,79.0,-27.0,-21.0,-68.0,-33.0,0.0
4.0,-35.0,3.0,-7.0,39.0,67.0,-44.0,-16.0,-65.0,-28.0,0.0
14.0,-29.0,-12.0,-16.0,0.0,21.0,-62.0,-12.0,-63.0,-21.0,0.0
22.0,-16.0,-90.0,-26.0,-41.0,-16.0,-36.0,1.0,-37.0,-4.0,0.0
26.0,-5.0,-47.0,-37.0,-73.0,-57.0,-10.0,24.0,-5.0,12.0,0.0
32.0,-2.0,-42.0,-45.0,-73.0,-67.0,31.0,41.0,9.0,18.0,0.0
13.0,-22.0,-108.0,-35.0,-69.0,-60.0,78.0,39.0,12.0,-4.0,0.0
7.0,-18.0,-17.0,-24.0,-70.0,-56.0,55.0,26.0,30.0,-19.0,0.0
17.0,2.0,26.0,-20.0,-63.0,-47.0,41.0,15.0,43.0,-13.0,0.0
20.0,1.0,30.0,-12.0,-32.0,-24.0,25.0,6.0,29.0,0.0,0.0
21.0,7.0,38.0,3.0,34.0,-12.0,10.0,-3.0,28.0,4.0,0.0
0.0,-10.0,32.0,4.0,68.0,-7.0,-9.0,-12.0,1.0,-10.0,0.0
-25.0,-25.0,27.0,-8.0,64.0,16.0,0.0,-16.0,-27.0,-17.0,0.0
-26.0,-11.0,31.0,-4.0,67.0,28.0,14.0,-14.0,-11.0,-23.0,0.0
-34.0,-19.0,36.0,27.0,79.0,50.0,18.0,-19.0,-21.0,-26.0,0.0
-32.0,-23.0,33.0,55.0,98.0,94.0,28.0,-25.0,-43.0,-42.0,0.0
-23.0,-24.0,23.0,28.0,62.0,93.0,16.0,-19.0,-51.0,-47.0,0.0
-13.0,-7.0,22.0,1.0,-12.0,54.0,-2.0,-12.0,-52.0,-20.0,0.0
1.0,5.0,27.0,1.0,-9.0,17.0,-13.0,-17.0,-46.0,1.0,0.0
15.0,5.0,28.0,-5.0,18.0,-11.0,9.0,-19.0,-37.0,-2.0,0.0
24.0,2.0,17.0,-34.0,21.0,-55.0,41.0,0.0,-12.0,10.0,0.0
36.0,19.0,18.0,-46.0,-6.0,-85.0,61.0,15.0,8.0,31.0,0.0
57.0,50.0,30.0,-21.0,-19.0,-99.0,35.0,15.0,16.0,39.0,0.0
57.0,38.0,39.0,0.0,-10.0,-85.0,0.0,-17.0,20.0,24.0,0.0
53.0,26.0,43.0,6.0,-26.0,-79.0,-10.0,-22.0,32.0,22.0,0.0
66.0,48.0,56.0,15.0,-98.0,-116.0,-23.0,-5.0,59.0,36.0,0.0
57.0,52.0,52.0,2.0,-152.0,-132.0,-26.0,14.0,64.0,53.0,0.0
16.0,41.0,0.0,4.0,-96.0,-69.0,-19.0,9.0,56.0,51.0,0.0
-13.0,1.0,-119.0,14.0,-39.0,-20.0,-20.0,10.0,32.0,23.0,0.0
-35.0,-17.0,-84.0,2.0,-25.0,-8.0,1.0,16.0,25.0,-3.0,0.0
-47.0,-27.0,11.0,-19.0,-13.0,28.0,17.0,25.0,22.0,-13.0,0.0
-62.0,-19.0,15.0,-35.0,-10.0,82.0,56.0,18.0,-9.0,-33.0,0.0
-74.0,-27.0,14.0,-35.0,-21.0,85.0,75.0,-2.0,-36.0,-54.0,0.0
-59.0,-36.0,2.0,-29.0,-22.0,55.0,45.0,-11.0,-35.0,-56.0,0.0
-42.0,-33.0,12.0,-32.0,-10.0,54.0,19.0,-6.0,-32.0,-47.0,0.0
-26.0,-16.0,15.0,-48.0,-7.0,47.0,2.0,-7.0,-53.0,-18.0,0.0
-6.0,-7.0,23.0,-37.0,-17.0,8.0,2.0,1.0,-37.0,1.0,0.0
1.0,-1.0,33.0,-27.0,2.0,-42.0,8.0,8.0,-2.0,14.0,0.0
-1.0,2.0,26.0,-24.0,24.0,-60.0,4.0,4.0,19.0,22.0,0.0
-4.0,-3.0,12.0,-7.0,37.0,-58.0,-9.0,1.0,-4.0,20.0,0.0
-1.0,-2.0,6.0,0.0,34.0,-36.0,-6.0,3.0,-13.0,12.0,0.0
7.0,12.0,1.0,0.0,9.0,-27.0,9.0,16.0,21.0,15.0,0.0
11.0,32.0,22.0,6.0,9.0,-25.0,16.0,9.0,41.0,14.0,0.0
11.0,29.0,19.0,9.0,0.0,-31.0,18.0,6.0,37.0,1.0,0.0
17.0,39.0,-8.0,2.0,-10.0,-44.0,3.0,5.0,24.0,4.0,0.0
0.0,18.0,-106.0,0.0,0.0,-40.0,-3.0,-6.0,7.0,0.0,0.0
-23.0,12.0,-159.0,-4.0,-5.0,-18.0,12.0,-5.0,-12.0,-6.0,0.0
-36.0,-4.0,-146.0,-3.0,0.0,25.0,0.0,-6.0,-16.0,-19.0,0.0
-37.0,0.0,-64.0,1.0,39.0,84.0,-21.0,-8.0,-22.0,-16.0,0.0
-43.0,-5.0,44.0,-1.0,63.0,107.0,-34.0,-21.0,-44.0,-17.0,0.0
-32.0,-14.0,51.0,4.0,57.0,86.0,-40.0,-38.0,-45.0,-23.0,0.0
-22.0,-3.0,61.0,11.0,48.0,72.0,-45.0,-37.0,-45.0,-18.0,0.0
-10.0,1.0,59.0,5.0,41.0,44.0,-52.0,-25.0,-54.0,-4.0,0.0
1.0,23.0,50.0,0.0,22.0,-7.0,-45.0,-19.0,-54.0,12.0,0.0
5.0,17.0,45.0,-9.0,5.0,-52.0,-42.0,-11.0,-48.0,31.0,0.0
17.0,20.0,46.0,-8.0,11.0,-64.0,-39.0,-4.0,-32.0,31.0,0.0
13.0,11.0,49.0,2.0,20.0,-39.0,-21.0,12.0,1.0,24.0,0.0
5.0,8.0,41.0,1.0,10.0,-38.0,-6.0,18.0,37.0,20.0,0.0
7.0,9.0,37.0,1.0,-5.0,-45.0,-2.0,10.0,48.0,26.0,0.0
5.0,17.0,15.0,20.0,-10.0,-27.0,1.0,12.0,48.0,19.0,0.0
2.0,2.0,-10.0,19.0,0.0,-15.0,0.0,11.0,42.0,12.0,0.0
0.0,0.0,-36.0,7.0,5.0,-8.0,-3.0,7.0,33.0,3.0,0.0
-9.0,-3.0,-5.0,2.0,13.0,-3.0,-5.0,-4.0,22.0,-1.0,0.0
-22.0,-11.0,34.0,11.0,24.0,8.0,-6.0,-4.0,20.0,-1.0,0.0
-35.0,-35.0,38.0,16.0,46.0,49.0,-10.0,-12.0,4.0,-12.0,0.0
-48.0,-53.0,20.0,35.0,54.0,82.0,-13.0,-20.0,-22.0,-43.0,0.0
-37.0,-45.0,2.0,34.0,57.0,94.0,-25.0,-30.0,-39.0,-41.0,0.0
-28.0,-41.0,-4.0,41.0,58.0,90.0,-36.0,-36.0,-41.0,-27.0,0.0
-14.0,-29.0,-6.0,33.0,41.0,55.0,-16.0,-42.0,-43.0,-21.0,0.0
6.0,-10.0,-3.0,17.0,0.0,9.0,-24.0,-42.0,-54.0,-3.0,0.0
33.0,14.0,7.0,15.0,-31.0,-35.0,-39.0,-47.0,-51.0,9.0,0.0
39.0,15.0,15.0,11.0,-37.0,-55.0,-29.0,-49.0,-48.0,14.0,0.0
37.0,22.0,11.0,8.0,-25.0,-70.0,-22.0,-39.0,-47.0,16.0,0.0
39.0,16.0,2.0,3.0,-39.0,-77.0,-23.0,-38.0,-33.0,13.0,0.0
45.0,7.0,-1.0,0.0,-38.0,-75.0,-18.0,-24.0,-18.0,0.0,0.0
35.0,1.0,7.0,6.0,-17.0,-58.0,-18.0,-18.0,4.0,-4.0,0.0
46.0,4.0,-6.0,5.0,-17.0,-38.0,-19.0,-2.0,8.0,-14.0,0.0
33.0,5.0,-30.0,1.0,-8.0,-18.0,19.0,11.0,14.0,-16.0,0.0
10.0,-4.0,-6.0,5.0,13.0,2.0,36.0,14.0,41.0,-17.0,0.0
-2.0,-10.0,1.0,-3.0,0.0,3.0,30.0,29.0,47.0,-16.0,0.0
-16.0,-18.0,-1.0,-11.0,-5.0,27.0,28.0,32.0,22.0,-18.0,0.0
-26.0,-35.0,-8.0,-11.0,21.0,71.0,19.0,20.0,-1.0,-38.0,0.0
-38.0,-42.0,-1.0,5.0,37.0,86.0,17.0,-10.0,-1.0,-49.0,0.0
-31.0,-41.0,0.0,13.0,41.0,101.0,38.0,-8.0,6.0,-40.0,0.0
-23.0,-31.0,3.0,3.0,43.0,94.0,32.0,-1.0,-4.0,-30.0,0.0
-6.0,-9.0,8.0,-8.0,25.0,72.0,8.0,1.0,-8.0,-19.0,0.0
20.0,-1.0,22.0,-3.0,3.0,7.0,3.0,-11.0,-3.0,-16.0,0.0
27.0,-9.0,20.0,0.0,-3.0,-46.0,10.0,-11.0,-25.0,-9.0,0.0
21.0,-16.0,5.0,-14.0,-24.0,-63.0,24.0,-3.0,-46.0,-4.0,0.0
8.0,-20.0,-7.0,0.0,-35.0,-62.0,0.0,6.0,-50.0,-16.0,0.0
-20.0,-18.0,-30.0,2.0,-30.0,-50.0,-11.0,18.0,-47.0,-23.0,0.0
-29.0,-2.0,-80.0,-6.0,-28.0,-44.0,-14.0,19.0,-50.0,-14.0,0.0
-36.0,0.0,-26.0,-10.0,-29.0,-32.0,19.0,17.0,-34.0,-29.0,0.0
-37.0,-3.0,-1.0,10.0,-29.0,-6.0,83.0,20.0,-3.0,-36.0,0.0
-27.0,1.0,-31.0,13.0,-21.0,-8.0,63.0,7.0,5.0,-40.0,0.0
-31.0,7.0,-71.0,9.0,-9.0,-22.0,23.0,1.0,20.0,-29.0,0.0
-28.0,0.0,-1.0,19.0,-9.0,-25.0,1.0,12.0,38.0,-13.0,0.0
-39.0,-5.0,2.0,23.0,13.0,15.0,-4.0,14.0,40.0,-1.0,0.0
-47.0,-17.0,-14.0,16.0,38.0,67.0,-12.0,-7.0,4.0,-19.0,0.0
-49.0,-21.0,-10.0,3.0,59.0,72.0,-20.0,-25.0,-14.0,-30.0,0.0
-24.0,-24.0,1.0,-10.0,42.0,60.0,-11.0,-7.0,-20.0,-17.0,0.0
-4.0,-25.0,5.0,0.0,13.0,45.0,6.0,11.0,-12.0,1.0,0.0
-5.0,-35.0,7.0,7.0,0.0,21.0,34.0,11.0,-17.0,-9.0,0.0
12.0,-19.0,18.0,5.0,-20.0,-12.0,73.0,28.0,-20.0,4.0,0.0
45.0,10.0,28.0,-10.0,-65.0,-72.0,66.0,35.0,5.0,32.0,0.0
58.0,27.0,-12.0,-15.0,-75.0,-103.0,16.0,13.0,-9.0,27.0,0.0
49.0,12.0,-13.0,-17.0,-54.0,-81.0,7.0,0.0,-22.0,22.0,0.0
38.0,3.0,30.0,-12.0,-41.0,-63.0,13.0,6.0,0.0,33.0,0.0
27.0,13.0,27.0,-9.0,-33.0,-36.0,14.0,10.0,21.0,33.0,0.0
18.0,29.0,15.0,5.0,0.0,-19.0,26.0,9.0,42.0,22.0,0.0
1.0,13.0,-63.0,15.0,33.0,-20.0,18.0,13.0,52.0,8.0,0.0
8.0,7.0,-36.0,15.0,12.0,-35.0,17.0,27.0,36.0,-3.0,0.0
16.0,3.0,13.0,26.0,-17.0,-23.0,2.0,21.0,9.0,-4.0,0.0
13.0,2.0,11.0,31.0,0.0,19.0,-12.0,8.0,11.0,-14.0,0.0
2.0,0.0,20.0,25.0,28.0,67.0,-12.0,-8.0,-2.0,-29.0,0.0
1.0,7.0,40.0,12.0,28.0,93.0,-3.0,-9.0,-22.0,-33.0,0.0
1.0,-2.0,39.0,-6.0,26.0,104.0,2.0,-2.0,-28.0,-31.0,0.0
0.0,-7.0,-22.0,9.0,34.0,67.0,-7.0,-5.0,-29.0,-15.0,0.0
-10.0,6.0,-87.0,23.0,17.0,42.0,-22.0,-6.0,-38.0,-13.0,0.0
-15.0,0.0,-7.0,19.0,-13.0,7.0,-13.0,-2.0,-47.0,-25.0,0.0
5.0,-5.0,21.0,3.0,-40.0,-52.0,-17.0,4.0,-47.0,-20.0,0.0
11.0,-12.0,17.0,-13.0,-57.0,-72.0,-30.0,-1.0,-30.0,-11.0,0.0
16.0,1.0,14.0,-8.0,-62.0,-84.0,-17.0,-23.0,-20.0,-5.0,0.0
22.0,11.0,10.0,-22.0,-88.0,-85.0,8.0,-16.0,14.0,0.0,0.0
33.0,15.0,8.0,-24.0,-94.0,-72.0,21.0,-5.0,60.0,9.0,0.0
33.0,21.0,-12.0,-10.0,-62.0,-46.0,37.0,6.0,84.0,15.0,0.0
25.0,42.0,-31.0,-4.0,-50.0,-32.0,57.0,21.0,85.0,19.0,0.0
20.0,18.0,38.0,8.0,-29.0,-12.0,35.0,20.0,85.0,21.0,0.0
18.0,2.0,41.0,-2.0,-22.0,-9.0,19.0,6.0,72.0,5.0,0.0
28.0,8.0,35.0,-12.0,-27.0,-30.0,6.0,-2.0,46.0,-4.0,0.0
13.0,4.0,7.0,6.0,42.0,12.0,11.0,-10.0,19.0,-8.0,0.0
-12.0,-6.0,34.0,27.0,157.0,66.0,17.0,-24.0,-21.0,-29.0,0.0
-16.0,-16.0,58.0,22.0,168.0,83.0,1.0,-37.0,-31.0,-34.0,0.0
-19.0,-12.0,23.0,10.0,115.0,71.0,-9.0,-30.0,-35.0,-23.0,0.0
-24.0,-23.0,6.0,4.0,75.0,44.0,-10.0,-18.0,-35.0,-18.0,0.0
-16.0,-27.0,31.0,-12.0,34.0,21.0,0.0,-9.0,-19.0,-12.0,0.0
7.0,0.0,27.0,-33.0,-35.0,-22.0,6.0,-1.0,12.0,9.0,0.0
37.0,37.0,9.0,-33.0,-147.0,-98.0,-3.0,21.0,28.0,43.0,0.0
45.0,40.0,-63.0,-30.0,-146.0,-115.0,0.0,25.0,32.0,50.0,0.0
33.0,32.0,-5.0,-25.0,-61.0,-94.0,-2.0,26.0,40.0,39.0,0.0
19.0,8.0,32.0,-5.0,-13.0,-90.0,7.0,7.0,53.0,20.0,0.0
16.0,2.0,-10.0,7.0,23.0,-60.0,2.0,-9.0,52.0,21.0,0.0
12.0,10.0,-52.0,15.0,44.0,-48.0,-51.0,-15.0,43.0,12.0,0.0
8.0,16.0,18.0,4.0,56.0,-59.0,-86.0,-21.0,39.0,12.0,0.0
-13.0,-9.0,17.0,-11.0,82.0,-30.0,-80.0,-26.0,11.0,3.0,0.0
-11.0,-10.0,14.0,-2.0,106.0,36.0,-62.0,-25.0,1.0,0.0,0.0
-4.0,3.0,25.0,26.0,107.0,104.0,-50.0,-14.0,-3.0,0.0,0.0
-7.0,8.0,39.0,47.0,71.0,86.0,-71.0,-27.0,-28.0,-15.0,0.0
-17.0,2.0,21.0,25.0,40.0,69.0,-62.0,-31.0,-38.0,-21.0,0.0
-18.0,-12.0,-76.0,-18.0,-4.0,77.0,-39.0,-7.0,-52.0,-19.0,0.0
-11.0,-9.0,-70.0,-37.0,-68.0,44.0,-43.0,5.0,-46.0,-10.0,0.0
-2.0,0.0,2.0,-33.0,-94.0,22.0,-52.0,10.0,-30.0,6.0,0.0
16.0,12.0,9.0,-22.0,-73.0,16.0,-57.0,5.0,-15.0,7.0,0.0
24.0,15.0,19.0,-8.0,-59.0,-9.0,-51.0,11.0,0.0,21.0,0.0
21.0,15.0,11.0,-3.0,-61.0,-38.0,-50.0,18.0,9.0,33.0,0.0
26.0,28.0,10.0,5.0,-60.0,-41.0,-46.0,24.0,23.0,41.0,0.0
31.0,28.0,15.0,14.0,-56.0,-34.0,-17.0,24.0,27.0,40.0,0.0
13.0,12.0,4.0,1.0,-40.0,-21.0,38.0,24.0,33.0,16.0,0.0
-2.0,15.0,9.0,-3.0,-32.0,-13.0,39.0,40.0,34.0,20.0,0.0
0.0,12.0,12.0,-5.0,-20.0,-18.0,11.0,36.0,50.0,26.0,0.0
-1.0,6.0,6.0,-3.0,0.0,-19.0,5.0,19.0,28.0,17.0,0.0
-3.0,-3.0,-86.0,-6.0,18.0,-7.0,-15.0,12.0,7.0,16.0,0.0
-15.0,-10.0,-60.0,-12.0,16.0,19.0,6.0,8.0,-7.0,12.0,0.0
-31.0,-21.0,13.0,-6.0,28.0,60.0,36.0,10.0,-12.0,5.0,0.0
-42.0,-17.0,11.0,0.0,44.0,93.0,34.0,0.0,-14.0,-11.0,0.0
-36.0,-7.0,6.0,1.0,39.0,93.0,-3.0,-10.0,-21.0,-14.0,0.0
-26.0,0.0,7.0,10.0,36.0,98.0,-19.0,-12.0,-30.0,-13.0,0.0
-17.0,4.0,12.0,24.0,52.0,80.0,-41.0,-18.0,-50.0,-6.0,0.0
-14.0,-7.0,5.0,17.0,33.0,56.0,-50.0,-7.0,-52.0,-22.0,0.0
-10.0,-5.0,-10.0,8.0,3.0,24.0,-30.0,10.0,-29.0,-11.0,0.0
10.0,1.0,-92.0,8.0,-24.0,-20.0,10.0,12.0,-12.0,16.0,0.0
22.0,8.0,-128.0,12.0,-33.0,-46.0,12.0,6.0,3.0,27.0,0.0
19.0,25.0,-22.0,11.0,-36.0,-79.0,-31.0,-25.0,7.0,18.0,0.0
20.0,27.0,35.0,16.0,-39.0,-87.0,-64.0,-40.0,15.0,18.0,0.0
16.0,52.0,-25.0,23.0,-37.0,-84.0,-68.0,-34.0,6.0,12.0,0.0
1.0,40.0,-23.0,7.0,-31.0,-64.0,-53.0,-15.0,-18.0,-3.0,0.0
-28.0,11.0,25.0,-9.0,-13.0,-42.0,-53.0,-21.0,-25.0,-20.0,0.0
-26.0,-7.0,22.0,-4.0,4.0,-27.0,-61.0,-33.0,-26.0,-11.0,0.0
-18.0,-2.0,9.0,-5.0,25.0,-14.0,-79.0,-31.0,-30.0,-4.0,0.0
-28.0,-4.0,4.0,-18.0,41.0,-4.0,-83.0,-32.0,-28.0,-7.0,0.0
-41.0,-5.0,17.0,3.0,51.0,22.0,-73.0,-28.0,-24.0,-18.0,0.0
-51.0,-20.0,17.0,15.0,45.0,44.0,-25.0,-18.0,-28.0,-20.0,0.0
-56.0,-46.0,16.0,0.0,22.0,71.0,42.0,-12.0,-49.0,-34.0,0.0
-47.0,-43.0,13.0,-7.0,22.0,57.0,29.0,-5.0,-47.0,-17.0,0.0
-22.0,-20.0,25.0,5.0,24.0,57.0,-3.0,2.0,-22.0,8.0,0.0
1.0,-6.0,31.0,13.0,21.0,57.0,-13.0,-6.0,-17.0,19.0,0.0
13.0,6.0,21.0,18.0,8.0,16.0,-1.0,1.0,4.0,27.0,0.0
14.0,1.0,17.0,15.0,-5.0,-6.0,5.0,14.0,26.0,44.0,0.0
6.0,-5.0,34.0,-4.0,-14.0,-19.0,19.0,11.0,38.0,50.0,0.0
0.0,-16.0,32.0,-5.0,-9.0,-31.0,24.0,11.0,72.0,43.0,0.0
8.0,-19.0,27.0,-3.0,-13.0,-52.0,17.0,11.0,71.0,43.0,0.0
9.0,-11.0,23.0,3.0,-10.0,-61.0,17.0,3.0,64.0,51.0,0.0
2.0,-9.0,23.0,22.0,5.0,-41.0,16.0,12.0,66.0,50.0,0.0
1.0,-17.0,5.0,20.0,-1.0,-21.0,4.0,19.0,43.0,44.0,0.0
-4.0,-18.0,1.0,15.0,9.0,-9.0,6.0,11.0,23.0,35.0,0.0
-9.0,-16.0,13.0,21.0,22.0,-12.0,-7.0,1.0,-10.0,20.0,0.0
-16.0,-30.0,3.0,26.0,28.0,11.0,2.0,6.0,-17.0,4.0,0.0
-54.0,-57.0,-19.0,8.0,35.0,78.0,67.0,15.0,-40.0,-31.0,0.0
-79.0,-76.0,-32.0,-6.0,40.0,103.0,94.0,18.0,-65.0,-50.0,0.0
-68.0,-74.0,-17.0,1.0,50.0,94.0,61.0,13.0,-56.0,-43.0,0.0
-46.0,-54.0,-16.0,7.0,50.0,63.0,32.0,5.0,-45.0,-43.0,0.0
-34.0,-45.0,-33.0,-4.0,34.0,55.0,20.0,12.0,-44.0,-38.0,0.0
-17.0,-37.0,-80.0,-27.0,9.0,43.0,26.0,30.0,-24.0,-17.0,0.0
0.0,-17.0,-30.0,-40.0,-27.0,0.0,28.0,48.0,0.0,4.0,0.0
18.0,15.0,-6.0,-33.0,-40.0,-32.0,28.0,36.0,38.0,25.0,0.0
30.0,23.0,-1.0,-19.0,-23.0,-39.0,28.0,14.0,69.0,34.0,0.0
17.0,14.0,-8.0,-31.0,-5.0,-42.0,42.0,-6.0,51.0,30.0,0.0
3.0,15.0,3.0,-24.0,32.0,-55.0,18.0,-37.0,15.0,11.0,0.0
5.0,14.0,25.0,17.0,76.0,-54.0,-19.0,-68.0,-27.0,-19.0,0.0
0.0,13.0,55.0,58.0,109.0,-32.0,-28.0,-82.0,-42.0,-31.0,0.0
-16.0,4.0,48.0,46.0,118.0,-7.0,-5.0,-61.0,-39.0,-34.0,0.0
-7.0,-19.0,19.0,7.0,77.0,27.0,35.0,-30.0,-38.0,-38.0,0.0
8.0,-23.0,9.0,1.0,20.0,62.0,49.0,-10.0,-40.0,-13.0,0.0
16.0,-5.0,13.0,26.0,-23.0,53.0,13.0,-20.0,-37.0,5.0,0.0
14.0,8.0,26.0,29.0,-83.0,39.0,-28.0,-23.0,-23.0,2.0,0.0
-8.0,-18.0,5.0,-26.0,-69.0,100.0,-19.0,-14.0,-35.0,-15.0,0.0
-25.0,-29.0,-22.0,-53.0,-53.0,111.0,3.0,-6.0,-66.0,-27.0,0.0
-17.0,-6.0,1.0,-10.0,-31.0,72.0,-17.0,-12.0,-47.0,-15.0,0.0
-8.0,25.0,13.0,21.0,-17.0,29.0,-19.0,-8.0,-20.0,0.0,0.0
5.0,42.0,15.0,26.0,-55.0,-1.0,-13.0,12.0,3.0,13.0,0.0
19.0,27.0,-29.0,-6.0,-81.0,-14.0,7.0,29.0,15.0,14.0,0.0
14.0,18.0,-15.0,-32.0,-74.0,-32.0,22.0,45.0,47.0,21.0,0.0
24.0,22.0,-7.0,-23.0,-66.0,-68.0,-11.0,29.0,52.0,22.0,0.0
30.0,22.0,-4.0,2.0,-66.0,-87.0,-29.0,-4.0,47.0,16.0,0.0
21.0,16.0,-5.0,12.0,-63.0,-102.0,-46.0,-8.0,25.0,18.0,0.0
14.0,10.0,-37.0,-2.0,-55.0,-88.0,-36.0,-5.0,14.0,11.0,0.0
8.0,17.0,-66.0,-21.0,-44.0,-47.0,-2.0,0.0,2.0,9.0,0.0
10.0,6.0,-3.0,-34.0,-31.0,-17.0,12.0,3.0,1.0,6.0,0.0
11.0,10.0,48.0,4.0,-30.0,-23.0,6.0,7.0,-6.0,7.0,0.0
13.0,28.0,52.0,19.0,-21.0,-21.0,-3.0,0.0,-21.0,4.0,0.0
3.0,16.0,22.0,6.0,-8.0,17.0,-1.0,-10.0,-36.0,-9.0,0.0
0.0,7.0,16.0,1.0,-23.0,56.0,15.0,0.0,-39.0,-12.0,0.0
5.0,15.0,23.0,-3.0,-29.0,66.0,40.0,19.0,-26.0,0.0,0.0
1.0,14.0,34.0,0.0,-7.0,52.0,29.0,23.0,-23.0,5.0,0.0
6.0,16.0,36.0,7.0,16.0,37.0,-4.0,23.0,-15.0,9.0,0.0
24.0,16.0,-32.0,3.0,35.0,14.0,-12.0,9.0,-12.0,17.0,0.0
30.0,19.0,-50.0,-2.0,42.0,-16.0,-9.0,1.0,-1.0,17.0,0.0
26.0,27.0,-15.0,10.0,45.0,-31.0,-15.0,-9.0,10.0,14.0,0.0
28.0,35.0,7.0,23.0,27.0,-46.0,-32.0,-9.0,15.0,15.0,0.0
37.0,40.0,26.0,17.0,14.0,-54.0,-28.0,8.0,22.0,5.0,0.0
35.0,15.0,15.0,10.0,9.0,-48.0,-20.0,11.0,30.0,4.0,0.0
35.0,0.0,10.0,0.0,2.0,-41.0,-19.0,15.0,23.0,5.0,0.0
39.0,12.0,2.0,-13.0,-18.0,-52.0,-11.0,6.0,10.0,5.0,0.0
42.0,18.0,-14.0,-13.0,-20.0,-63.0,-1.0,-1.0,1.0,10.0,0.0
37.0,8.0,-59.0,-18.0,-4.0,-44.0,28.0,0.0,4.0,9.0,0.0
36.0,-5.0,-23.0,-11.0,-9.0,-20.0,25.0,7.0,5.0,10.0,0.0
25.0,-7.0,3.0,-13.0,-5.0,8.0,28.0,10.0,-9.0,4.0,0.0
-4.0,-20.0,-4.0,-10.0,25.0,60.0,37.0,0.0,-11.0,-16.0,0.0
-32.0,-27.0,-57.0,-1.0,54.0,87.0,54.0,-8.0,-3.0,-26.0,0.0
-27.0,-34.0,-160.0,-1.0,45.0,92.0,46.0,-24.0,6.0,-40.0,0.0
-14.0,-17.0,-178.0,2.0,42.0,77.0,51.0,-12.0,29.0,-19.0,0.0
-13.0,-7.0,-161.0,0.0,71.0,67.0,57.0,0.0,49.0,-3.0,0.0
-8.0,7.0,-132.0,8.0,98.0,54.0,28.0,-12.0,39.0,5.0,0.0
2.0,34.0,-79.0,16.0,65.0,-8.0,-24.0,-33.0,16.0,3.0,0.0
15.0,41.0,33.0,0.0,9.0,-55.0,-54.0,-19.0,21.0,20.0,0.0
21.0,11.0,42.0,-4.0,-24.0,-64.0,-55.0,-6.0,30.0,20.0,0.0
23.0,0.0,-54.0,0.0,-41.0,-53.0,-42.0,-2.0,30.0,16.0,0.0
29.0,-2.0,-15.0,-4.0,-54.0,-55.0,-39.0,-6.0,9.0,8.0,0.0
49.0,-6.0,60.0,-11.0,-81.0,-67.0,-56.0,-5.0,9.0,3.0,0.0
38.0,-5.0,-19.0,-8.0,-54.0,-52.0,-69.0,-6.0,3.0,0.0,0.0
25.0,-5.0,-50.0,-1.0,-8.0,-20.0,-50.0,-5.0,-17.0,-2.0,0.0
11.0,-23.0,38.0,-10.0,17.0,12.0,10.0,-8.0,-25.0,-14.0,0.0
-6.0,-32.0,60.0,-7.0,17.0,30.0,20.0,-5.0,-27.0,-22.0,0.0
-21.0,-38.0,58.0,8.0,33.0,54.0,13.0,-8.0,-6.0,-45.0,0.0
-10.0,-33.0,39.0,20.0,48.0,93.0,24.0,-14.0,15.0,-57.0,0.0
-5.0,-28.0,-41.0,16.0,36.0,98.0,1.0,-6.0,22.0,-52.0,0.0
-3.0,-34.0,-30.0,12.0,29.0,89.0,-3.0,6.0,43.0,-49.0,0.0
-5.0,-16.0,34.0,14.0,38.0,79.0,0.0,6.0,38.0,-34.0,0.0
0.0,1.0,43.0,19.0,32.0,56.0,-5.0,26.0,40.0,-6.0,0.0
9.0,13.0,52.0,13.0,17.0,15.0,-15.0,41.0,40.0,9.0,0.0
8.0,5.0,42.0,-2.0,6.0,-24.0,2.0,41.0,34.0,6.0,0.0
0.0,-8.0,-54.0,-5.0,2.0,-40.0,23.0,31.0,23.0,2.0,0.0
-6.0,-13.0,-68.0,-8.0,5.0,-39.0,23.0,23.0,17.0,4.0,0.0
0.0,-8.0,-65.0,-20.0,2.0,-44.0,4.0,8.0,7.0,11.0,0.0
13.0,1.0,3.0,-10.0,0.0,-47.0,-25.0,-19.0,-16.0,21.0,0.0
1.0,11.0,47.0,-2.0,0.0,-38.0,-37.0,-26.0,-14.0,13.0,0.0
-5.0,10.0,49.0,1.0,9.0,-17.0,-15.0,-20.0,0.0,6.0,0.0
-6.0,14.0,32.0,9.0,23.0,-5.0,-14.0,-22.0,-5.0,7.0,0.0
5.0,13.0,62.0,26.0,26.0,-16.0,-26.0,-27.0,-7.0,11.0,0.0
-19.0,5.0,71.0,2.0,21.0,15.0,-15.0,-23.0,-24.0,6.0,0.0
-51.0,-26.0,27.0,-33.0,18.0,43.0,2.0,-4.0,-47.0,-23.0,0.0
-67.0,-33.0,29.0,-32.0,15.0,55.0,26.0,-11.0,-66.0,-37.0,0.0
-50.0,-29.0,27.0,-30.0,8.0,60.0,16.0,-19.0,-54.0,-34.0,0.0
-19.0,-14.0,-28.0,-27.0,11.0,35.0,-1.0,0.0,-19.0,-8.0,0.0
-18.0,-5.0,-79.0,-19.0,53.0,20.0,28.0,11.0,23.0,-7.0,0.0
-24.0,3.0,-77.0,-18.0,53.0,6.0,54.0,21.0,59.0,-5.0,0.0
-20.0,12.0,9.0,0.0,11.0,-27.0,45.0,31.0,72.0,4.0,0.0
-9.0,3.0,51.0,2.0,-18.0,-59.0,34.0,36.0,61.0,10.0,0.0
0.0,8.0,50.0,5.0,-31.0,-66.0,13.0,22.0,47.0,10.0,0.0
4.0,13.0,7.0,-1.0,-70.0,-75.0,1.0,15.0,23.0,10.0,0.0
-5.0,17.0,-78.0,-16.0,-98.0,-67.0,7.0,30.0,10.0,11.0,0.0
2.0,29.0,-12.0,-28.0,-67.0,-50.0,1.0,30.0,12.0,8.0,0.0
8.0,18.0,51.0,-32.0,-39.0,-48.0,-16.0,17.0,-3.0,-2.0,0.0
0.0,7.0,42.0,-26.0,-35.0,-51.0,-19.0,21.0,-15.0,-2.0,0.0
6.0,8.0,9.0,-17.0,-29.0,-51.0,-33.0,23.0,-3.0,3.0,0.0
12.0,-2.0,-12.0,-15.0,-16.0,-34.0,-46.0,16.0,-21.0,-1.0,0.0
2.0,-21.0,30.0,-12.0,7.0,19.0,-40.0,5.0,-41.0,-9.0,0.0
-21.0,-31.0,42.0,0.0,34.0,62.0,-20.0,-2.0,-50.0,-33.0,0.0
-43.0,-35.0,35.0,7.0,39.0,97.0,-6.0,-9.0,-53.0,-52.0,0.0
-31.0,-32.0,37.0,9.0,51.0,105.0,0.0,-5.0,-33.0,-42.0,0.0
-17.0,-16.0,35.0,3.0,42.0,82.0,8.0,-7.0,0.0,-27.0,0.0
-6.0,5.0,30.0,6.0,21.0,57.0,30.0,-8.0,24.0,-5.0,0.0
-6.0,18.0,-47.0,7.0,-18.0,0.0,62.0,-6.0,30.0,-5.0,0.0
-19.0,17.0,-139.0,1.0,-29.0,-33.0,50.0,0.0,55.0,1.0,0.0
2.0,15.0,-135.0,-3.0,-10.0,-40.0,42.0,3.0,49.0,-12.0,0.0
24.0,15.0,-34.0,11.0,-21.0,-54.0,27.0,1.0,47.0,-20.0,0.0
15.0,13.0,45.0,5.0,-49.0,-68.0,36.0,24.0,53.0,-9.0,0.0
16.0,7.0,31.0,-26.0,-72.0,-46.0,56.0,49.0,48.0,-4.0,0.0
15.0,-3.0,33.0,-37.0,-68.0,-32.0,51.0,52.0,41.0,0.0,0.0
2.0,-13.0,37.0,-26.0,-21.0,-13.0,48.0,33.0,13.0,-7.0,0.0
-3.0,-5.0,20.0,-20.0,17.0,-1.0,59.0,4.0,-18.0,-30.0,0.0
1.0,0.0,17.0,-20.0,29.0,-12.0,53.0,-18.0,-29.0,-35.0,0.0
12.0,5.0,24.0,-13.0,29.0,-23.0,33.0,-34.0,-28.0,-32.0,0.0
9.0,5.0,41.0,6.0,41.0,1.0,16.0,-45.0,-33.0,-29.0,0.0
11.0,17.0,51.0,40.0,43.0,27.0,-1.0,-56.0,-55.0,-30.0,0.0
4.0,0.0,49.0,62.0,45.0,37.0,-8.0,-58.0,-65.0,-39.0,0.0
-1.0,-15.0,33.0,42.0,36.0,48.0,11.0,-28.0,-58.0,-26.0,0.0
-2.0,-17.0,19.0,17.0,45.0,34.0,3.0,-3.0,-37.0,-16.0,0.0
0.0,-10.0,5.0,15.0,31.0,25.0,-9.0,4.0,-12.0,-2.0,0.0
6.0,-8.0,-7.0,11.0,24.0,7.0,15.0,13.0,0.0,2.0,0.0
6.0,-5.0,-8.0,18.0,3.0,-32.0,16.0,18.0,35.0,11.0,0.0
1.0,-9.0,0.0,14.0,-4.0,-68.0,-17.0,8.0,51.0,10.0,0.0
20.0,16.0,19.0,14.0,-28.0,-88.0,-31.0,10.0,58.0,25.0,0.0
43.0,39.0,37.0,16.0,-69.0,-109.0,-50.0,16.0,57.0,34.0,0.0
35.0,28.0,24.0,11.0,-78.0,-113.0,-62.0,19.0,46.0,33.0,0.0
25.0,24.0,1.0,0.0,-49.0,-85.0,-44.0,16.0,33.0,5.0,0.0
13.0,15.0,2.0,11.0,-20.0,-48.0,-29.0,5.0,-3.0,-10.0,0.0
16.0,11.0,9.0,1.0,-12.0,-33.0,-36.0,-9.0,-14.0,-5.0,0.0
25.0,22.0,1.0,-3.0,10.0,-1.0,-35.0,-9.0,-31.0,-10.0,0.0
7.0,0.0,-58.0,-16.0,11.0,42.0,-22.0,-5.0,-40.0,-19.0,0.0
-20.0,-20.0,-52.0,-33.0,23.0,78.0,-2.0,-3.0,-44.0,-29.0,0.0
-18.0,-29.0,-7.0,-23.0,32.0,92.0,6.0,0.0,-49.0,-26.0,0.0
-13.0,-20.0,-17.0,-1.0,48.0,88.0,0.0,-18.0,-52.0,-26.0,0.0
-16.0,-7.0,-87.0,-2.0,47.0,64.0,-1.0,-19.0,-54.0,-17.0,0.0
-2.0,-23.0,-63.0,-13.0,21.0,36.0,27.0,5.0,-44.0,-11.0,0.0
0.0,-20.0,-15.0,-10.0,15.0,25.0,48.0,18.0,-26.0,-16.0,0.0
18.0,-3.0,-8.0,23.0,26.0,11.0,55.0,14.0,-16.0,-21.0,0.0
41.0,25.0,17.0,50.0,31.0,-17.0,35.0,13.0,4.0,-12.0,0.0
53.0,34.0,43.0,34.0,15.0,-39.0,22.0,15.0,27.0,-8.0,0.0
62.0,43.0,30.0,10.0,0.0,-50.0,-13.0,0.0,30.0,-2.0,0.0
59.0,36.0,31.0,2.0,-19.0,-90.0,-42.0,-5.0,24.0,15.0,0.0
44.0,39.0,24.0,11.0,-8.0,-93.0,-37.0,-3.0,23.0,16.0,0.0
57.0,30.0,29.0,12.0,-15.0,-68.0,-34.0,0.0,21.0,28.0,0.0
57.0,35.0,36.0,4.0,-24.0,-50.0,-34.0,-2.0,6.0,35.0,0.0
49.0,24.0,34.0,-10.0,-37.0,-49.0,-42.0,2.0,12.0,28.0,0.0
24.0,10.0,28.0,2.0,-52.0,-50.0,-44.0,7.0,6.0,21.0,0.0
17.0,-3.0,25.0,11.0,-36.0,-19.0,-36.0,-7.0,-3.0,3.0,0.0
1.0,-4.0,24.0,2.0,-15.0,32.0,-25.0,-8.0,-12.0,1.0,0.0
-15.0,-31.0,5.0,-12.0,6.0,87.0,4.0,5.0,-19.0,-8.0,0.0
-9.0,-32.0,7.0,-10.0,5.0,76.0,23.0,2.0,-23.0,-9.0,0.0
0.0,-10.0,18.0,2.0,-1.0,32.0,0.0,-2.0,-25.0,8.0,0.0
-7.0,-14.0,0.0,-1.0,-10.0,32.0,26.0,7.0,-19.0,12.0,0.0
-7.0,-26.0,-89.0,-17.0,-18.0,17.0,38.0,9.0,4.0,18.0,0.0
7.0,-12.0,-80.0,-9.0,-22.0,-36.0,17.0,14.0,14.0,26.0,0.0
23.0,8.0,-19.0,7.0,-23.0,-70.0,-11.0,15.0,24.0,34.0,0.0
20.0,3.0,-70.0,3.0,-20.0,-57.0,2.0,15.0,31.0,40.0,0.0
15.0,13.0,14.0,5.0,-5.0,-63.0,16.0,3.0,47.0,44.0,0.0
21.0,14.0,53.0,11.0,-7.0,-80.0,15.0,-12.0,55.0,26.0,0.0
25.0,20.0,47.0,9.0,-36.0,-70.0,13.0,-28.0,51.0,5.0,0.0
7.0,0.0,40.0,9.0,-46.0,-19.0,18.0,-28.0,34.0,-12.0,0.0
3.0,-12.0,51.0,29.0,-31.0,46.0,58.0,-9.0,30.0,-6.0,0.0
0.0,-14.0,46.0,20.0,-1.0,45.0,58.0,0.0,6.0,-6.0,0.0
-13.0,-10.0,36.0,8.0,2.0,10.0,20.0,-11.0,-27.0,-22.0,0.0
-25.0,-17.0,24.0,8.0,4.0,27.0,45.0,2.0,-14.0,-31.0,0.0
-39.0,-39.0,5.0,-11.0,-2.0,36.0,78.0,15.0,-27.0,-30.0,0.0
-50.0,-32.0,-4.0,-13.0,-2.0,43.0,81.0,-8.0,-39.0,-28.0,0.0
-67.0,-35.0,0.0,-9.0,16.0,64.0,56.0,-18.0,-42.0,-28.0,0.0
-65.0,-26.0,7.0,-14.0,17.0,56.0,51.0,-4.0,-34.0,-21.0,0.0
-43.0,-29.0,-27.0,-9.0,10.0,24.0,28.0,6.0,-34.0,0.0,0.0
-28.0,-28.0,-126.0,-16.0,0.0,-20.0,18.0,1.0,-34.0,10.0,0.0
-12.0,-10.0,-114.0,-6.0,-22.0,-53.0,-27.0,-19.0,-13.0,18.0,0.0
0.0,6.0,-46.0,-7.0,-42.0,-72.0,-52.0,-11.0,-9.0,31.0,0.0
0.0,-5.0,-74.0,-5.0,-28.0,-73.0,-37.0,10.0,-21.0,26.0,0.0
-13.0,-17.0,-7.0,-4.0,7.0,-34.0,-36.0,9.0,-27.0,16.0,0.0
-12.0,0.0,43.0,-7.0,2.0,-28.0,-36.0,6.0,-13.0,17.0,0.0
-11.0,17.0,55.0,-4.0,-1.0,-22.0,-42.0,5.0,-11.0,12.0,0.0
-17.0,7.0,50.0,5.0,-14.0,-3.0,-18.0,-1.0,-23.0,7.0,0.0
-18.0,-1.0,31.0,-2.0,-46.0,9.0,7.0,0.0,-27.0,-14.0,0.0
-14.0,7.0,25.0,-7.0,-89.0,0.0,-8.0,-15.0,15.0,-7.0,0.0
-19.0,19.0,26.0,9.0,-111.0,12.0,-20.0,-10.0,50.0,3.0,0.0
-42.0,11.0,16.0,13.0,-80.0,45.0,-22.0,0.0,52.0,-21.0,0.0
-45.0,1.0,15.0,27.0,-19.0,81.0,-16.0,1.0,30.0,-30.0,0.0
-48.0,1.0,5.0,28.0,20.0,111.0,6.0,0.0,17.0,-26.0,0.0
-36.0,-19.0,-4.0,14.0,13.0,101.0,24.0,3.0,29.0,-26.0,0.0
-20.0,-19.0,-69.0,7.0,12.0,66.0,7.0,1.0,24.0,-26.0,0.0
-6.0,-9.0,-82.0,4.0,-5.0,17.0,14.0,19.0,18.0,2.0,0.0
-6.0,0.0,4.0,0.0,-32.0,-47.0,16.0,16.0,8.0,27.0,0.0
15.0,-6.0,28.0,1.0,-41.0,-75.0,0.0,6.0,-1.0,23.0,0.0
28.0,-10.0,36.0,-4.0,-26.0,-51.0,0.0,0.0,-25.0,26.0,0.0
12.0,-8.0,28.0,-14.0,-17.0,-33.0,-10.0,-6.0,-38.0,24.0,0.0
8.0,-15.0,20.0,-8.0,-8.0,-24.0,-21.0,8.0,-29.0,16.0,0.0
10.0,-9.0,20.0,0.0,4.0,-30.0,-27.0,7.0,-21.0,10.0,0.0
2.0,2.0,23.0,1.0,-15.0,-30.0,-30.0,6.0,-12.0,6.0,0.0
7.0,11.0,-8.0,5.0,-57.0,-35.0,-16.0,10.0,15.0,13.0,0.0
4.0,5.0,-20.0,17.0,-52.0,-26.0,-6.0,13.0,22.0,4.0,0.0
-16.0,0.0,10.0,22.0,-7.0,12.0,8.0,14.0,27.0,-7.0,0.0
-41.0,-23.0,23.0,18.0,32.0,72.0,22.0,13.0,26.0,-21.0,0.0
-50.0,-23.0,16.0,15.0,67.0,125.0,45.0,15.0,41.0,-30.0,0.0
-58.0,-30.0,5.0,18.0,106.0,144.0,73.0,12.0,29.0,-35.0,0.0
-48.0,-19.0,2.0,14.0,118.0,127.0,57.0,9.0,26.0,-23.0,0.0
-19.0,-15.0,-16.0,7.0,105.0,101.0,58.0,3.0,21.0,-8.0,0.0
-9.0,-10.0,-34.0,-1.0,60.0,69.0,49.0,9.0,11.0,1.0,0.0
-2.0,-17.0,-45.0,-14.0,-12.0,9.0,48.0,20.0,15.0,17.0,0.0
14.0,-17.0,-42.0,-37.0,-58.0,-47.0,27.0,21.0,7.0,40.0,0.0
36.0,9.0,35.0,-41.0,-82.0,-84.0,10.0,21.0,13.0,42.0,0.0
49.0,16.0,20.0,-18.0,-65.0,-81.0,7.0,16.0,4.0,37.0,0.0
48.0,5.0,-16.0,-22.0,-25.0,-64.0,24.0,17.0,11.0,35.0,0.0
40.0,-11.0,30.0,-29.0,-5.0,-48.0,20.0,21.0,0.0,16.0,0.0
35.0,0.0,25.0,-18.0,3.0,-42.0,7.0,13.0,-2.0,13.0,0.0
18.0,13.0,22.0,-5.0,0.0,-45.0,4.0,0.0,-20.0,12.0,0.0
21.0,14.0,8.0,-8.0,-3.0,-29.0,-7.0,6.0,-36.0,6.0,0.0
16.0,13.0,9.0,-4.0,10.0,-8.0,-13.0,3.0,-41.0,1.0,0.0
16.0,16.0,40.0,24.0,36.0,6.0,-25.0,-19.0,-53.0,-13.0,0.0
3.0,6.0,55.0,30.0,71.0,51.0,-25.0,-34.0,-39.0,-31.0,0.0
-10.0,11.0,39.0,36.0,99.0,88.0,-18.0,-48.0,-21.0,-35.0,0.0
-14.0,5.0,19.0,45.0,114.0,98.0,6.0,-49.0,2.0,-32.0,0.0
-8.0,5.0,-15.0,43.0,104.0,109.0,22.0,-47.0,8.0,-8.0,0.0
2.0,5.0,-5.0,53.0,90.0,72.0,18.0,-34.0,-4.0,-7.0,0.0
15.0,7.0,-26.0,56.0,68.0,8.0,3.0,-18.0,-7.0,-15.0,0.0
5.0,14.0,-6.0,14.0,37.0,-47.0,-13.0,-1.0,-5.0,-3.0,0.0
4.0,4.0,-7.0,-17.0,8.0,-73.0,-20.0,12.0,-9.0,9.0,0.0
18.0,14.0,-3.0,-10.0,0.0,-70.0,-29.0,24.0,7.0,21.0,0.0
17.0,23.0,17.0,5.0,9.0,-59.0,-14.0,21.0,3.0,29.0,0.0
13.0,17.0,13.0,11.0,12.0,-54.0,-26.0,1.0,-29.0,31.0,0.0
15.0,16.0,13.0,17.0,16.0,-69.0,-34.0,-6.0,-41.0,31.0,0.0
14.0,14.0,7.0,2.0,20.0,-74.0,-46.0,5.0,-27.0,19.0,0.0
2.0,2.0,6.0,-6.0,37.0,-35.0,-48.0,13.0,-34.0,7.0,0.0
-10.0,-11.0,-2.0,-6.0,52.0,-10.0,-48.0,9.0,-43.0,3.0,0.0
-13.0,-7.0,13.0,13.0,46.0,-1.0,-39.0,-4.0,-29.0,-8.0,0.0
-23.0,-11.0,0.0,36.0,50.0,29.0,-45.0,-20.0,-12.0,-9.0,0.0
-40.0,-17.0,-39.0,16.0,47.0,53.0,-27.0,-22.0,6.0,-17.0,0.0
-43.0,-25.0,-27.0,-25.0,35.0,59.0,-30.0,-15.0,3.0,-24.0,0.0
-39.0,-23.0,-52.0,-39.0,36.0,70.0,-8.0,-9.0,-3.0,-12.0,0.0
-14.0,-9.0,-41.0,-26.0,31.0,110.0,60.0,18.0,14.0,7.0,0.0
4.0,34.0,-9.0,0.0,22.0,88.0,65.0,34.0,29.0,36.0,0.0
27.0,48.0,15.0,-1.0,-15.0,4.0,43.0,33.0,34.0,56.0,0.0
43.0,48.0,31.0,1.0,-22.0,-60.0,28.0,43.0,27.0,52.0,0.0
34.0,28.0,46.0,20.0,-12.0,-82.0,7.0,24.0,-3.0,29.0,0.0
34.0,40.0,56.0,38.0,-14.0,-87.0,-5.0,8.0,-7.0,30.0,0.0
23.0,40.0,41.0,27.0,-17.0,-67.0,-5.0,19.0,-6.0,23.0,0.0
-2.0,17.0,13.0,-12.0,-36.0,-47.0,-1.0,37.0,-12.0,9.0,0.0
-17.0,-7.0,-9.0,-54.0,-42.0,-23.0,4.0,34.0,-35.0,-2.0,0.0
7.0,-2.0,-19.0,-55.0,-49.0,-16.0,0.0,19.0,-21.0,9.0,0.0
38.0,26.0,-7.0,-22.0,-41.0,-27.0,-41.0,7.0,-19.0,24.0,0.0
