channel0,channel1,channel2,channel3,channel4,channel5,channel6,channel7,channel8,channel9,true_locs
-60.0,-54.0,-112.0,-81.0,-38.0,-62.0,-40.0,-73.0,-73.0,-100.0,0.0
-47.0,-45.0,-99.0,-67.0,-57.0,-71.0,-52.0,-86.0,-73.0,-74.0,0.0
-33.0,-8.0,-66.0,-20.0,-43.0,-60.0,-43.0,-71.0,-63.0,-94.0,0.0
-7.0,24.0,-39.0,-3.0,-29.0,-47.0,-45.0,-61.0,-52.0,-74.0,0.0
30.0,22.0,-6.0,8.0,-9.0,-54.0,-54.0,-73.0,-70.0,-3.0,0.0
59.0,-20.0,13.0,26.0,18.0,-47.0,-53.0,-83.0,-91.0,84.0,0.0
68.0,-53.0,21.0,29.0,19.0,-30.0,-40.0,-73.0,-87.0,185.0,0.0
63.0,-34.0,35.0,41.0,32.0,6.0,2.0,-15.0,-41.0,146.0,0.0
62.0,65.0,77.0,78.0,66.0,63.0,74.0,86.0,48.0,-87.0,0.0
37.0,149.0,114.0,85.0,76.0,123.0,125.0,153.0,111.0,-280.0,0.0
8.0,143.0,120.0,64.0,47.0,115.0,103.0,139.0,93.0,-134.0,0.0
-21.0,128.0,120.0,45.0,19.0,90.0,65.0,107.0,62.0,128.0,0.0
-49.0,109.0,128.0,32.0,5.0,103.0,57.0,93.0,74.0,154.0,0.0
-81.0,50.0,105.0,20.0,1.0,98.0,53.0,73.0,69.0,-7.0,0.0
-94.0,-5.0,77.0,9.0,16.0,62.0,32.0,43.0,44.0,-85.0,0.0
-72.0,-27.0,53.0,16.0,43.0,26.0,-2.0,10.0,12.0,-99.0,0.0
-25.0,-28.0,39.0,17.0,30.0,3.0,-31.0,-11.0,-28.0,-88.0,0.0
49.0,0.0,64.0,16.0,14.0,-18.0,-44.0,-21.0,-41.0,-23.0,0.0
89.0,35.0,79.0,3.0,8.0,-34.0,-43.0,-19.0,-32.0,2.0,0.0
64.0,44.0,75.0,8.0,1.0,-34.0,-42.0,-25.0,-26.0,-34.0,0.0
38.0,30.0,69.0,23.0,16.0,-40.0,-33.0,-30.0,-14.0,-34.0,0.0
34.0,21.0,51.0,21.0,4.0,-28.0,-18.0,-16.0,7.0,9.0,0.0
24.0,9.0,0.0,-7.0,-29.0,-14.0,-20.0,-16.0,9.0,21.0,0.0
21.0,10.0,-26.0,-22.0,-42.0,-26.0,-25.0,-23.0,2.0,-9.0,0.0
7.0,1.0,-39.0,-27.0,-29.0,-17.0,-10.0,-14.0,6.0,-17.0,0.0
-4.0,-32.0,-63.0,-31.0,-22.0,0.0,3.0,-19.0,-10.0,-23.0,0.0
2.0,-48.0,-69.0,-36.0,-28.0,3.0,-12.0,-31.0,-30.0,-42.0,0.0
13.0,-44.0,-62.0,-37.0,-13.0,2.0,-20.0,-15.0,-21.0,-23.0,0.0
41.0,-38.0,-52.0,-33.0,26.0,23.0,-11.0,0.0,-13.0,19.0,0.0
59.0,-11.0,-11.0,-21.0,42.0,34.0,-1.0,25.0,7.0,131.0,0.0
67.0,-11.0,17.0,-1.0,50.0,28.0,10.0,22.0,28.0,175.0,0.0
51.0,-33.0,12.0,-4.0,30.0,22.0,10.0,9.0,36.0,99.0,0.0
41.0,-35.0,-18.0,-12.0,10.0,23.0,16.0,-2.0,17.0,32.0,0.0
15.0,-41.0,-37.0,4.0,2.0,11.0,0.0,-10.0,-7.0,-3.0,0.0
-16.0,-70.0,-19.0,13.0,-1.0,0.0,3.0,-12.0,-13.0,-20.0,0.0
-57.0,-79.0,1.0,24.0,9.0,10.0,2.0,-12.0,-1.0,-23.0,0.0
-93.0,-60.0,14.0,15.0,0.0,7.0,9.0,-13.0,-13.0,-32.0,0.0
-118.0,-52.0,14.0,9.0,-15.0,11.0,8.0,-20.0,-47.0,-40.0,0.0
-115.0,-40.0,-4.0,-9.0,-27.0,-3.0,0.0,-32.0,-43.0,4.0,0.0
-85.0,-40.0,-20.0,-34.0,-23.0,-20.0,-1.0,-19.0,-21.0,57.0,0.0
-65.0,-40.0,-37.0,-37.0,45.0,-5.0,-2.0,2.0,0.0,54.0,0.0
-36.0,-33.0,-40.0,-30.0,62.0,-2.0,10.0,32.0,28.0,52.0,0.0
-3.0,-15.0,-32.0,-34.0,18.0,1.0,47.0,60.0,68.0,83.0,0.0
0.0,5.0,-20.0,-50.0,-3.0,11.0,58.0,70.0,82.0,74.0,0.0
-24.0,-3.0,-17.0,-74.0,-27.0,0.0,36.0,54.0,47.0,25.0,0.0
-37.0,-9.0,-43.0,-90.0,-61.0,-15.0,10.0,30.0,11.0,-13.0,0.0
-23.0,2.0,-28.0,-62.0,-61.0,-21.0,-7.0,8.0,-14.0,-50.0,0.0
-41.0,3.0,1.0,-4.0,-32.0,-27.0,-14.0,-4.0,-27.0,-114.0,0.0
-49.0,5.0,22.0,45.0,8.0,-15.0,-16.0,-14.0,-36.0,-163.0,0.0
-36.0,-4.0,0.0,61.0,15.0,-7.0,-24.0,-18.0,-36.0,-148.0,0.0
-16.0,-5.0,-17.0,40.0,8.0,-1.0,-14.0,-16.0,-43.0,-85.0,0.0
-15.0,-5.0,-13.0,7.0,9.0,7.0,-4.0,-22.0,-44.0,-96.0,0.0
-37.0,11.0,-19.0,8.0,19.0,7.0,0.0,-33.0,-63.0,-131.0,0.0
-55.0,31.0,-10.0,19.0,17.0,-5.0,-6.0,-39.0,-54.0,-76.0,0.0
-37.0,22.0,27.0,34.0,13.0,-8.0,-4.0,-38.0,-17.0,51.0,0.0
14.0,27.0,82.0,54.0,41.0,18.0,26.0,3.0,29.0,241.0,0.0
78.0,24.0,100.0,75.0,68.0,37.0,37.0,41.0,56.0,413.0,0.0
104.0,13.0,77.0,66.0,34.0,22.0,14.0,29.0,35.0,340.0,0.0
103.0,10.0,45.0,48.0,10.0,27.0,5.0,1.0,12.0,201.0,0.0
68.0,3.0,23.0,53.0,10.0,35.0,9.0,-1.0,4.0,86.0,0.0
52.0,2.0,43.0,54.0,11.0,33.0,5.0,3.0,-5.0,11.0,0.0
63.0,13.0,58.0,53.0,21.0,20.0,11.0,2.0,-16.0,6.0,0.0
63.0,0.0,36.0,37.0,7.0,19.0,10.0,17.0,-10.0,17.0,0.0
63.0,-17.0,4.0,19.0,-5.0,21.0,10.0,21.0,-4.0,16.0,0.0
35.0,-22.0,-18.0,1.0,-20.0,13.0,13.0,26.0,-3.0,2.0,0.0
5.0,-21.0,-39.0,-9.0,-41.0,2.0,14.0,16.0,-18.0,-10.0,0.0
-6.0,-9.0,-39.0,-12.0,-50.0,-14.0,8.0,0.0,-19.0,-21.0,0.0
-12.0,0.0,-50.0,-13.0,-39.0,-15.0,-8.0,-6.0,-15.0,-26.0,0.0
-4.0,-7.0,-40.0,-15.0,4.0,-14.0,-12.0,-2.0,-27.0,-33.0,0.0
-17.0,-26.0,-42.0,-23.0,41.0,-13.0,-19.0,2.0,-37.0,-40.0,0.0
-26.0,-37.0,-34.0,-36.0,10.0,-25.0,-20.0,1.0,-29.0,-53.0,0.0
-23.0,-58.0,-34.0,-44.0,-7.0,-35.0,-10.0,-13.0,-43.0,-76.0,0.0
-20.0,-64.0,-48.0,-32.0,-5.0,-44.0,-25.0,-36.0,-51.0,-106.0,0.0
0.0,-47.0,-46.0,6.0,9.0,-36.0,-22.0,-30.0,-33.0,-81.0,0.0
20.0,-29.0,-25.0,5.0,-7.0,-12.0,-9.0,-21.0,-40.0,-51.0,0.0
38.0,-9.0,-25.0,-6.0,-22.0,-7.0,-7.0,-22.0,-30.0,-22.0,0.0
57.0,9.0,-23.0,-4.0,-28.0,-22.0,-23.0,-27.0,-36.0,6.0,0.0
54.0,6.0,-20.0,-9.0,-20.0,-19.0,-32.0,-24.0,-42.0,11.0,0.0
44.0,3.0,-12.0,-14.0,-32.0,-24.0,-47.0,-41.0,-53.0,17.0,0.0
36.0,1.0,-2.0,-1.0,-55.0,-36.0,-43.0,-32.0,-52.0,101.0,0.0
33.0,27.0,22.0,-3.0,-62.0,-39.0,-28.0,-5.0,-18.0,143.0,0.0
25.0,52.0,46.0,11.0,-26.0,-13.0,-5.0,31.0,26.0,13.0,0.0
29.0,77.0,75.0,22.0,6.0,16.0,3.0,32.0,32.0,-97.0,0.0
31.0,82.0,65.0,23.0,-10.0,9.0,20.0,20.0,28.0,-80.0,0.0
17.0,79.0,21.0,22.0,-17.0,0.0,21.0,28.0,38.0,-62.0,0.0
8.0,103.0,25.0,39.0,2.0,10.0,29.0,36.0,57.0,-79.0,0.0
-6.0,115.0,42.0,44.0,25.0,25.0,41.0,53.0,74.0,-172.0,0.0
-25.0,112.0,56.0,42.0,34.0,34.0,54.0,50.0,69.0,-302.0,0.0
-37.0,87.0,17.0,25.0,19.0,36.0,53.0,39.0,37.0,-287.0,0.0
-29.0,35.0,-24.0,-22.0,-14.0,28.0,51.0,15.0,8.0,-180.0,0.0
-30.0,-12.0,-30.0,-47.0,-24.0,27.0,28.0,1.0,4.0,-61.0,0.0
8.0,-39.0,18.0,-24.0,12.0,48.0,38.0,26.0,36.0,129.0,0.0
48.0,-44.0,44.0,-4.0,24.0,57.0,67.0,56.0,71.0,293.0,0.0
40.0,-27.0,9.0,-20.0,7.0,36.0,58.0,35.0,53.0,215.0,0.0
24.0,42.0,-13.0,-23.0,16.0,29.0,40.0,12.0,17.0,97.0,0.0
8.0,96.0,26.0,-9.0,48.0,34.0,28.0,4.0,15.0,42.0,0.0
-17.0,53.0,58.0,0.0,51.0,40.0,13.0,-13.0,17.0,4.0,0.0
-50.0,-19.0,67.0,2.0,23.0,19.0,-6.0,-25.0,-16.0,-25.0,0.0
-60.0,-58.0,69.0,-7.0,6.0,-12.0,-29.0,-25.0,-37.0,12.0,0.0
-45.0,-73.0,54.0,-22.0,-10.0,-19.0,-29.0,-23.0,-18.0,74.0,0.0
-32.0,-76.0,18.0,-30.0,-25.0,-25.0,-32.0,-27.0,-21.0,62.0,1.0
-32.0,-69.0,4.0,-34.0,-24.0,-37.0,-44.0,-40.0,-34.0,8.0,1.0
-19.0,-42.0,-5.0,-33.0,-13.0,-26.0,-33.0,-23.0,-27.0,-31.0,1.0
-15.0,-12.0,3.0,-31.0,-14.0,-19.0,-33.0,-20.0,-14.0,-29.0,1.0
-5.0,18.0,8.0,-25.0,-10.0,-12.0,-23.0,-22.0,-9.0,11.0,1.0
0.0,43.0,6.0,-19.0,-7.0,8.0,-18.0,-19.0,-13.0,94.0,1.0
-2.0,59.0,7.0,-4.0,0.0,13.0,-21.0,-32.0,-6.0,84.0,1.0
0.0,46.0,2.0,-6.0,7.0,-8.0,-20.0,-45.0,-20.0,25.0,1.0
4.0,-2.0,6.0,-18.0,8.0,-21.0,-17.0,-45.0,-48.0,-13.0,1.0
-5.0,-48.0,2.0,-27.0,-7.0,-22.0,-16.0,-35.0,-55.0,-23.0,1.0
-13.0,-75.0,-3.0,-8.0,6.0,-20.0,-25.0,-37.0,-49.0,-19.0,1.0
-12.0,-70.0,-15.0,21.0,33.0,-8.0,-14.0,-37.0,-14.0,-2.0,1.0
4.0,-43.0,-12.0,21.0,26.0,-15.0,-14.0,-25.0,-5.0,14.0,1.0
10.0,-15.0,-1.0,4.0,7.0,-11.0,-16.0,-15.0,-3.0,18.0,1.0
10.0,-23.0,-16.0,-10.0,-3.0,1.0,-2.0,-9.0,11.0,20.0,1.0
34.0,-6.0,-7.0,-14.0,-21.0,9.0,6.0,-4.0,23.0,-3.0,1.0
47.0,18.0,1.0,-16.0,-35.0,15.0,18.0,4.0,20.0,-42.0,1.0
38.0,31.0,10.0,-14.0,-51.0,4.0,10.0,-2.0,-1.0,-50.0,1.0
36.0,26.0,4.0,14.0,-46.0,4.0,6.0,-5.0,0.0,-36.0,0.0
46.0,27.0,11.0,10.0,-26.0,-20.0,-4.0,-10.0,5.0,-23.0,0.0
48.0,21.0,4.0,-22.0,-25.0,-30.0,-5.0,-14.0,15.0,-11.0,0.0
30.0,21.0,3.0,-34.0,-28.0,-23.0,1.0,-6.0,37.0,-11.0,0.0
22.0,17.0,1.0,-38.0,-30.0,-7.0,-10.0,-5.0,36.0,-15.0,0.0
14.0,22.0,-2.0,-34.0,-44.0,-9.0,-24.0,-11.0,30.0,-34.0,0.0
13.0,28.0,-1.0,-21.0,-47.0,-25.0,-46.0,-21.0,0.0,-92.0,0.0
16.0,6.0,-31.0,-22.0,-41.0,-28.0,-50.0,-31.0,-28.0,-138.0,0.0
36.0,-18.0,-62.0,-30.0,-39.0,-30.0,-48.0,-44.0,-48.0,-143.0,0.0
63.0,-19.0,-51.0,-33.0,-56.0,-34.0,-73.0,-62.0,-80.0,-152.0,0.0
66.0,-2.0,-42.0,-38.0,-63.0,-42.0,-75.0,-58.0,-70.0,-151.0,0.0
73.0,21.0,-36.0,-29.0,-46.0,-41.0,-71.0,-57.0,-59.0,-125.0,0.0
68.0,31.0,-5.0,-5.0,-29.0,-14.0,-36.0,-43.0,-48.0,-47.0,0.0
57.0,13.0,1.0,21.0,3.0,14.0,-3.0,-14.0,-10.0,103.0,0.0
39.0,-5.0,-10.0,32.0,35.0,36.0,14.0,2.0,23.0,317.0,0.0
33.0,-5.0,-23.0,31.0,46.0,40.0,27.0,21.0,65.0,493.0,0.0
31.0,13.0,-21.0,27.0,47.0,40.0,31.0,61.0,111.0,291.0,0.0
-13.0,43.0,-30.0,6.0,22.0,33.0,19.0,65.0,106.0,-58.0,0.0
-33.0,38.0,-9.0,19.0,28.0,34.0,20.0,68.0,80.0,-104.0,0.0
-64.0,-11.0,38.0,20.0,39.0,-4.0,-9.0,37.0,3.0,-150.0,0.0
-74.0,-40.0,31.0,7.0,25.0,-31.0,-45.0,6.0,-49.0,-134.0,0.0
-39.0,-12.0,18.0,8.0,5.0,-4.0,-15.0,21.0,8.0,-60.0,0.0
-1.0,-30.0,3.0,-11.0,-31.0,-19.0,-13.0,17.0,13.0,-36.0,0.0
35.0,-23.0,1.0,-21.0,-45.0,-22.0,-12.0,13.0,1.0,-54.0,0.0
26.0,-13.0,11.0,-17.0,-28.0,-19.0,-15.0,-5.0,-12.0,-58.0,0.0
-1.0,-22.0,-8.0,-23.0,-18.0,-6.0,-14.0,-5.0,-9.0,-36.0,0.0
-9.0,-43.0,-36.0,-25.0,-23.0,-2.0,-10.0,-2.0,-4.0,27.0,0.0
-6.0,-53.0,-53.0,-26.0,-7.0,7.0,-6.0,2.0,-3.0,65.0,0.0
-9.0,-45.0,-43.0,-12.0,16.0,18.0,0.0,19.0,-6.0,48.0,0.0
-17.0,-33.0,2.0,0.0,25.0,17.0,8.0,24.0,-3.0,44.0,0.0
-29.0,-12.0,25.0,12.0,19.0,-2.0,1.0,6.0,11.0,59.0,0.0
-46.0,-6.0,44.0,9.0,12.0,-11.0,0.0,25.0,40.0,79.0,0.0
-67.0,-29.0,24.0,-7.0,-1.0,-4.0,9.0,42.0,49.0,71.0,0.0
-67.0,-39.0,-4.0,-19.0,-5.0,1.0,12.0,15.0,32.0,32.0,0.0
-33.0,-40.0,-6.0,5.0,19.0,-1.0,22.0,7.0,32.0,11.0,0.0
-4.0,-17.0,19.0,22.0,35.0,-13.0,19.0,0.0,29.0,-32.0,0.0
22.0,27.0,37.0,36.0,29.0,-29.0,9.0,0.0,16.0,-148.0,0.0
31.0,47.0,26.0,24.0,4.0,-41.0,-8.0,0.0,-12.0,-207.0,0.0
34.0,59.0,26.0,0.0,-21.0,-39.0,-26.0,-28.0,-18.0,-195.0,0.0
43.0,60.0,10.0,-5.0,-1.0,-43.0,-39.0,-32.0,-34.0,-174.0,0.0
33.0,47.0,-2.0,-16.0,33.0,-40.0,-49.0,-29.0,-41.0,-149.0,0.0
20.0,36.0,-23.0,-9.0,27.0,-17.0,-34.0,-9.0,-15.0,-121.0,0.0
12.0,26.0,-53.0,-31.0,-57.0,-15.0,-25.0,15.0,6.0,-84.0,0.0
-2.0,15.0,-59.0,-58.0,-106.0,-35.0,-38.0,3.0,-13.0,-53.0,0.0
-31.0,8.0,-28.0,-38.0,-84.0,-22.0,-27.0,-17.0,-45.0,-20.0,0.0
-41.0,8.0,-9.0,-6.0,-43.0,-17.0,-12.0,-12.0,-33.0,34.0,0.0
-11.0,24.0,-9.0,35.0,12.0,8.0,13.0,21.0,9.0,57.0,0.0
19.0,23.0,7.0,81.0,56.0,64.0,59.0,69.0,57.0,76.0,0.0
56.0,1.0,25.0,85.0,63.0,87.0,86.0,90.0,68.0,126.0,0.0
44.0,-35.0,1.0,52.0,53.0,67.0,76.0,81.0,51.0,110.0,0.0
-13.0,-80.0,-11.0,16.0,30.0,29.0,37.0,46.0,0.0,13.0,0.0
-38.0,-104.0,-41.0,-5.0,26.0,7.0,33.0,24.0,6.0,-31.0,0.0
-55.0,-115.0,-90.0,-33.0,12.0,8.0,49.0,30.0,50.0,-24.0,0.0
-54.0,-107.0,-101.0,-31.0,0.0,4.0,42.0,32.0,60.0,5.0,0.0
-26.0,-77.0,-66.0,19.0,2.0,4.0,44.0,29.0,54.0,112.0,0.0
17.0,-59.0,-11.0,53.0,15.0,38.0,49.0,35.0,55.0,250.0,0.0
37.0,-61.0,34.0,56.0,10.0,50.0,47.0,48.0,57.0,204.0,0.0
41.0,-17.0,21.0,42.0,-9.0,35.0,35.0,30.0,43.0,84.0,0.0
44.0,80.0,0.0,14.0,-48.0,4.0,26.0,3.0,17.0,49.0,0.0
37.0,134.0,-5.0,2.0,-97.0,-27.0,-5.0,-19.0,-21.0,28.0,0.0
25.0,119.0,0.0,2.0,-109.0,-48.0,-46.0,-35.0,-37.0,0.0,0.0
11.0,86.0,-2.0,-8.0,-81.0,-53.0,-67.0,-46.0,-56.0,-23.0,0.0
0.0,57.0,0.0,-8.0,0.0,-43.0,-65.0,-59.0,-61.0,-47.0,0.0
-3.0,26.0,-9.0,-13.0,85.0,-36.0,-61.0,-63.0,-58.0,-42.0,0.0
4.0,-9.0,-42.0,-12.0,64.0,-52.0,-63.0,-47.0,-68.0,-37.0,0.0
14.0,-29.0,-56.0,-12.0,21.0,-50.0,-49.0,-27.0,-57.0,-21.0,0.0
26.0,-25.0,-49.0,14.0,57.0,-16.0,-9.0,-8.0,-21.0,16.0,0.0
24.0,-37.0,-42.0,49.0,51.0,7.0,-5.0,-4.0,-4.0,25.0,0.0
10.0,-44.0,-29.0,48.0,27.0,24.0,11.0,2.0,9.0,28.0,0.0
-18.0,-72.0,-13.0,48.0,12.0,47.0,43.0,35.0,41.0,27.0,0.0
-37.0,-115.0,9.0,54.0,24.0,47.0,56.0,51.0,52.0,6.0,0.0
-26.0,-124.0,39.0,49.0,55.0,35.0,53.0,48.0,46.0,2.0,0.0
5.0,-99.0,71.0,39.0,57.0,23.0,54.0,40.0,41.0,5.0,0.0
21.0,-56.0,60.0,31.0,27.0,15.0,38.0,33.0,35.0,14.0,0.0
29.0,9.0,64.0,8.0,-12.0,10.0,30.0,22.0,18.0,1.0,0.0
16.0,47.0,62.0,-20.0,-19.0,8.0,29.0,12.0,5.0,-12.0,0.0
-16.0,20.0,36.0,0.0,-15.0,1.0,23.0,-3.0,-3.0,-49.0,0.0
-43.0,0.0,37.0,9.0,-26.0,-3.0,21.0,3.0,-4.0,-103.0,0.0
-49.0,-7.0,24.0,-12.0,-37.0,-34.0,5.0,-4.0,-21.0,-153.0,0.0
-59.0,-17.0,11.0,-35.0,-59.0,-62.0,-37.0,-51.0,-48.0,-180.0,0.0
-82.0,-38.0,-2.0,-51.0,-55.0,-86.0,-74.0,-80.0,-86.0,-199.0,0.0
-90.0,-59.0,-22.0,-39.0,-36.0,-90.0,-88.0,-84.0,-107.0,-213.0,0.0
-51.0,-47.0,-19.0,-8.0,0.0,-45.0,-52.0,-45.0,-64.0,-6.0,0.0
11.0,-10.0,-21.0,35.0,29.0,-1.0,-9.0,7.0,9.0,238.0,0.0
40.0,-3.0,-19.0,34.0,36.0,0.0,-8.0,5.0,-6.0,220.0,0.0
28.0,3.0,-29.0,15.0,10.0,-20.0,-30.0,-36.0,-34.0,107.0,0.0
22.0,30.0,-43.0,4.0,-28.0,-24.0,-41.0,-54.0,-45.0,97.0,0.0
60.0,41.0,-38.0,7.0,-51.0,-17.0,-28.0,-44.0,-18.0,133.0,0.0
102.0,78.0,-5.0,21.0,-32.0,-4.0,21.0,9.0,32.0,130.0,0.0
104.0,113.0,18.0,36.0,2.0,28.0,59.0,55.0,85.0,146.0,0.0
91.0,138.0,25.0,43.0,14.0,43.0,79.0,80.0,108.0,101.0,0.0
66.0,148.0,39.0,57.0,24.0,24.0,60.0,89.0,77.0,-18.0,0.0
40.0,140.0,40.0,46.0,32.0,-7.0,15.0,45.0,47.0,-42.0,0.0
9.0,105.0,8.0,10.0,7.0,-28.0,-20.0,5.0,20.0,-23.0,0.0
-21.0,41.0,-8.0,-9.0,-11.0,-17.0,-16.0,0.0,6.0,-44.0,0.0
-24.0,5.0,-23.0,-8.0,1.0,15.0,31.0,18.0,18.0,-87.0,0.0
-3.0,12.0,-10.0,18.0,21.0,39.0,52.0,29.0,28.0,55.0,0.0
0.0,3.0,-8.0,20.0,8.0,31.0,21.0,0.0,11.0,115.0,0.0
-25.0,-31.0,-23.0,-5.0,-17.0,19.0,9.0,-6.0,3.0,78.0,0.0
-53.0,-49.0,-27.0,-1.0,-9.0,34.0,18.0,8.0,9.0,67.0,0.0
-74.0,-51.0,-16.0,9.0,3.0,46.0,38.0,14.0,-3.0,41.0,0.0
-61.0,-38.0,-9.0,3.0,12.0,35.0,35.0,2.0,1.0,20.0,0.0
-45.0,-13.0,-18.0,-2.0,5.0,11.0,18.0,-4.0,-8.0,18.0,0.0
-44.0,-15.0,-12.0,-9.0,-1.0,-12.0,-1.0,-24.0,-31.0,1.0,0.0
-46.0,-29.0,-15.0,-14.0,-3.0,-15.0,-10.0,-31.0,-26.0,-40.0,0.0
-36.0,-25.0,-31.0,-14.0,0.0,-16.0,-18.0,-34.0,-19.0,-50.0,0.0
-40.0,-16.0,-49.0,-19.0,4.0,-13.0,4.0,-14.0,-15.0,-15.0,0.0
-34.0,-16.0,-42.0,-20.0,4.0,0.0,32.0,13.0,-1.0,58.0,0.0
-16.0,-7.0,-17.0,-13.0,9.0,8.0,39.0,12.0,5.0,129.0,0.0
0.0,-7.0,-16.0,-2.0,18.0,2.0,37.0,5.0,14.0,119.0,0.0
17.0,-15.0,-15.0,-2.0,24.0,3.0,24.0,-4.0,15.0,65.0,0.0
26.0,-27.0,-13.0,-20.0,12.0,1.0,5.0,5.0,13.0,26.0,0.0
16.0,-52.0,-18.0,-20.0,11.0,-4.0,13.0,10.0,4.0,-22.0,0.0
0.0,-65.0,-42.0,-11.0,23.0,4.0,27.0,6.0,12.0,-65.0,0.0
-4.0,-65.0,-65.0,-21.0,26.0,3.0,27.0,6.0,11.0,-92.0,0.0
-11.0,-75.0,-79.0,-40.0,14.0,14.0,25.0,-10.0,8.0,-108.0,0.0
-10.0,-73.0,-90.0,-46.0,0.0,6.0,22.0,-8.0,0.0,-129.0,0.0
-19.0,-53.0,-37.0,-21.0,-17.0,-21.0,4.0,-22.0,-17.0,-194.0,0.0
-14.0,-38.0,-14.0,-18.0,-7.0,-24.0,-1.0,-27.0,-18.0,-130.0,0.0
-4.0,-36.0,-3.0,-16.0,17.0,-34.0,-31.0,-26.0,-31.0,-33.0,0.0
16.0,-17.0,27.0,-9.0,32.0,-39.0,-51.0,-22.0,-28.0,86.0,0.0
53.0,83.0,88.0,47.0,61.0,12.0,4.0,33.0,64.0,177.0,0.0
70.0,109.0,112.0,46.0,37.0,6.0,-2.0,31.0,64.0,118.0,0.0
65.0,106.0,69.0,13.0,-2.0,-32.0,-34.0,-7.0,28.0,109.0,0.0
87.0,83.0,23.0,3.0,-25.0,-29.0,-32.0,-16.0,11.0,157.0,0.0
121.0,83.0,20.0,19.0,-31.0,-5.0,-11.0,6.0,31.0,112.0,0.0
102.0,71.0,18.0,16.0,-13.0,-4.0,-4.0,8.0,16.0,-43.0,0.0
63.0,37.0,22.0,8.0,-13.0,-11.0,-21.0,3.0,4.0,-71.0,0.0
50.0,25.0,48.0,10.0,0.0,-13.0,-14.0,17.0,7.0,-43.0,0.0
42.0,31.0,60.0,14.0,6.0,-13.0,-15.0,21.0,17.0,-31.0,0.0
23.0,28.0,53.0,12.0,3.0,-13.0,-12.0,13.0,7.0,-13.0,0.0
12.0,17.0,45.0,25.0,2.0,-5.0,-12.0,7.0,0.0,8.0,0.0
0.0,12.0,51.0,30.0,8.0,-7.0,-25.0,4.0,-16.0,29.0,0.0
-34.0,19.0,60.0,12.0,20.0,-12.0,-23.0,3.0,-32.0,11.0,0.0
-67.0,-6.0,44.0,8.0,26.0,-13.0,-15.0,-1.0,-26.0,-16.0,0.0
-81.0,-32.0,40.0,6.0,29.0,-7.0,-15.0,0.0,-19.0,-21.0,0.0
-84.0,-40.0,33.0,1.0,29.0,8.0,-16.0,-4.0,-18.0,-19.0,0.0
-88.0,-30.0,8.0,-8.0,7.0,17.0,-19.0,9.0,-7.0,-8.0,0.0
-79.0,-36.0,-12.0,-15.0,-7.0,9.0,-16.0,16.0,-1.0,7.0,0.0
-58.0,-44.0,-30.0,-13.0,-8.0,16.0,-13.0,7.0,10.0,3.0,0.0
-9.0,-27.0,-39.0,-23.0,-72.0,2.0,-1.0,8.0,-3.0,-8.0,0.0
0.0,-38.0,-34.0,-20.0,-59.0,-1.0,12.0,15.0,-18.0,-10.0,0.0
7.0,-55.0,-38.0,-5.0,-48.0,3.0,-3.0,19.0,-24.0,-10.0,0.0
11.0,-128.0,-19.0,-13.0,-48.0,-48.0,-70.0,-19.0,-117.0,-39.0,0.0
32.0,-80.0,5.0,-12.0,-33.0,-50.0,-73.0,-22.0,-110.0,-38.0,0.0
75.0,103.0,9.0,2.0,-22.0,6.0,-17.0,12.0,33.0,3.0,0.0
82.0,178.0,-5.0,0.0,-35.0,-7.0,-23.0,4.0,22.0,12.0,0.0
87.0,160.0,-9.0,2.0,-36.0,-18.0,-29.0,15.0,10.0,17.0,0.0
69.0,130.0,12.0,2.0,-18.0,-9.0,-4.0,17.0,31.0,4.0,0.0
34.0,92.0,28.0,7.0,7.0,-4.0,-5.0,6.0,18.0,-10.0,0.0
17.0,33.0,0.0,-4.0,9.0,-9.0,-29.0,-12.0,-3.0,-25.0,0.0
16.0,-21.0,-38.0,-21.0,8.0,0.0,-18.0,-18.0,-16.0,-22.0,0.0
-3.0,-63.0,-56.0,-11.0,8.0,18.0,1.0,-1.0,0.0,-5.0,0.0
-24.0,-109.0,-73.0,10.0,12.0,36.0,11.0,20.0,14.0,-4.0,0.0
-31.0,-115.0,-67.0,36.0,-4.0,41.0,22.0,29.0,15.0,13.0,0.0
-38.0,-89.0,-32.0,31.0,-29.0,25.0,14.0,15.0,14.0,29.0,0.0
-56.0,-57.0,5.0,15.0,-4.0,20.0,16.0,9.0,7.0,7.0,0.0
-77.0,-60.0,47.0,23.0,32.0,18.0,9.0,2.0,-1.0,-22.0,0.0
-60.0,-72.0,58.0,17.0,69.0,22.0,-1.0,3.0,-7.0,-18.0,0.0
-16.0,-38.0,46.0,-4.0,61.0,25.0,14.0,7.0,0.0,-6.0,0.0
11.0,-27.0,59.0,-13.0,34.0,19.0,14.0,2.0,9.0,-6.0,0.0
7.0,-41.0,53.0,-25.0,27.0,13.0,6.0,2.0,1.0,-11.0,0.0
7.0,-58.0,31.0,-62.0,-18.0,0.0,13.0,-2.0,-7.0,-11.0,0.0
7.0,-65.0,11.0,-63.0,-45.0,-6.0,13.0,-10.0,-9.0,-17.0,0.0
-5.0,-72.0,0.0,-42.0,-38.0,6.0,17.0,5.0,-3.0,-17.0,0.0
-12.0,-66.0,-15.0,-37.0,-63.0,12.0,42.0,26.0,13.0,0.0,0.0
-9.0,-40.0,-23.0,-41.0,-85.0,-14.0,28.0,12.0,25.0,-7.0,0.0
-14.0,-22.0,-21.0,-51.0,-68.0,-45.0,-15.0,-26.0,-6.0,-40.0,0.0
-15.0,-15.0,-7.0,-49.0,-26.0,-50.0,-26.0,-48.0,-28.0,-53.0,0.0
-4.0,34.0,4.0,-16.0,63.0,-12.0,-17.0,-44.0,-8.0,-41.0,0.0
5.0,103.0,34.0,19.0,81.0,8.0,-6.0,-27.0,-9.0,-11.0,0.0
23.0,174.0,63.0,77.0,99.0,21.0,24.0,3.0,20.0,11.0,0.0
31.0,193.0,39.0,65.0,86.0,34.0,28.0,25.0,30.0,20.0,0.0
28.0,124.0,34.0,16.0,48.0,14.0,13.0,17.0,6.0,0.0,0.0
6.0,0.0,-9.0,16.0,16.0,-39.0,-54.0,-46.0,-48.0,-126.0,0.0
2.0,-22.0,-25.0,1.0,9.0,-48.0,-65.0,-59.0,-66.0,-147.0,0.0
-15.0,-64.0,-54.0,-32.0,-22.0,-66.0,-79.0,-59.0,-104.0,-169.0,0.0
-14.0,-73.0,-76.0,-66.0,-64.0,-76.0,-71.0,-58.0,-108.0,-174.0,0.0
2.0,-37.0,-70.0,-69.0,-80.0,-52.0,-38.0,-41.0,-49.0,-111.0,0.0
27.0,-23.0,-23.0,-65.0,-78.0,-51.0,-29.0,-28.0,-30.0,-5.0,0.0
31.0,-25.0,-9.0,-68.0,-69.0,-45.0,-26.0,-22.0,-22.0,50.0,0.0
13.0,-26.0,-2.0,-55.0,-39.0,0.0,-1.0,0.0,20.0,90.0,0.0
-1.0,-32.0,-7.0,-44.0,-49.0,17.0,29.0,34.0,36.0,93.0,0.0
-3.0,-33.0,-24.0,-34.0,-53.0,28.0,50.0,65.0,40.0,84.0,0.0
3.0,-26.0,-14.0,-10.0,-48.0,61.0,84.0,75.0,75.0,144.0,0.0
-9.0,-11.0,-1.0,4.0,-39.0,61.0,83.0,51.0,56.0,146.0,0.0
0.0,4.0,10.0,-9.0,-37.0,41.0,48.0,20.0,22.0,129.0,0.0
0.0,14.0,40.0,-1.0,-8.0,38.0,31.0,10.0,9.0,110.0,0.0
9.0,6.0,47.0,17.0,71.0,59.0,43.0,32.0,17.0,68.0,0.0
23.0,5.0,39.0,34.0,81.0,55.0,42.0,60.0,13.0,11.0,0.0
37.0,23.0,24.0,31.0,45.0,30.0,21.0,52.0,3.0,-76.0,0.0
63.0,58.0,23.0,6.0,24.0,33.0,23.0,31.0,3.0,-80.0,0.0
75.0,55.0,33.0,3.0,13.0,28.0,7.0,7.0,-15.0,-53.0,0.0
71.0,22.0,34.0,9.0,24.0,44.0,19.0,4.0,-18.0,-31.0,0.0
75.0,19.0,33.0,-5.0,32.0,46.0,20.0,5.0,-13.0,-17.0,0.0
80.0,44.0,34.0,-8.0,18.0,28.0,15.0,-1.0,0.0,-18.0,0.0
65.0,87.0,66.0,4.0,0.0,6.0,11.0,-14.0,-5.0,-32.0,0.0
52.0,97.0,76.0,14.0,-14.0,-9.0,7.0,-24.0,0.0,-47.0,0.0
34.0,92.0,62.0,19.0,-19.0,-19.0,2.0,-9.0,9.0,-65.0,0.0
10.0,87.0,38.0,19.0,-18.0,-22.0,-6.0,12.0,20.0,-83.0,0.0
-14.0,69.0,8.0,27.0,-12.0,-15.0,-7.0,21.0,36.0,-98.0,0.0
-39.0,39.0,5.0,42.0,13.0,26.0,15.0,36.0,23.0,-108.0,0.0
-56.0,15.0,-22.0,43.0,54.0,58.0,24.0,39.0,0.0,-116.0,0.0
-63.0,10.0,-25.0,9.0,89.0,58.0,17.0,31.0,3.0,-94.0,0.0
-67.0,7.0,-31.0,-64.0,64.0,37.0,6.0,12.0,-4.0,-75.0,0.0
-66.0,-10.0,-52.0,-109.0,-4.0,6.0,-15.0,-19.0,-16.0,-12.0,0.0
-47.0,-33.0,-64.0,-91.0,-14.0,7.0,4.0,-11.0,-14.0,145.0,0.0
-34.0,-34.0,-50.0,-60.0,0.0,38.0,21.0,5.0,-2.0,166.0,0.0
-36.0,-28.0,-16.0,-46.0,3.0,41.0,23.0,5.0,11.0,60.0,0.0
-37.0,-39.0,1.0,-44.0,4.0,25.0,6.0,-13.0,-14.0,-4.0,0.0
-35.0,-51.0,18.0,-9.0,18.0,30.0,10.0,-20.0,-30.0,-9.0,0.0
-23.0,-39.0,27.0,21.0,33.0,31.0,24.0,-15.0,-14.0,24.0,0.0
-23.0,-13.0,21.0,52.0,33.0,21.0,23.0,0.0,-5.0,57.0,0.0
-25.0,4.0,30.0,88.0,46.0,34.0,26.0,21.0,14.0,5.0,0.0
-12.0,-18.0,51.0,86.0,54.0,38.0,31.0,27.0,36.0,-74.0,0.0
-15.0,-36.0,16.0,43.0,23.0,32.0,31.0,13.0,20.0,-97.0,0.0
-18.0,7.0,-38.0,-1.0,-11.0,23.0,18.0,4.0,0.0,-59.0,0.0
-14.0,72.0,-34.0,-25.0,-31.0,-6.0,12.0,-14.0,2.0,-40.0,0.0
7.0,113.0,-2.0,-2.0,-26.0,-27.0,8.0,-8.0,13.0,27.0,0.0
35.0,137.0,28.0,30.0,5.0,-9.0,12.0,2.0,24.0,231.0,0.0
49.0,95.0,15.0,25.0,10.0,-6.0,3.0,9.0,19.0,261.0,0.0
60.0,40.0,-20.0,-1.0,-8.0,-24.0,-4.0,-2.0,3.0,148.0,0.0
59.0,-13.0,-39.0,-20.0,-26.0,-20.0,0.0,3.0,-15.0,90.0,0.0
48.0,-39.0,-29.0,-19.0,-23.0,-20.0,-15.0,3.0,-32.0,35.0,0.0
41.0,-38.0,-20.0,-10.0,-29.0,-32.0,-23.0,-10.0,-30.0,-6.0,0.0
47.0,-43.0,-9.0,-15.0,-32.0,-36.0,-26.0,-10.0,-31.0,-12.0,0.0
29.0,-47.0,-5.0,-24.0,-25.0,-28.0,-36.0,-13.0,-39.0,-20.0,0.0
8.0,-66.0,-17.0,-46.0,-25.0,-21.0,-25.0,-10.0,-32.0,-30.0,0.0
-11.0,-102.0,-6.0,-57.0,-33.0,-21.0,-2.0,4.0,-15.0,-34.0,0.0
-42.0,-130.0,5.0,-44.0,-24.0,-10.0,7.0,9.0,-9.0,-25.0,0.0
-53.0,-129.0,9.0,-5.0,-12.0,-14.0,18.0,17.0,11.0,20.0,0.0
-46.0,-86.0,39.0,38.0,13.0,-8.0,42.0,48.0,35.0,115.0,0.0
-20.0,-39.0,76.0,40.0,22.0,13.0,57.0,60.0,66.0,162.0,0.0
-9.0,-2.0,88.0,32.0,12.0,3.0,36.0,43.0,69.0,123.0,0.0
-1.0,13.0,81.0,30.0,8.0,-10.0,28.0,24.0,37.0,52.0,0.0
9.0,102.0,63.0,48.0,24.0,-1.0,29.0,8.0,12.0,-37.0,0.0
7.0,129.0,51.0,38.0,16.0,4.0,25.0,12.0,7.0,-62.0,0.0
-4.0,69.0,38.0,-6.0,-1.0,-5.0,-2.0,-11.0,-33.0,-65.0,0.0
-18.0,-16.0,24.0,-15.0,-13.0,-28.0,-16.0,-26.0,-58.0,-44.0,0.0
-32.0,-43.0,9.0,-7.0,32.0,-3.0,15.0,7.0,-3.0,-11.0,0.0
-54.0,-59.0,0.0,8.0,56.0,10.0,36.0,38.0,23.0,-4.0,0.0
-76.0,-48.0,-23.0,24.0,33.0,6.0,26.0,21.0,-4.0,-49.0,0.0
-85.0,-13.0,-22.0,0.0,-14.0,-17.0,-15.0,-24.0,-40.0,-99.0,0.0
-80.0,-8.0,20.0,-15.0,-56.0,-53.0,-63.0,-68.0,-69.0,-124.0,0.0
-68.0,-20.0,24.0,-27.0,-62.0,-55.0,-73.0,-85.0,-74.0,-113.0,0.0
-58.0,-24.0,10.0,-26.0,-46.0,-46.0,-53.0,-69.0,-57.0,-86.0,0.0
-53.0,-37.0,1.0,1.0,5.0,-39.0,-34.0,-69.0,-49.0,-66.0,0.0
-41.0,-23.0,-16.0,2.0,11.0,-25.0,-30.0,-56.0,-40.0,-38.0,0.0
-19.0,2.0,-29.0,-26.0,-22.0,-27.0,-31.0,-33.0,-26.0,12.0,0.0
-15.0,10.0,-39.0,-22.0,-18.0,-19.0,-25.0,8.0,-2.0,29.0,0.0
-18.0,2.0,-25.0,-12.0,-26.0,3.0,15.0,55.0,45.0,-66.0,0.0
-25.0,-25.0,-33.0,-21.0,-33.0,7.0,11.0,55.0,30.0,-123.0,0.0
-23.0,-41.0,-28.0,-32.0,-58.0,-10.0,-18.0,2.0,-14.0,15.0,0.0
-18.0,-33.0,-22.0,-25.0,-45.0,1.0,-24.0,0.0,-23.0,59.0,0.0
0.0,-16.0,4.0,-6.0,14.0,19.0,-13.0,6.0,-44.0,34.0,0.0
7.0,13.0,44.0,1.0,81.0,32.0,-5.0,1.0,-38.0,-3.0,0.0
18.0,75.0,57.0,27.0,126.0,83.0,51.0,55.0,49.0,-14.0,0.0
14.0,104.0,52.0,28.0,87.0,66.0,55.0,81.0,68.0,-9.0,0.0
13.0,108.0,56.0,11.0,59.0,44.0,39.0,70.0,42.0,62.0,0.0
20.0,107.0,53.0,23.0,60.0,48.0,46.0,64.0,45.0,-3.0,0.0
13.0,80.0,40.0,29.0,50.0,37.0,36.0,37.0,46.0,-67.0,0.0
0.0,36.0,26.0,22.0,50.0,32.0,9.0,15.0,19.0,-69.0,0.0
-6.0,31.0,18.0,6.0,51.0,22.0,-1.0,7.0,-1.0,-82.0,0.0
0.0,51.0,20.0,-6.0,23.0,-1.0,-2.0,-2.0,-7.0,-109.0,0.0
-19.0,32.0,8.0,-19.0,-11.0,-6.0,-16.0,-19.0,-29.0,-187.0,0.0
-55.0,11.0,12.0,-60.0,-68.0,-17.0,-43.0,-25.0,-48.0,-263.0,0.0
-88.0,-8.0,-11.0,-89.0,-76.0,-39.0,-51.0,-38.0,-62.0,-270.0,0.0
-86.0,-39.0,-24.0,-99.0,-55.0,-33.0,-46.0,-37.0,-54.0,-251.0,0.0
-45.0,-43.0,-25.0,-65.0,-29.0,-9.0,-27.0,-23.0,-39.0,-142.0,0.0
38.0,-1.0,-21.0,-12.0,-10.0,0.0,-22.0,-3.0,-3.0,41.0,0.0
69.0,34.0,-6.0,5.0,-4.0,-2.0,-20.0,-10.0,-11.0,44.0,0.0
49.0,48.0,28.0,13.0,0.0,3.0,-24.0,-22.0,-45.0,83.0,0.0
37.0,35.0,11.0,-4.0,-12.0,-11.0,-26.0,-22.0,-33.0,247.0,0.0
50.0,20.0,-6.0,-5.0,-18.0,-6.0,-14.0,-12.0,-10.0,364.0,0.0
79.0,33.0,18.0,25.0,-13.0,-2.0,-8.0,2.0,11.0,318.0,0.0
137.0,42.0,32.0,17.0,-24.0,-14.0,-13.0,10.0,26.0,244.0,0.0
150.0,56.0,39.0,24.0,-4.0,12.0,9.0,35.0,48.0,254.0,0.0
94.0,51.0,33.0,41.0,34.0,41.0,27.0,37.0,32.0,205.0,0.0
27.0,42.0,22.0,42.0,52.0,36.0,18.0,29.0,3.0,122.0,0.0
15.0,39.0,17.0,41.0,53.0,34.0,8.0,21.0,-7.0,82.0,0.0
36.0,50.0,-3.0,46.0,41.0,24.0,12.0,28.0,0.0,71.0,0.0
37.0,66.0,-5.0,34.0,5.0,22.0,12.0,27.0,2.0,36.0,0.0
35.0,72.0,-9.0,23.0,-4.0,13.0,0.0,18.0,5.0,11.0,0.0
9.0,43.0,-21.0,57.0,11.0,25.0,1.0,3.0,2.0,4.0,0.0
-15.0,-9.0,-39.0,52.0,29.0,58.0,18.0,4.0,-1.0,-6.0,0.0
-30.0,-51.0,-66.0,0.0,2.0,69.0,27.0,2.0,-1.0,-31.0,0.0
-39.0,-59.0,-61.0,-12.0,-14.0,68.0,24.0,9.0,-6.0,-57.0,0.0
-45.0,-68.0,-40.0,-11.0,-18.0,44.0,12.0,2.0,-25.0,-57.0,0.0
-38.0,-83.0,-34.0,-10.0,-29.0,18.0,-15.0,-4.0,-37.0,-26.0,0.0
-24.0,-81.0,-12.0,-6.0,-20.0,1.0,-23.0,-3.0,-33.0,45.0,0.0
-24.0,-79.0,-15.0,14.0,-5.0,11.0,-7.0,22.0,-10.0,99.0,0.0
-29.0,-67.0,-19.0,26.0,5.0,24.0,3.0,46.0,6.0,75.0,0.0
-28.0,-92.0,0.0,21.0,20.0,10.0,-11.0,29.0,-24.0,2.0,0.0
-12.0,-87.0,-7.0,1.0,28.0,1.0,-24.0,7.0,-39.0,-29.0,0.0
8.0,-8.0,-17.0,-12.0,20.0,-6.0,-13.0,-2.0,-12.0,-20.0,0.0
-3.0,64.0,-15.0,3.0,13.0,4.0,-15.0,-16.0,-8.0,-21.0,0.0
-29.0,98.0,-11.0,28.0,12.0,7.0,-29.0,-44.0,-25.0,-30.0,0.0
-25.0,84.0,-7.0,33.0,2.0,-5.0,-38.0,-45.0,-14.0,-25.0,0.0
-4.0,59.0,-28.0,24.0,-8.0,-18.0,-38.0,-31.0,-11.0,-13.0,0.0
-9.0,37.0,-56.0,-3.0,-12.0,-14.0,-40.0,-30.0,-22.0,-22.0,0.0
-26.0,37.0,-58.0,-32.0,-41.0,-6.0,-23.0,-30.0,-31.0,-41.0,0.0
-27.0,47.0,-57.0,-34.0,-73.0,-6.0,12.0,-19.0,-24.0,-32.0,0.0
-7.0,51.0,-53.0,-34.0,-81.0,-25.0,14.0,-2.0,-13.0,-15.0,0.0
12.0,33.0,-44.0,-1.0,-64.0,-28.0,2.0,4.0,2.0,-4.0,0.0
21.0,-5.0,-34.0,13.0,-41.0,-36.0,5.0,6.0,6.0,-14.0,0.0
28.0,-22.0,-22.0,29.0,-39.0,-24.0,5.0,8.0,-1.0,-21.0,0.0
0.0,-57.0,-42.0,34.0,-29.0,-38.0,-16.0,6.0,-31.0,-23.0,0.0
7.0,-42.0,-30.0,34.0,-17.0,-20.0,-14.0,8.0,-20.0,-19.0,0.0
4.0,-54.0,-32.0,32.0,-5.0,-12.0,-19.0,5.0,-20.0,-32.0,0.0
-8.0,-122.0,-44.0,-7.0,-17.0,-62.0,-83.0,-23.0,-131.0,-77.0,0.0
-5.0,-115.0,-61.0,-47.0,-51.0,-79.0,-90.0,-27.0,-123.0,-108.0,0.0
2.0,-48.0,-68.0,-35.0,-48.0,-22.0,-23.0,3.0,-23.0,-95.0,0.0
-13.0,-53.0,-61.0,-27.0,-35.0,-27.0,-12.0,-12.0,-34.0,-85.0,0.0
-6.0,-38.0,-67.0,-25.0,-30.0,-38.0,-18.0,-26.0,-47.0,-67.0,0.0
11.0,1.0,-41.0,-17.0,-23.0,-38.0,-23.0,-48.0,-47.0,-18.0,0.0
11.0,16.0,-17.0,0.0,-19.0,-23.0,-15.0,-38.0,-28.0,32.0,0.0
-6.0,8.0,17.0,-1.0,-29.0,-16.0,-10.0,-23.0,-14.0,69.0,0.0
-28.0,22.0,70.0,2.0,-25.0,-17.0,-3.0,-31.0,-4.0,139.0,0.0
8.0,46.0,109.0,14.0,4.0,-8.0,7.0,-14.0,24.0,176.0,0.0
35.0,70.0,129.0,36.0,20.0,8.0,11.0,11.0,61.0,101.0,0.0
25.0,57.0,143.0,88.0,46.0,25.0,38.0,55.0,95.0,-52.0,0.0
20.0,47.0,122.0,106.0,63.0,38.0,56.0,69.0,103.0,-131.0,0.0
13.0,36.0,77.0,115.0,72.0,40.0,50.0,65.0,76.0,-105.0,0.0
20.0,39.0,62.0,111.0,69.0,29.0,43.0,59.0,58.0,-71.0,0.0
56.0,40.0,56.0,41.0,9.0,3.0,-13.0,15.0,53.0,-90.0,0.0
28.0,74.0,37.0,25.0,21.0,3.0,-10.0,-4.0,26.0,-121.0,0.0
-16.0,34.0,-1.0,-17.0,8.0,-17.0,-34.0,-35.0,-37.0,-190.0,0.0
-71.0,-62.0,-30.0,-76.0,-33.0,-41.0,-62.0,-53.0,-84.0,-250.0,0.0
-84.0,-96.0,-62.0,-74.0,-35.0,-13.0,2.0,-36.0,0.0,-222.0,0.0
-66.0,-128.0,-73.0,-50.0,-16.0,-7.0,5.0,-23.0,23.0,-73.0,0.0
-38.0,-107.0,-57.0,-13.0,2.0,-1.0,14.0,-17.0,36.0,180.0,0.0
-15.0,-80.0,-42.0,-5.0,18.0,0.0,27.0,-10.0,53.0,244.0,0.0
7.0,-66.0,-24.0,11.0,51.0,42.0,50.0,15.0,84.0,233.0,0.0
19.0,-63.0,-17.0,43.0,58.0,55.0,67.0,31.0,93.0,203.0,0.0
35.0,-38.0,-14.0,45.0,34.0,35.0,67.0,46.0,89.0,188.0,0.0
35.0,-15.0,-16.0,19.0,19.0,7.0,35.0,30.0,64.0,154.0,0.0
11.0,-13.0,-13.0,3.0,14.0,4.0,17.0,20.0,31.0,93.0,0.0
-31.0,-36.0,2.0,15.0,12.0,16.0,7.0,14.0,38.0,57.0,0.0
-55.0,-38.0,-5.0,8.0,6.0,26.0,8.0,-4.0,40.0,32.0,0.0
-48.0,6.0,-34.0,-12.0,11.0,4.0,-17.0,-30.0,-26.0,-20.0,0.0
-30.0,31.0,-24.0,0.0,5.0,9.0,-8.0,-25.0,1.0,-26.0,0.0
-30.0,1.0,13.0,-5.0,-23.0,-29.0,-29.0,-31.0,-42.0,-38.0,0.0
-27.0,-7.0,34.0,-13.0,-52.0,-42.0,-39.0,-27.0,-78.0,-40.0,0.0
-10.0,31.0,44.0,-4.0,-67.0,18.0,20.0,12.0,28.0,-14.0,0.0
2.0,-3.0,27.0,-12.0,-58.0,36.0,22.0,15.0,27.0,-11.0,0.0
-7.0,-55.0,-2.0,-16.0,-16.0,36.0,25.0,22.0,9.0,-19.0,0.0
-16.0,-62.0,-24.0,-15.0,40.0,85.0,45.0,29.0,18.0,-23.0,0.0
8.0,-37.0,-23.0,-27.0,42.0,84.0,35.0,16.0,8.0,-18.0,0.0
15.0,-12.0,-33.0,-31.0,31.0,56.0,29.0,5.0,5.0,-16.0,0.0
8.0,-6.0,-39.0,-28.0,48.0,36.0,9.0,-6.0,-6.0,-20.0,0.0
11.0,-3.0,-29.0,-12.0,71.0,15.0,7.0,-7.0,-11.0,-34.0,0.0
21.0,8.0,-5.0,-7.0,37.0,-9.0,4.0,-9.0,0.0,-59.0,0.0
22.0,8.0,10.0,3.0,5.0,-32.0,-21.0,-30.0,-10.0,-76.0,0.0
23.0,9.0,21.0,3.0,-6.0,-47.0,-36.0,-61.0,-40.0,-80.0,0.0
10.0,1.0,37.0,-14.0,-11.0,-34.0,-27.0,-52.0,-20.0,-1.0,0.0
3.0,7.0,40.0,3.0,7.0,-30.0,-14.0,-46.0,-21.0,33.0,0.0
9.0,14.0,36.0,-2.0,6.0,-62.0,-35.0,-49.0,-56.0,-1.0,0.0
5.0,-4.0,16.0,-16.0,3.0,-62.0,-46.0,-54.0,-68.0,-6.0,0.0
1.0,24.0,6.0,1.0,9.0,-30.0,-17.0,-36.0,-12.0,84.0,0.0
-10.0,11.0,8.0,11.0,14.0,2.0,4.0,-19.0,8.0,170.0,0.0
-15.0,11.0,3.0,12.0,21.0,43.0,51.0,29.0,53.0,33.0,0.0
-41.0,18.0,-16.0,0.0,5.0,40.0,63.0,40.0,43.0,-197.0,0.0
-62.0,4.0,-4.0,-12.0,-7.0,18.0,39.0,19.0,4.0,-231.0,0.0
-64.0,-50.0,23.0,-16.0,1.0,15.0,36.0,1.0,-16.0,-215.0,0.0
-54.0,-79.0,5.0,-20.0,-6.0,15.0,30.0,-17.0,-37.0,-190.0,0.0
-45.0,-82.0,-5.0,-22.0,-7.0,1.0,16.0,-32.0,-53.0,-123.0,0.0
-25.0,-70.0,-9.0,-20.0,-18.0,0.0,15.0,-19.0,-41.0,-47.0,0.0
23.0,-39.0,10.0,0.0,1.0,29.0,51.0,16.0,-1.0,132.0,0.0
81.0,-14.0,23.0,18.0,17.0,59.0,69.0,31.0,21.0,240.0,0.0
74.0,-16.0,9.0,16.0,18.0,58.0,75.0,28.0,24.0,184.0,0.0
38.0,-20.0,-4.0,1.0,27.0,48.0,58.0,13.0,2.0,125.0,0.0
18.0,-32.0,-9.0,1.0,28.0,34.0,50.0,14.0,-6.0,120.0,0.0
47.0,-24.0,23.0,18.0,46.0,29.0,34.0,29.0,13.0,95.0,0.0
34.0,60.0,47.0,15.0,41.0,14.0,12.0,9.0,2.0,-10.0,0.0
11.0,137.0,51.0,-9.0,39.0,-18.0,-27.0,-26.0,-49.0,-79.0,0.0
-9.0,103.0,45.0,-51.0,23.0,-65.0,-75.0,-64.0,-127.0,-145.0,0.0
-17.0,100.0,31.0,-30.0,23.0,-53.0,-60.0,-78.0,-87.0,-202.0,0.0
-31.0,72.0,-2.0,-24.0,10.0,-69.0,-74.0,-99.0,-75.0,-235.0,0.0
-43.0,14.0,-29.0,-25.0,-13.0,-81.0,-89.0,-110.0,-92.0,-255.0,0.0
-46.0,-34.0,-47.0,-33.0,-46.0,-68.0,-90.0,-105.0,-92.0,-214.0,0.0
-41.0,-51.0,-49.0,-25.0,-66.0,-59.0,-61.0,-89.0,-52.0,-30.0,0.0
-16.0,-43.0,-25.0,-11.0,-47.0,-28.0,-24.0,-61.0,-12.0,178.0,0.0
12.0,-20.0,6.0,-8.0,-7.0,15.0,25.0,-6.0,23.0,244.0,0.0
16.0,-12.0,35.0,-4.0,0.0,54.0,53.0,29.0,49.0,222.0,0.0
12.0,-29.0,50.0,7.0,14.0,88.0,82.0,45.0,60.0,280.0,0.0
23.0,-15.0,66.0,32.0,49.0,122.0,129.0,86.0,86.0,203.0,0.0
12.0,17.0,68.0,34.0,56.0,112.0,129.0,95.0,98.0,-33.0,0.0
15.0,0.0,4.0,-45.0,-18.0,26.0,41.0,18.0,61.0,-36.0,0.0
64.0,0.0,-3.0,-48.0,-16.0,13.0,24.0,15.0,52.0,113.0,0.0
101.0,1.0,-6.0,-33.0,-20.0,-9.0,7.0,-1.0,29.0,174.0,0.0
64.0,-6.0,-9.0,-33.0,-27.0,-36.0,-10.0,-23.0,-23.0,71.0,0.0
37.0,55.0,6.0,-8.0,-10.0,-1.0,29.0,-15.0,39.0,33.0,0.0
13.0,67.0,25.0,7.0,-1.0,15.0,42.0,0.0,61.0,30.0,0.0
18.0,33.0,0.0,3.0,-2.0,15.0,28.0,5.0,59.0,17.0,0.0
23.0,0.0,-11.0,1.0,-2.0,5.0,14.0,3.0,47.0,6.0,0.0
14.0,5.0,-25.0,-1.0,0.0,-7.0,4.0,-2.0,23.0,-3.0,0.0
24.0,24.0,-25.0,-4.0,4.0,-5.0,4.0,-14.0,17.0,-16.0,0.0
34.0,29.0,-14.0,-7.0,0.0,3.0,7.0,-14.0,15.0,-26.0,0.0
34.0,47.0,8.0,-8.0,-1.0,-12.0,-10.0,-11.0,11.0,-15.0,0.0
28.0,57.0,9.0,-10.0,-7.0,-18.0,-19.0,-32.0,8.0,8.0,0.0
29.0,50.0,13.0,-18.0,-11.0,-16.0,-35.0,-47.0,0.0,13.0,0.0
41.0,42.0,-12.0,-29.0,-21.0,-34.0,-45.0,-54.0,-15.0,18.0,0.0
49.0,12.0,-44.0,-33.0,-18.0,-65.0,-39.0,-42.0,-24.0,35.0,0.0
26.0,-1.0,-38.0,-32.0,-19.0,-39.0,-32.0,-39.0,-21.0,10.0,0.0
2.0,-31.0,-25.0,-32.0,-13.0,-44.0,-37.0,-44.0,-62.0,-18.0,0.0
-23.0,-93.0,-28.0,-56.0,-7.0,-80.0,-62.0,-65.0,-114.0,-58.0,0.0
-22.0,-63.0,-37.0,-26.0,7.0,-28.0,5.0,-22.0,-19.0,-43.0,0.0
-20.0,-56.0,-51.0,-7.0,8.0,-1.0,27.0,-1.0,31.0,-32.0,0.0
-24.0,-58.0,-46.0,0.0,3.0,-3.0,15.0,7.0,32.0,-51.0,0.0
-36.0,-62.0,-41.0,18.0,13.0,0.0,12.0,-2.0,9.0,-137.0,0.0
-45.0,-61.0,-31.0,22.0,24.0,2.0,12.0,-9.0,-5.0,-212.0,0.0
-54.0,-73.0,-21.0,15.0,20.0,10.0,25.0,-10.0,5.0,-206.0,0.0
-47.0,-87.0,-21.0,6.0,17.0,15.0,31.0,10.0,30.0,-83.0,0.0
-17.0,-52.0,-1.0,0.0,22.0,15.0,40.0,30.0,65.0,163.0,0.0
-19.0,-17.0,39.0,0.0,31.0,14.0,36.0,37.0,58.0,168.0,0.0
-34.0,-1.0,37.0,-5.0,40.0,12.0,24.0,26.0,31.0,21.0,0.0
-9.0,23.0,37.0,2.0,35.0,13.0,14.0,35.0,26.0,23.0,0.0
13.0,56.0,16.0,13.0,16.0,3.0,10.0,23.0,17.0,37.0,0.0
19.0,65.0,8.0,20.0,2.0,-1.0,6.0,8.0,15.0,38.0,0.0
7.0,48.0,-12.0,12.0,3.0,-7.0,1.0,3.0,15.0,56.0,0.0
-3.0,5.0,-16.0,18.0,11.0,3.0,2.0,11.0,20.0,94.0,0.0
-4.0,-35.0,-8.0,22.0,13.0,12.0,12.0,22.0,32.0,108.0,0.0
7.0,-36.0,5.0,16.0,7.0,10.0,16.0,20.0,27.0,53.0,0.0
24.0,-1.0,42.0,14.0,-3.0,5.0,7.0,25.0,24.0,-17.0,0.0
14.0,28.0,39.0,2.0,-3.0,-17.0,-12.0,25.0,12.0,-21.0,0.0
4.0,12.0,23.0,-3.0,-12.0,-26.0,-12.0,5.0,3.0,-5.0,0.0
2.0,3.0,21.0,2.0,-18.0,-20.0,0.0,18.0,3.0,1.0,0.0
8.0,-10.0,0.0,-8.0,-6.0,-12.0,13.0,23.0,-6.0,22.0,0.0
7.0,-19.0,-6.0,-6.0,0.0,-15.0,16.0,3.0,5.0,18.0,0.0
21.0,-5.0,-6.0,-3.0,-6.0,-13.0,8.0,2.0,0.0,8.0,0.0
16.0,-5.0,7.0,14.0,-5.0,-17.0,0.0,-8.0,-2.0,6.0,0.0
18.0,-23.0,10.0,33.0,-3.0,-11.0,-8.0,-14.0,-3.0,0.0,0.0
17.0,-33.0,8.0,23.0,-8.0,2.0,-6.0,0.0,-7.0,-17.0,0.0
8.0,-18.0,6.0,10.0,0.0,5.0,-11.0,3.0,-18.0,-18.0,0.0
13.0,-4.0,15.0,6.0,-1.0,4.0,-2.0,0.0,-6.0,4.0,0.0
-11.0,8.0,17.0,-2.0,4.0,4.0,2.0,10.0,7.0,10.0,0.0
-37.0,18.0,5.0,-33.0,-9.0,-13.0,-27.0,-22.0,-16.0,-28.0,0.0
-37.0,13.0,7.0,-52.0,-47.0,-42.0,-41.0,-28.0,-20.0,-43.0,0.0
-31.0,27.0,32.0,-35.0,-48.0,-37.0,-34.0,-22.0,-4.0,-46.0,0.0
-18.0,49.0,47.0,-11.0,-21.0,-22.0,-21.0,-18.0,-22.0,-36.0,0.0
2.0,53.0,42.0,31.0,19.0,2.0,-11.0,-3.0,-26.0,-10.0,0.0
8.0,54.0,50.0,62.0,36.0,17.0,-6.0,16.0,-13.0,-4.0,0.0
20.0,69.0,50.0,53.0,40.0,8.0,-12.0,10.0,-16.0,-20.0,0.0
30.0,66.0,46.0,33.0,40.0,12.0,0.0,14.0,-2.0,-15.0,0.0
35.0,43.0,20.0,15.0,24.0,0.0,-5.0,13.0,-5.0,0.0,0.0
32.0,26.0,0.0,15.0,9.0,-22.0,-12.0,17.0,-11.0,4.0,0.0
-1.0,-18.0,-2.0,2.0,7.0,12.0,12.0,37.0,4.0,33.0,0.0
-13.0,-41.0,0.0,2.0,5.0,6.0,20.0,32.0,11.0,28.0,0.0
-26.0,-78.0,0.0,4.0,10.0,-25.0,-13.0,38.0,-22.0,5.0,0.0
-34.0,-63.0,10.0,24.0,14.0,-40.0,-23.0,37.0,-36.0,-16.0,0.0
-33.0,-12.0,16.0,39.0,25.0,-2.0,0.0,43.0,4.0,-44.0,0.0
-30.0,-8.0,5.0,34.0,32.0,-3.0,-2.0,26.0,-7.0,-68.0,0.0
-31.0,-13.0,-12.0,22.0,12.0,-22.0,-21.0,6.0,-27.0,-94.0,0.0
-38.0,-37.0,-26.0,0.0,3.0,-16.0,-27.0,-5.0,-25.0,-112.0,0.0
-33.0,-54.0,-45.0,-30.0,-18.0,-4.0,-9.0,-4.0,-23.0,-144.0,0.0
-25.0,-64.0,-52.0,-51.0,-55.0,0.0,-7.0,-24.0,-15.0,-139.0,0.0
-17.0,-65.0,-44.0,-64.0,-67.0,-10.0,-16.0,-39.0,-23.0,-81.0,0.0
-7.0,-62.0,-10.0,-62.0,-61.0,0.0,-4.0,-31.0,-6.0,25.0,0.0
3.0,-62.0,0.0,-38.0,-39.0,28.0,17.0,-14.0,4.0,102.0,0.0
4.0,-54.0,-14.0,-35.0,-30.0,25.0,11.0,-3.0,0.0,103.0,0.0
0.0,-27.0,-17.0,-21.0,22.0,38.0,13.0,12.0,5.0,99.0,0.0
8.0,-1.0,-4.0,-1.0,87.0,75.0,32.0,41.0,47.0,181.0,0.0
30.0,25.0,35.0,26.0,70.0,83.0,49.0,75.0,64.0,229.0,0.0
41.0,48.0,68.0,37.0,62.0,64.0,48.0,81.0,51.0,105.0,0.0
50.0,38.0,67.0,28.0,54.0,38.0,35.0,65.0,50.0,17.0,0.0
53.0,44.0,44.0,4.0,39.0,11.0,16.0,44.0,33.0,10.0,0.0
55.0,95.0,19.0,-19.0,21.0,20.0,6.0,37.0,18.0,38.0,0.0
61.0,150.0,7.0,-19.0,15.0,17.0,-8.0,19.0,-3.0,52.0,0.0
49.0,145.0,-2.0,-5.0,4.0,1.0,-12.0,1.0,-22.0,32.0,0.0
25.0,121.0,6.0,12.0,2.0,9.0,3.0,17.0,-1.0,14.0,0.0
-16.0,74.0,2.0,12.0,-16.0,-8.0,-16.0,21.0,4.0,-2.0,0.0
-37.0,39.0,-19.0,-13.0,-51.0,-36.0,-22.0,2.0,0.0,-12.0,0.0
-38.0,16.0,-22.0,-46.0,-84.0,-28.0,-35.0,-7.0,-20.0,-35.0,0.0
-31.0,-1.0,-25.0,-68.0,-77.0,-29.0,-49.0,-33.0,-26.0,-51.0,0.0
-27.0,0.0,-19.0,-57.0,-36.0,-21.0,-50.0,-38.0,-15.0,-55.0,0.0
-25.0,-10.0,-9.0,-38.0,-15.0,-11.0,-38.0,-16.0,-8.0,-56.0,0.0
-11.0,-13.0,1.0,-19.0,-18.0,-18.0,-26.0,-4.0,-10.0,-55.0,0.0
-11.0,-5.0,-2.0,5.0,-2.0,-5.0,-25.0,-6.0,-10.0,-52.0,0.0
-10.0,-9.0,24.0,48.0,19.0,-2.0,-24.0,-4.0,-9.0,-57.0,0.0
-17.0,-34.0,33.0,82.0,36.0,-1.0,2.0,7.0,-5.0,-72.0,0.0
-39.0,-64.0,25.0,71.0,45.0,12.0,7.0,5.0,1.0,-83.0,0.0
-66.0,-79.0,0.0,44.0,34.0,32.0,-19.0,-13.0,-17.0,-84.0,0.0
-62.0,-83.0,-10.0,20.0,8.0,24.0,-19.0,-17.0,-15.0,-35.0,0.0
-42.0,-68.0,-13.0,25.0,24.0,23.0,4.0,0.0,8.0,45.0,0.0
-24.0,-48.0,8.0,29.0,27.0,34.0,21.0,25.0,26.0,111.0,0.0
-15.0,-51.0,19.0,33.0,1.0,24.0,32.0,56.0,44.0,122.0,0.0
-16.0,-66.0,-10.0,20.0,-3.0,-3.0,13.0,32.0,20.0,47.0,0.0
-23.0,-63.0,-27.0,5.0,1.0,-23.0,-19.0,-5.0,-13.0,-29.0,0.0
-33.0,-73.0,-45.0,4.0,9.0,-45.0,-41.0,-38.0,-21.0,-84.0,0.0
-55.0,-94.0,-78.0,-3.0,1.0,-53.0,-51.0,-55.0,-38.0,-173.0,0.0
-65.0,-100.0,-107.0,-30.0,-8.0,-59.0,-44.0,-68.0,-57.0,-244.0,0.0
-75.0,-93.0,-117.0,-41.0,-24.0,-53.0,-40.0,-66.0,-58.0,-285.0,0.0
-74.0,-84.0,-117.0,-51.0,-36.0,-41.0,-37.0,-50.0,-68.0,-266.0,0.0
-54.0,-44.0,-114.0,-46.0,-25.0,-29.0,-25.0,-24.0,-35.0,-175.0,0.0
-25.0,-3.0,-100.0,-38.0,-39.0,-18.0,-35.0,-22.0,-27.0,-12.0,0.0
0.0,50.0,-45.0,-12.0,-24.0,-17.0,-13.0,-18.0,-24.0,190.0,0.0
26.0,96.0,25.0,32.0,10.0,16.0,34.0,29.0,26.0,254.0,0.0
61.0,113.0,67.0,67.0,20.0,44.0,54.0,54.0,68.0,285.0,0.0
103.0,120.0,89.0,80.0,26.0,57.0,76.0,82.0,99.0,425.0,0.0
125.0,115.0,111.0,102.0,54.0,67.0,88.0,87.0,129.0,348.0,0.0
85.0,76.0,117.0,102.0,63.0,53.0,67.0,72.0,106.0,112.0,0.0
55.0,54.0,73.0,59.0,39.0,28.0,54.0,61.0,87.0,12.0,0.0
35.0,66.0,41.0,28.0,10.0,3.0,57.0,67.0,75.0,-1.0,0.0
18.0,68.0,24.0,0.0,-16.0,-15.0,38.0,40.0,51.0,-20.0,0.0
27.0,61.0,3.0,-10.0,-25.0,-11.0,32.0,15.0,27.0,3.0,0.0
33.0,43.0,12.0,32.0,-5.0,0.0,52.0,23.0,37.0,92.0,0.0
20.0,38.0,3.0,67.0,18.0,17.0,65.0,28.0,71.0,124.0,0.0
11.0,40.0,5.0,48.0,1.0,4.0,40.0,21.0,51.0,99.0,0.0
-7.0,32.0,-3.0,24.0,-22.0,-18.0,14.0,2.0,42.0,62.0,0.0
-19.0,16.0,0.0,0.0,-27.0,-34.0,0.0,-7.0,25.0,22.0,0.0
-10.0,7.0,-10.0,-14.0,-32.0,-31.0,-14.0,-21.0,-10.0,-24.0,0.0
11.0,2.0,-41.0,-37.0,-34.0,-40.0,-34.0,-33.0,-25.0,-61.0,0.0
20.0,-12.0,-66.0,-74.0,-24.0,-34.0,-40.0,-35.0,-24.0,-68.0,0.0
31.0,-15.0,-55.0,-88.0,-29.0,-29.0,-54.0,-37.0,-18.0,-50.0,0.0
41.0,-19.0,-28.0,-68.0,3.0,-20.0,-57.0,-41.0,2.0,-24.0,0.0
29.0,-28.0,-15.0,-50.0,1.0,-21.0,-66.0,-39.0,-4.0,19.0,0.0
0.0,-20.0,-4.0,-51.0,-16.0,-37.0,-65.0,-48.0,-17.0,59.0,0.0
-23.0,-22.0,31.0,-22.0,-3.0,-18.0,-37.0,-39.0,-6.0,64.0,0.0
-32.0,-22.0,56.0,12.0,16.0,33.0,0.0,-16.0,23.0,51.0,0.0
-39.0,-18.0,18.0,13.0,38.0,44.0,12.0,-4.0,40.0,-4.0,0.0
-36.0,-6.0,-2.0,34.0,25.0,23.0,12.0,4.0,34.0,-54.0,0.0
-28.0,6.0,-6.0,51.0,23.0,23.0,4.0,10.0,27.0,-102.0,0.0
0.0,16.0,-4.0,53.0,29.0,21.0,6.0,0.0,14.0,-104.0,0.0
47.0,28.0,0.0,50.0,26.0,6.0,4.0,-15.0,8.0,-87.0,0.0
65.0,29.0,7.0,35.0,15.0,-12.0,-5.0,-22.0,14.0,-56.0,0.0
61.0,11.0,10.0,23.0,9.0,-9.0,-18.0,-15.0,19.0,1.0,0.0
31.0,14.0,1.0,23.0,8.0,1.0,-29.0,-12.0,19.0,-9.0,0.0
-10.0,39.0,-13.0,26.0,5.0,11.0,-22.0,-19.0,10.0,-83.0,0.0
-32.0,51.0,0.0,25.0,-2.0,14.0,-15.0,-26.0,21.0,-153.0,0.0
-69.0,84.0,9.0,27.0,-13.0,16.0,-22.0,-27.0,21.0,-241.0,0.0
-90.0,137.0,44.0,30.0,-7.0,6.0,-26.0,-31.0,-2.0,-125.0,0.0
-107.0,149.0,60.0,26.0,16.0,11.0,-18.0,-33.0,0.0,44.0,0.0
-118.0,101.0,52.0,10.0,23.0,15.0,-14.0,-43.0,-2.0,14.0,0.0
-84.0,-12.0,57.0,4.0,16.0,1.0,-23.0,-53.0,-15.0,57.0,0.0
-23.0,-52.0,46.0,11.0,17.0,2.0,-21.0,-54.0,1.0,118.0,0.0
6.0,15.0,33.0,2.0,15.0,18.0,-10.0,-19.0,31.0,88.0,0.0
21.0,87.0,34.0,8.0,7.0,11.0,-5.0,-6.0,31.0,23.0,0.0
22.0,92.0,39.0,-2.0,0.0,-2.0,-28.0,-3.0,16.0,51.0,0.0
28.0,71.0,37.0,-1.0,-22.0,-5.0,-36.0,-2.0,20.0,136.0,0.0
40.0,39.0,25.0,4.0,-34.0,0.0,-23.0,5.0,27.0,176.0,0.0
39.0,0.0,6.0,-29.0,-38.0,-3.0,-12.0,3.0,14.0,147.0,0.0
0.0,-54.0,-23.0,-62.0,-17.0,-4.0,-36.0,-20.0,-9.0,59.0,0.0
-41.0,-99.0,-53.0,-71.0,-26.0,-29.0,-74.0,-51.0,-42.0,-10.0,0.0
-39.0,-108.0,-75.0,-70.0,-31.0,-38.0,-65.0,-69.0,-65.0,-48.0,0.0
-13995.0,-14668.0,-2399.0,-1865.0,-637.0,-830.0,-1401.0,17710.0,-1751.0,-891.0,0.0
820.0,771.0,71.0,40.0,8.0,21.0,33.0,-1133.0,38.0,-4.0,0.0
791.0,744.0,77.0,53.0,11.0,31.0,52.0,-1046.0,38.0,7.0,0.0
752.0,726.0,74.0,64.0,24.0,42.0,82.0,-942.0,64.0,32.0,0.0
707.0,703.0,73.0,85.0,31.0,68.0,115.0,-866.0,96.0,38.0,0.0
662.0,672.0,86.0,103.0,40.0,66.0,124.0,-806.0,123.0,93.0,0.0
623.0,636.0,87.0,102.0,29.0,43.0,96.0,-751.0,139.0,138.0,0.0
579.0,596.0,75.0,83.0,32.0,41.0,73.0,-705.0,123.0,69.0,0.0
521.0,529.0,83.0,69.0,26.0,52.0,82.0,-661.0,105.0,-11.0,0.0
469.0,455.0,67.0,55.0,0.0,41.0,71.0,-644.0,89.0,-18.0,0.0
453.0,425.0,58.0,35.0,-25.0,22.0,56.0,-623.0,81.0,7.0,0.0
449.0,407.0,55.0,26.0,-30.0,31.0,61.0,-587.0,51.0,22.0,0.0
439.0,393.0,53.0,14.0,-10.0,40.0,47.0,-564.0,33.0,44.0,0.0
442.0,400.0,63.0,38.0,51.0,40.0,35.0,-550.0,16.0,58.0,0.0
430.0,404.0,80.0,64.0,92.0,32.0,38.0,-517.0,8.0,60.0,0.0
398.0,400.0,92.0,70.0,45.0,28.0,30.0,-473.0,16.0,45.0,0.0
354.0,377.0,77.0,58.0,29.0,27.0,29.0,-427.0,28.0,16.0,0.0
307.0,343.0,90.0,54.0,32.0,35.0,33.0,-383.0,53.0,-85.0,0.0
228.0,286.0,83.0,60.0,52.0,50.0,55.0,-341.0,88.0,-214.0,0.0
163.0,234.0,34.0,44.0,50.0,36.0,58.0,-332.0,78.0,-279.0,0.0
124.0,187.0,-23.0,0.0,38.0,18.0,40.0,-339.0,34.0,-311.0,0.0
97.0,153.0,-65.0,-33.0,10.0,-1.0,22.0,-359.0,-14.0,-360.0,0.0
85.0,136.0,-63.0,-38.0,-10.0,-29.0,-6.0,-376.0,-55.0,-383.0,0.0
89.0,122.0,-30.0,-25.0,-21.0,-37.0,-18.0,-378.0,-69.0,-317.0,0.0
118.0,141.0,20.0,-11.0,-17.0,-15.0,-15.0,-352.0,-48.0,-95.0,0.0
168.0,157.0,47.0,8.0,-8.0,-5.0,-3.0,-298.0,-3.0,219.0,0.0
224.0,193.0,76.0,34.0,-2.0,23.0,36.0,-216.0,60.0,378.0,0.0
268.0,236.0,105.0,64.0,21.0,57.0,69.0,-150.0,116.0,394.0,0.0
280.0,244.0,99.0,68.0,26.0,63.0,77.0,-126.0,109.0,344.0,0.0
222.0,194.0,56.0,49.0,15.0,32.0,39.0,-142.0,49.0,191.0,0.0
179.0,163.0,27.0,41.0,24.0,20.0,25.0,-151.0,26.0,65.0,0.0
163.0,158.0,13.0,19.0,18.0,4.0,9.0,-159.0,18.0,29.0,0.0
141.0,154.0,0.0,4.0,28.0,3.0,-6.0,-153.0,21.0,30.0,0.0
126.0,175.0,-1.0,1.0,20.0,27.0,0.0,-134.0,13.0,26.0,0.0
126.0,196.0,31.0,-20.0,3.0,27.0,10.0,-123.0,20.0,19.0,0.0
127.0,187.0,52.0,-19.0,17.0,37.0,40.0,-97.0,36.0,39.0,0.0
142.0,151.0,28.0,-15.0,-4.0,59.0,55.0,-68.0,60.0,151.0,0.0
143.0,111.0,9.0,-26.0,-40.0,69.0,61.0,-49.0,68.0,191.0,0.0
134.0,94.0,-7.0,-46.0,-59.0,59.0,60.0,-49.0,68.0,113.0,0.0
126.0,110.0,-3.0,-52.0,-53.0,38.0,37.0,-69.0,57.0,54.0,0.0
120.0,129.0,5.0,-27.0,-54.0,5.0,10.0,-86.0,21.0,37.0,0.0
103.0,135.0,38.0,12.0,-44.0,-18.0,-6.0,-107.0,5.0,43.0,0.0
95.0,121.0,62.0,21.0,-30.0,-27.0,-11.0,-110.0,-13.0,58.0,0.0
91.0,113.0,56.0,12.0,-17.0,-28.0,-6.0,-112.0,-10.0,33.0,0.0
77.0,106.0,57.0,4.0,7.0,-18.0,-13.0,-98.0,-15.0,-9.0,0.0
59.0,84.0,41.0,3.0,-2.0,-5.0,-6.0,-86.0,-22.0,-44.0,0.0
49.0,71.0,-4.0,-5.0,-23.0,-14.0,-2.0,-94.0,-30.0,-76.0,0.0
43.0,62.0,-24.0,7.0,-17.0,-35.0,-8.0,-110.0,-36.0,-93.0,0.0
45.0,43.0,-27.0,17.0,-17.0,-40.0,-16.0,-101.0,-43.0,-113.0,0.0
47.0,46.0,-20.0,23.0,-20.0,-40.0,-27.0,-91.0,-57.0,-134.0,0.0
63.0,52.0,-2.0,29.0,-15.0,-36.0,-35.0,-97.0,-79.0,-117.0,0.0
64.0,46.0,-10.0,13.0,-4.0,-13.0,-20.0,-86.0,-63.0,-68.0,0.0
47.0,22.0,-32.0,7.0,-5.0,1.0,-8.0,-64.0,-24.0,5.0,0.0
37.0,-2.0,-35.0,7.0,-2.0,-7.0,-9.0,-49.0,-8.0,86.0,0.0
38.0,-20.0,-31.0,20.0,17.0,3.0,-4.0,-25.0,-10.0,126.0,0.0
52.0,-1.0,-15.0,34.0,30.0,37.0,17.0,-5.0,24.0,26.0,0.0
43.0,2.0,-9.0,17.0,12.0,36.0,10.0,-20.0,20.0,-29.0,0.0
45.0,0.0,-6.0,-6.0,-11.0,26.0,0.0,-30.0,11.0,53.0,0.0
56.0,7.0,-11.0,-6.0,-12.0,18.0,3.0,-28.0,7.0,72.0,0.0
54.0,22.0,-20.0,-3.0,-28.0,15.0,3.0,-41.0,3.0,34.0,0.0
51.0,37.0,-33.0,-2.0,-35.0,0.0,-13.0,-59.0,-2.0,25.0,0.0
61.0,35.0,-32.0,-20.0,-50.0,-14.0,-25.0,-60.0,-12.0,47.0,0.0
69.0,22.0,-37.0,-41.0,-61.0,-26.0,-30.0,-52.0,-15.0,68.0,0.0
71.0,22.0,-48.0,-49.0,-52.0,-22.0,-26.0,-57.0,-5.0,68.0,0.0
69.0,27.0,-34.0,-34.0,-27.0,-16.0,-26.0,-57.0,-6.0,52.0,0.0
54.0,40.0,10.0,-16.0,22.0,2.0,-37.0,-58.0,-11.0,32.0,0.0
35.0,31.0,13.0,15.0,89.0,18.0,-28.0,-39.0,-1.0,-26.0,0.0
6.0,17.0,2.0,41.0,97.0,32.0,-2.0,-7.0,0.0,-112.0,0.0
-14.0,25.0,22.0,45.0,79.0,44.0,29.0,10.0,-16.0,-123.0,0.0
-36.0,31.0,60.0,38.0,51.0,39.0,26.0,-18.0,-39.0,-113.0,0.0
-61.0,12.0,81.0,34.0,32.0,21.0,-5.0,-29.0,-54.0,-133.0,0.0
-64.0,-25.0,71.0,12.0,7.0,10.0,-18.0,-30.0,-51.0,-146.0,0.0
-42.0,-29.0,31.0,2.0,-9.0,8.0,-23.0,-26.0,-32.0,-152.0,0.0
-23.0,-12.0,-2.0,-1.0,-24.0,-1.0,-25.0,-27.0,-19.0,-146.0,0.0
-14.0,-29.0,-13.0,0.0,-32.0,-7.0,-27.0,-22.0,-34.0,-131.0,0.0
11.0,-61.0,-12.0,-7.0,-57.0,-16.0,-24.0,-12.0,-43.0,-129.0,0.0
42.0,-42.0,-13.0,-17.0,-69.0,-34.0,-23.0,-8.0,-49.0,-120.0,0.0
39.0,10.0,-17.0,-14.0,-76.0,-37.0,-31.0,-18.0,-57.0,-95.0,0.0
36.0,62.0,-21.0,0.0,-77.0,-35.0,-35.0,-15.0,-36.0,-68.0,0.0
53.0,71.0,-2.0,17.0,-46.0,-20.0,-23.0,2.0,10.0,63.0,0.0
109.0,100.0,34.0,30.0,-12.0,-7.0,1.0,40.0,47.0,340.0,0.0
121.0,106.0,38.0,36.0,0.0,-3.0,-7.0,44.0,51.0,390.0,0.0
73.0,89.0,33.0,40.0,33.0,9.0,-15.0,23.0,34.0,228.0,0.0
36.0,98.0,53.0,40.0,56.0,18.0,-16.0,13.0,11.0,61.0,0.0
16.0,127.0,40.0,37.0,48.0,15.0,-14.0,24.0,6.0,8.0,0.0
7.0,112.0,16.0,51.0,41.0,19.0,-13.0,44.0,16.0,-19.0,0.0
-1.0,75.0,11.0,27.0,31.0,18.0,-14.0,48.0,20.0,-37.0,0.0
9.0,34.0,4.0,10.0,30.0,17.0,-16.0,24.0,2.0,-29.0,0.0
34.0,12.0,12.0,9.0,23.0,16.0,-18.0,17.0,-2.0,-18.0,0.0
51.0,0.0,-11.0,-5.0,0.0,13.0,-21.0,16.0,0.0,-27.0,0.0
50.0,-9.0,-36.0,-21.0,-7.0,13.0,-9.0,-1.0,-16.0,-39.0,0.0
20.0,-10.0,-31.0,-19.0,-10.0,13.0,-9.0,-16.0,-30.0,-28.0,0.0
4.0,-13.0,-2.0,-8.0,9.0,4.0,-13.0,-21.0,-12.0,18.0,0.0
-3.0,-26.0,6.0,-14.0,17.0,-12.0,-16.0,-30.0,-11.0,30.0,0.0
-22.0,-41.0,2.0,-19.0,0.0,-25.0,-12.0,-21.0,-3.0,16.0,0.0
-40.0,-64.0,-14.0,-19.0,-2.0,-10.0,7.0,23.0,28.0,23.0,0.0
-51.0,-82.0,-35.0,-25.0,-1.0,12.0,42.0,48.0,57.0,30.0,0.0
-52.0,-75.0,-28.0,-21.0,-7.0,1.0,31.0,39.0,48.0,-11.0,0.0
-48.0,-55.0,-25.0,-11.0,-22.0,-18.0,6.0,2.0,8.0,-63.0,0.0
-49.0,-29.0,-31.0,-26.0,-33.0,-44.0,-14.0,-22.0,-20.0,-104.0,0.0
-60.0,-13.0,-22.0,-33.0,-37.0,-53.0,-25.0,-26.0,-20.0,-122.0,0.0
-53.0,-12.0,-1.0,-22.0,-35.0,-59.0,-12.0,-2.0,-7.0,-126.0,0.0
-41.0,-37.0,-20.0,-1.0,-33.0,-54.0,-3.0,5.0,-5.0,-116.0,0.0
-23.0,-38.0,-19.0,13.0,-32.0,-39.0,-14.0,4.0,-26.0,-86.0,0.0
-4.0,-19.0,-5.0,28.0,-13.0,-32.0,-14.0,-6.0,-40.0,-27.0,0.0
3.0,-7.0,9.0,43.0,11.0,-36.0,-2.0,-1.0,-26.0,33.0,0.0
17.0,6.0,18.0,42.0,32.0,-7.0,12.0,24.0,-1.0,84.0,0.0
50.0,20.0,21.0,40.0,54.0,35.0,40.0,47.0,27.0,122.0,0.0
86.0,27.0,21.0,43.0,72.0,56.0,59.0,51.0,25.0,127.0,0.0
69.0,14.0,-7.0,29.0,45.0,41.0,52.0,30.0,0.0,56.0,0.0
41.0,23.0,-27.0,7.0,6.0,22.0,35.0,24.0,2.0,-14.0,0.0
30.0,24.0,-26.0,-8.0,-11.0,-10.0,18.0,5.0,-4.0,0.0,0.0
31.0,16.0,-33.0,0.0,-14.0,-21.0,20.0,15.0,5.0,112.0,0.0
26.0,-9.0,-44.0,-1.0,-24.0,-19.0,5.0,7.0,4.0,152.0,0.0
-5.0,-48.0,-33.0,4.0,-24.0,-25.0,-14.0,-2.0,-11.0,88.0,0.0
-35.0,-41.0,-4.0,20.0,-8.0,0.0,7.0,-6.0,1.0,43.0,0.0
-63.0,-43.0,13.0,29.0,-9.0,9.0,22.0,-13.0,-15.0,8.0,0.0
-77.0,-66.0,39.0,26.0,-1.0,10.0,10.0,-17.0,-23.0,5.0,0.0
-71.0,-74.0,36.0,19.0,3.0,6.0,9.0,-12.0,-26.0,12.0,0.0
-54.0,-38.0,45.0,17.0,-2.0,-4.0,2.0,-3.0,-14.0,-4.0,0.0
-44.0,-9.0,17.0,7.0,-13.0,-21.0,-7.0,-7.0,-25.0,-40.0,0.0
-31.0,-3.0,-18.0,-19.0,-28.0,-28.0,-6.0,-26.0,-49.0,-61.0,0.0
-27.0,3.0,-29.0,-39.0,-42.0,-34.0,-6.0,-27.0,-49.0,-56.0,0.0
-30.0,20.0,-36.0,-47.0,-48.0,-36.0,-5.0,-20.0,-38.0,-44.0,0.0
-29.0,33.0,-32.0,-43.0,-48.0,-39.0,-15.0,-27.0,-36.0,-29.0,0.0
-14.0,55.0,-18.0,-35.0,-33.0,-38.0,-16.0,-40.0,-36.0,-23.0,0.0
-3.0,83.0,0.0,-18.0,-29.0,-28.0,4.0,-35.0,-16.0,-11.0,0.0
5.0,110.0,15.0,14.0,-10.0,-25.0,16.0,-16.0,4.0,24.0,0.0
21.0,102.0,21.0,24.0,-1.0,-8.0,20.0,1.0,22.0,79.0,0.0
21.0,63.0,18.0,27.0,12.0,13.0,32.0,35.0,54.0,21.0,0.0
15.0,23.0,23.0,31.0,34.0,45.0,55.0,46.0,51.0,-112.0,0.0
4.0,2.0,28.0,32.0,33.0,46.0,53.0,42.0,30.0,-134.0,0.0
8.0,-16.0,12.0,34.0,12.0,16.0,42.0,23.0,19.0,-102.0,0.0
6.0,-22.0,-11.0,32.0,-5.0,-18.0,18.0,-2.0,-11.0,-89.0,0.0
5.0,-17.0,-23.0,18.0,-17.0,-39.0,-4.0,-17.0,-23.0,-67.0,0.0
7.0,-11.0,-31.0,-10.0,-16.0,-50.0,-15.0,-18.0,-21.0,-27.0,0.0
16.0,4.0,-25.0,-18.0,-22.0,-42.0,-22.0,-8.0,-24.0,52.0,0.0
17.0,20.0,-12.0,-7.0,-13.0,-40.0,-25.0,4.0,-9.0,137.0,0.0
32.0,31.0,-2.0,24.0,4.0,-30.0,-4.0,34.0,8.0,140.0,0.0
31.0,17.0,-2.0,34.0,13.0,-16.0,13.0,36.0,18.0,70.0,0.0
17.0,3.0,-8.0,24.0,13.0,0.0,16.0,20.0,7.0,16.0,0.0
16.0,11.0,-10.0,14.0,14.0,0.0,-2.0,-14.0,-23.0,-24.0,0.0
16.0,26.0,-3.0,-6.0,11.0,-17.0,-16.0,-20.0,-23.0,-77.0,0.0
10.0,27.0,10.0,-6.0,3.0,-31.0,-16.0,-21.0,-28.0,-201.0,0.0
-2.0,11.0,10.0,-2.0,-5.0,-25.0,-8.0,-23.0,-35.0,-285.0,0.0
-5.0,-2.0,-15.0,-9.0,-36.0,-3.0,-3.0,-29.0,-38.0,-274.0,0.0
4.0,-9.0,-28.0,-8.0,-60.0,-2.0,6.0,-23.0,-38.0,-238.0,0.0
10.0,-9.0,-34.0,-25.0,-57.0,-12.0,-12.0,-24.0,-35.0,-177.0,0.0
21.0,8.0,-20.0,-17.0,0.0,-17.0,-33.0,-39.0,-24.0,-123.0,0.0
43.0,15.0,7.0,-19.0,24.0,-13.0,-30.0,-36.0,-11.0,-92.0,0.0
58.0,20.0,0.0,-46.0,-44.0,-47.0,-34.0,-34.0,-12.0,-30.0,0.0
64.0,10.0,-3.0,-69.0,-75.0,-66.0,-43.0,-50.0,-24.0,135.0,0.0
89.0,-11.0,-6.0,-54.0,-49.0,-41.0,-20.0,-41.0,0.0,304.0,0.0
110.0,0.0,45.0,-2.0,-5.0,25.0,42.0,31.0,50.0,397.0,0.0
108.0,9.0,73.0,30.0,13.0,70.0,75.0,62.0,66.0,316.0,0.0
54.0,-9.0,60.0,45.0,4.0,54.0,49.0,32.0,27.0,224.0,0.0
-10.0,-27.0,24.0,59.0,32.0,24.0,16.0,0.0,-11.0,195.0,0.0
-41.0,-36.0,0.0,41.0,45.0,17.0,12.0,4.0,0.0,180.0,0.0
6.0,-32.0,3.0,40.0,68.0,30.0,53.0,53.0,33.0,120.0,0.0
43.0,-42.0,29.0,52.0,91.0,54.0,69.0,80.0,45.0,56.0,0.0
6.0,-11.0,29.0,47.0,112.0,57.0,52.0,51.0,34.0,31.0,0.0
-28.0,59.0,6.0,29.0,81.0,45.0,36.0,36.0,34.0,19.0,0.0
-51.0,88.0,-1.0,31.0,50.0,42.0,29.0,36.0,36.0,21.0,0.0
-53.0,49.0,-17.0,30.0,35.0,44.0,40.0,38.0,23.0,20.0,0.0
-58.0,-9.0,-45.0,34.0,34.0,36.0,36.0,44.0,18.0,3.0,0.0
-50.0,-58.0,-65.0,41.0,36.0,27.0,20.0,30.0,18.0,-13.0,0.0
-55.0,-97.0,-64.0,31.0,15.0,20.0,13.0,17.0,14.0,-6.0,0.0
-81.0,-123.0,-40.0,10.0,-19.0,17.0,4.0,1.0,2.0,-20.0,0.0
-89.0,-128.0,-27.0,-4.0,-47.0,0.0,-17.0,-29.0,-16.0,-49.0,0.0
-70.0,-110.0,-22.0,-15.0,-59.0,-10.0,-26.0,-37.0,-34.0,-65.0,0.0
-48.0,-86.0,-1.0,-21.0,-47.0,-14.0,-24.0,-44.0,-38.0,-39.0,0.0
-38.0,-86.0,12.0,-27.0,-26.0,-5.0,-24.0,-34.0,-39.0,-2.0,0.0
-1.0,-73.0,31.0,-13.0,-17.0,-14.0,-27.0,-32.0,-40.0,27.0,0.0
52.0,-28.0,36.0,-5.0,-15.0,-15.0,-30.0,-36.0,-44.0,31.0,0.0
72.0,8.0,34.0,4.0,-4.0,-1.0,-19.0,-22.0,-28.0,21.0,0.0
54.0,20.0,24.0,5.0,3.0,20.0,2.0,7.0,-15.0,24.0,0.0
32.0,13.0,20.0,0.0,-1.0,36.0,6.0,24.0,2.0,31.0,0.0
-1.0,-21.0,-4.0,0.0,-4.0,40.0,7.0,21.0,-4.0,4.0,0.0
-42.0,-52.0,-19.0,-10.0,-4.0,46.0,13.0,25.0,-2.0,-6.0,0.0
-60.0,-60.0,0.0,-19.0,-18.0,11.0,5.0,16.0,8.0,-16.0,0.0
-72.0,-56.0,12.0,-29.0,-29.0,-9.0,-20.0,-14.0,-8.0,-25.0,0.0
-69.0,-27.0,19.0,-26.0,-17.0,-17.0,-30.0,-23.0,-11.0,34.0,0.0
-60.0,-8.0,20.0,-17.0,0.0,-17.0,-24.0,-25.0,-9.0,74.0,0.0
-58.0,-6.0,15.0,-11.0,11.0,-7.0,-20.0,-7.0,-3.0,41.0,0.0
-52.0,-9.0,1.0,-8.0,15.0,2.0,-4.0,17.0,14.0,15.0,0.0
-50.0,-10.0,-12.0,-25.0,8.0,-2.0,4.0,12.0,7.0,8.0,0.0
-27.0,-2.0,-19.0,-31.0,6.0,-9.0,3.0,-3.0,-14.0,2.0,0.0
-7.0,-8.0,-30.0,-33.0,4.0,-13.0,4.0,8.0,6.0,4.0,0.0
-9.0,-14.0,-28.0,-39.0,11.0,-24.0,-7.0,10.0,4.0,13.0,0.0
-14.0,-30.0,-17.0,-30.0,41.0,-27.0,-10.0,5.0,-6.0,-3.0,0.0
-4.0,-2.0,-2.0,-15.0,39.0,-15.0,-2.0,7.0,2.0,-18.0,0.0
21.0,25.0,4.0,-13.0,2.0,-22.0,-4.0,17.0,9.0,-24.0,0.0
53.0,48.0,19.0,-1.0,-16.0,-17.0,9.0,30.0,16.0,-43.0,0.0
75.0,69.0,17.0,-8.0,-27.0,-14.0,21.0,19.0,7.0,-56.0,0.0
62.0,78.0,17.0,-9.0,-19.0,-24.0,8.0,-6.0,-8.0,-84.0,0.0
41.0,66.0,19.0,-13.0,2.0,-14.0,1.0,-19.0,-6.0,-112.0,0.0
26.0,52.0,5.0,-1.0,4.0,-21.0,-6.0,-26.0,-16.0,-128.0,0.0
20.0,37.0,-15.0,9.0,-3.0,-29.0,-21.0,-29.0,-36.0,-142.0,0.0
1.0,18.0,-36.0,-11.0,-5.0,-36.0,-39.0,-43.0,-50.0,-164.0,0.0
-8.0,12.0,-44.0,-31.0,-8.0,-42.0,-49.0,-43.0,-46.0,-94.0,0.0
23.0,31.0,-45.0,-28.0,11.0,-35.0,-35.0,-33.0,-21.0,177.0,0.0
41.0,37.0,-29.0,-9.0,23.0,-26.0,-30.0,-22.0,-12.0,327.0,0.0
24.0,19.0,-22.0,-1.0,30.0,-19.0,-26.0,-22.0,-12.0,179.0,0.0
9.0,10.0,-29.0,-4.0,29.0,-13.0,-28.0,-14.0,-26.0,75.0,0.0
-16.0,11.0,-23.0,-35.0,9.0,-8.0,-19.0,-17.0,-30.0,25.0,0.0
-38.0,12.0,9.0,-33.0,-3.0,6.0,14.0,-7.0,-34.0,-22.0,0.0
31.0,15.0,-3.0,-2.0,-6.0,16.0,27.0,12.0,30.0,42.0,0.0
33.0,7.0,-34.0,0.0,14.0,22.0,31.0,33.0,54.0,71.0,0.0
31.0,15.0,-44.0,-8.0,23.0,31.0,30.0,39.0,57.0,94.0,0.0
38.0,62.0,-42.0,-5.0,9.0,20.0,17.0,26.0,44.0,84.0,0.0
43.0,92.0,-42.0,-8.0,-6.0,6.0,24.0,10.0,28.0,75.0,0.0
43.0,92.0,-45.0,-14.0,-1.0,0.0,28.0,3.0,32.0,78.0,0.0
39.0,67.0,-25.0,-13.0,11.0,-1.0,33.0,10.0,43.0,41.0,0.0
25.0,42.0,5.0,5.0,26.0,-2.0,42.0,17.0,46.0,-74.0,0.0
9.0,9.0,28.0,15.0,20.0,-3.0,28.0,15.0,22.0,-147.0,0.0
-9.0,-26.0,19.0,12.0,17.0,8.0,12.0,17.0,15.0,-117.0,0.0
-7.0,-22.0,0.0,28.0,23.0,-1.0,7.0,15.0,9.0,-69.0,0.0
-4.0,-5.0,20.0,53.0,22.0,-12.0,-6.0,1.0,-7.0,-37.0,0.0
0.0,-6.0,38.0,39.0,10.0,-19.0,-18.0,-17.0,-7.0,0.0,0.0
8.0,-11.0,55.0,49.0,2.0,-19.0,-23.0,-27.0,5.0,17.0,0.0
9.0,-22.0,54.0,51.0,-4.0,-15.0,-25.0,-23.0,0.0,21.0,0.0
18.0,-36.0,41.0,30.0,-13.0,-12.0,-15.0,-10.0,-10.0,22.0,0.0
17.0,-52.0,19.0,10.0,-28.0,4.0,-10.0,-4.0,-9.0,19.0,0.0
5.0,-71.0,21.0,11.0,-24.0,21.0,5.0,-19.0,-2.0,-26.0,0.0
-16.0,-60.0,-6.0,17.0,-12.0,37.0,4.0,-11.0,11.0,-65.0,0.0
-25.0,-2.0,-1.0,7.0,-3.0,20.0,1.0,-21.0,-2.0,-129.0,0.0
-39.0,28.0,43.0,0.0,4.0,8.0,-2.0,-25.0,-42.0,-220.0,0.0
-37.0,0.0,59.0,14.0,21.0,7.0,-20.0,-8.0,-50.0,-240.0,0.0
-16.0,-33.0,48.0,14.0,17.0,0.0,-37.0,-5.0,-41.0,-213.0,0.0
-6.0,-10.0,43.0,21.0,17.0,-13.0,-38.0,-15.0,-53.0,-201.0,0.0
-3.0,62.0,25.0,13.0,2.0,-12.0,-54.0,-26.0,-58.0,-140.0,0.0
-11.0,106.0,30.0,6.0,-13.0,-19.0,-66.0,-41.0,-65.0,-85.0,0.0
-13.0,95.0,26.0,11.0,-4.0,-17.0,-56.0,-34.0,-61.0,-131.0,0.0
-11.0,56.0,25.0,17.0,8.0,16.0,-31.0,-7.0,-28.0,-221.0,0.0
-18.0,1.0,-19.0,-3.0,-26.0,14.0,-29.0,-1.0,-11.0,-198.0,0.0
-50.0,-56.0,-68.0,-40.0,-69.0,-18.0,-39.0,-19.0,-26.0,-115.0,0.0
-77.0,-85.0,-104.0,-71.0,-82.0,-46.0,-51.0,-51.0,-53.0,-38.0,0.0
-81.0,-108.0,-90.0,-71.0,-62.0,-36.0,-50.0,-54.0,-60.0,105.0,0.0
-62.0,-98.0,-56.0,-38.0,-13.0,11.0,-3.0,10.0,-10.0,219.0,0.0
-11.0,-65.0,-21.0,1.0,28.0,56.0,43.0,82.0,60.0,259.0,0.0
56.0,-17.0,16.0,39.0,64.0,94.0,72.0,132.0,108.0,378.0,0.0
85.0,18.0,37.0,48.0,68.0,103.0,71.0,125.0,105.0,376.0,0.0
55.0,13.0,4.0,39.0,43.0,65.0,43.0,85.0,78.0,223.0,0.0
14.0,-7.0,-10.0,27.0,31.0,39.0,32.0,58.0,46.0,104.0,0.0
-7.0,-4.0,-24.0,2.0,0.0,18.0,24.0,33.0,22.0,18.0,0.0
-35.0,-22.0,-37.0,-12.0,-20.0,7.0,5.0,5.0,-9.0,-69.0,0.0
-51.0,-57.0,-59.0,-21.0,-24.0,-13.0,-14.0,-19.0,-40.0,-143.0,0.0
-53.0,-72.0,-87.0,-36.0,-23.0,-25.0,-31.0,-41.0,-42.0,-188.0,0.0
-41.0,-58.0,-95.0,-45.0,-29.0,-27.0,-40.0,-44.0,-45.0,-213.0,0.0
-32.0,-43.0,-82.0,-47.0,-38.0,-33.0,-39.0,-50.0,-45.0,-196.0,0.0
-32.0,-37.0,-51.0,-41.0,-46.0,-31.0,-31.0,-47.0,-45.0,-107.0,0.0
-18.0,-17.0,-7.0,-14.0,-36.0,-28.0,-25.0,-49.0,-40.0,95.0,0.0
27.0,26.0,48.0,18.0,-5.0,2.0,-15.0,-28.0,-15.0,342.0,0.0
91.0,51.0,100.0,28.0,14.0,23.0,0.0,-4.0,20.0,395.0,0.0
156.0,49.0,98.0,41.0,29.0,50.0,26.0,41.0,68.0,308.0,0.0
170.0,57.0,68.0,60.0,29.0,67.0,58.0,78.0,92.0,109.0,0.0
128.0,41.0,68.0,54.0,3.0,47.0,52.0,59.0,65.0,-36.0,0.0
77.0,54.0,58.0,35.0,-6.0,28.0,37.0,32.0,30.0,-68.0,0.0
48.0,60.0,43.0,16.0,-26.0,-9.0,-8.0,-10.0,-32.0,-66.0,0.0
21.0,47.0,35.0,31.0,-23.0,-29.0,-30.0,-33.0,-47.0,-46.0,0.0
-14.0,62.0,22.0,52.0,11.0,-10.0,-19.0,-28.0,-18.0,-16.0,0.0
-63.0,91.0,14.0,65.0,31.0,8.0,6.0,1.0,-3.0,5.0,0.0
-107.0,87.0,6.0,52.0,38.0,14.0,23.0,0.0,10.0,-13.0,0.0
-123.0,63.0,5.0,34.0,106.0,26.0,11.0,0.0,13.0,-23.0,0.0
-121.0,25.0,14.0,27.0,98.0,27.0,11.0,-1.0,-5.0,-15.0,0.0
-108.0,-17.0,9.0,6.0,19.0,7.0,20.0,15.0,3.0,-11.0,0.0
-93.0,-64.0,6.0,19.0,-27.0,11.0,24.0,30.0,8.0,-14.0,0.0
-86.0,-83.0,-5.0,11.0,-58.0,31.0,21.0,34.0,-3.0,-30.0,0.0
-69.0,-67.0,-12.0,-3.0,-58.0,28.0,22.0,29.0,1.0,-48.0,0.0
-48.0,-36.0,-3.0,-8.0,-39.0,13.0,24.0,15.0,4.0,-59.0,0.0
-46.0,-27.0,5.0,-16.0,-9.0,1.0,13.0,8.0,-4.0,-66.0,0.0
-40.0,-31.0,11.0,-19.0,25.0,0.0,-11.0,10.0,-18.0,-79.0,0.0
-46.0,-27.0,9.0,-20.0,11.0,5.0,-10.0,8.0,-5.0,-74.0,0.0
-48.0,-35.0,-1.0,-35.0,-16.0,7.0,-8.0,21.0,-1.0,-67.0,0.0
-46.0,-45.0,-11.0,-42.0,-32.0,-1.0,-5.0,17.0,-6.0,-86.0,0.0
-37.0,-44.0,-29.0,-50.0,-48.0,-13.0,-9.0,-1.0,-22.0,-109.0,0.0
-51.0,-27.0,-18.0,-38.0,-42.0,-24.0,-30.0,-21.0,-19.0,-125.0,0.0
-34.0,5.0,6.0,-19.0,-20.0,-28.0,-36.0,-19.0,-14.0,-40.0,0.0
7.0,36.0,30.0,10.0,27.0,13.0,-16.0,6.0,-2.0,186.0,0.0
29.0,42.0,22.0,19.0,69.0,33.0,-4.0,28.0,1.0,231.0,0.0
26.0,27.0,0.0,0.0,74.0,28.0,5.0,31.0,-16.0,104.0,0.0
18.0,26.0,-24.0,-16.0,37.0,17.0,2.0,29.0,-20.0,35.0,0.0
13.0,23.0,-29.0,-21.0,13.0,7.0,-16.0,14.0,-28.0,4.0,0.0
10.0,29.0,0.0,-12.0,7.0,2.0,-34.0,-4.0,-40.0,-23.0,0.0
13.0,17.0,22.0,1.0,19.0,-2.0,-28.0,-9.0,-38.0,-1.0,0.0
0.0,-7.0,2.0,-6.0,13.0,-4.0,-22.0,-7.0,-15.0,55.0,0.0
1.0,-9.0,-15.0,-28.0,-1.0,-12.0,-15.0,-10.0,-6.0,75.0,0.0
57.0,-21.0,-21.0,-44.0,-19.0,-18.0,-15.0,-32.0,-14.0,110.0,0.0
115.0,-28.0,-28.0,-44.0,-32.0,-7.0,-18.0,-10.0,-10.0,169.0,0.0
100.0,-34.0,-47.0,-49.0,-34.0,-6.0,-20.0,1.0,-28.0,84.0,0.0
55.0,-10.0,-55.0,-44.0,-34.0,-2.0,-16.0,-8.0,-23.0,-76.0,0.0
30.0,8.0,-30.0,-41.0,-40.0,-7.0,-10.0,-6.0,-14.0,-165.0,0.0
-7.0,-3.0,-15.0,-37.0,-42.0,-16.0,-3.0,-4.0,-6.0,-145.0,0.0
-37.0,-19.0,-10.0,-30.0,-35.0,-9.0,0.0,-8.0,7.0,-85.0,0.0
-49.0,11.0,0.0,-18.0,-29.0,2.0,7.0,1.0,6.0,-55.0,0.0
-69.0,31.0,24.0,-13.0,-26.0,3.0,-5.0,-5.0,-13.0,-68.0,0.0
-77.0,31.0,69.0,4.0,-6.0,13.0,-13.0,-11.0,-31.0,-64.0,0.0
-72.0,22.0,91.0,33.0,17.0,-4.0,-18.0,-14.0,-23.0,-29.0,0.0
-52.0,25.0,87.0,38.0,21.0,-18.0,-26.0,-27.0,-12.0,-48.0,0.0
-36.0,32.0,58.0,30.0,11.0,-31.0,-39.0,-33.0,-27.0,-103.0,0.0
-55.0,5.0,-1.0,-2.0,5.0,-46.0,-57.0,-60.0,-58.0,-123.0,0.0
-72.0,-41.0,-56.0,-25.0,0.0,-48.0,-74.0,-67.0,-78.0,-105.0,0.0
-80.0,-53.0,-87.0,-55.0,-17.0,-39.0,-47.0,-71.0,-68.0,-81.0,0.0
-51.0,-30.0,-93.0,-52.0,-10.0,-3.0,-5.0,-45.0,-41.0,-4.0,0.0
-20.0,2.0,-56.0,-21.0,15.0,37.0,48.0,19.0,19.0,82.0,0.0
7.0,63.0,-11.0,8.0,64.0,75.0,85.0,73.0,80.0,92.0,0.0
34.0,111.0,35.0,27.0,114.0,88.0,86.0,83.0,105.0,160.0,0.0
44.0,100.0,36.0,40.0,100.0,79.0,76.0,71.0,93.0,178.0,0.0
32.0,31.0,10.0,26.0,54.0,45.0,47.0,47.0,48.0,120.0,0.0
21.0,-53.0,2.0,18.0,19.0,26.0,31.0,28.0,27.0,67.0,0.0
15.0,-85.0,3.0,28.0,-3.0,13.0,25.0,33.0,7.0,44.0,0.0
6.0,-104.0,22.0,34.0,-6.0,-7.0,17.0,17.0,18.0,30.0,0.0
2.0,-110.0,25.0,46.0,7.0,-5.0,10.0,13.0,23.0,15.0,0.0
-9.0,-107.0,20.0,43.0,13.0,1.0,-11.0,6.0,2.0,-5.0,0.0
-12.0,-93.0,-5.0,18.0,-15.0,-11.0,-21.0,2.0,-20.0,-17.0,0.0
-3.0,-75.0,-11.0,11.0,-30.0,-7.0,10.0,14.0,-9.0,-5.0,0.0
4.0,-99.0,-25.0,-2.0,-29.0,2.0,25.0,27.0,2.0,-8.0,0.0
26.0,-69.0,-26.0,-18.0,-41.0,-8.0,12.0,19.0,17.0,-15.0,0.0
61.0,43.0,-9.0,-6.0,-43.0,-27.0,4.0,-8.0,2.0,12.0,0.0
102.0,151.0,14.0,5.0,-18.0,-17.0,0.0,1.0,4.0,90.0,0.0
124.0,166.0,38.0,7.0,0.0,-7.0,29.0,12.0,13.0,121.0,0.0
120.0,120.0,37.0,-4.0,11.0,-2.0,28.0,9.0,2.0,88.0,0.0
86.0,72.0,55.0,-2.0,-1.0,-3.0,7.0,1.0,-18.0,40.0,0.0
47.0,29.0,41.0,-13.0,-21.0,-16.0,-22.0,-13.0,-22.0,-5.0,0.0
-4.0,-20.0,5.0,-23.0,-21.0,-16.0,-39.0,-18.0,-23.0,-50.0,0.0
-43.0,-69.0,-15.0,-16.0,20.0,3.0,-36.0,-16.0,-23.0,-71.0,0.0
-58.0,-93.0,-17.0,-26.0,13.0,22.0,-13.0,-1.0,-12.0,-75.0,0.0
-53.0,-94.0,-31.0,-28.0,-34.0,1.0,-7.0,-5.0,-20.0,-75.0,0.0
-44.0,-71.0,-19.0,-26.0,-44.0,-27.0,-26.0,-29.0,-48.0,-81.0,0.0
-41.0,-42.0,6.0,-13.0,-38.0,-42.0,-39.0,-48.0,-59.0,-66.0,0.0
-33.0,-36.0,25.0,-10.0,-38.0,-56.0,-58.0,-68.0,-62.0,-16.0,0.0
-12.0,-8.0,26.0,-32.0,-41.0,-59.0,-56.0,-79.0,-51.0,58.0,0.0
9.0,32.0,43.0,-27.0,-27.0,-55.0,-42.0,-53.0,-29.0,115.0,0.0
25.0,56.0,71.0,15.0,-5.0,-16.0,-7.0,-4.0,13.0,116.0,0.0
32.0,53.0,68.0,35.0,13.0,7.0,12.0,32.0,51.0,77.0,0.0
20.0,34.0,55.0,14.0,0.0,6.0,21.0,61.0,73.0,37.0,0.0
6.0,12.0,50.0,11.0,4.0,22.0,24.0,55.0,73.0,-4.0,0.0
-1.0,-5.0,50.0,0.0,-5.0,31.0,5.0,27.0,53.0,-36.0,0.0
-2.0,-17.0,17.0,-19.0,-40.0,6.0,-16.0,-13.0,13.0,-37.0,0.0
11.0,-21.0,-8.0,-24.0,-68.0,-5.0,-16.0,-18.0,20.0,-21.0,0.0
6.0,-17.0,-22.0,-29.0,-77.0,-16.0,-21.0,2.0,14.0,-17.0,0.0
1.0,-15.0,-37.0,-37.0,-66.0,-10.0,-20.0,10.0,6.0,-10.0,0.0
23.0,-6.0,-21.0,12.0,-40.0,-6.0,-12.0,21.0,21.0,13.0,0.0
62.0,14.0,-8.0,32.0,34.0,0.0,-1.0,45.0,43.0,44.0,0.0
67.0,39.0,-9.0,26.0,102.0,30.0,11.0,60.0,53.0,27.0,0.0
49.0,39.0,-14.0,15.0,49.0,32.0,12.0,39.0,40.0,-3.0,0.0
23.0,36.0,-10.0,35.0,28.0,21.0,10.0,4.0,21.0,-23.0,0.0
21.0,42.0,-11.0,45.0,31.0,13.0,0.0,-20.0,-12.0,-51.0,0.0
25.0,52.0,-11.0,32.0,21.0,2.0,4.0,-15.0,-30.0,-37.0,0.0
33.0,57.0,-14.0,1.0,10.0,-14.0,-11.0,-8.0,-10.0,44.0,0.0
33.0,67.0,-1.0,-14.0,-2.0,-15.0,-20.0,-4.0,20.0,113.0,0.0
29.0,73.0,1.0,-16.0,-5.0,-9.0,-14.0,11.0,23.0,71.0,0.0
13.0,36.0,-10.0,-11.0,-7.0,5.0,3.0,5.0,15.0,-8.0,0.0
-15.0,-15.0,-25.0,-21.0,-9.0,7.0,15.0,10.0,15.0,-70.0,0.0
-40.0,-24.0,-4.0,-14.0,2.0,-9.0,3.0,-1.0,1.0,-119.0,0.0
-47.0,-38.0,3.0,9.0,24.0,-21.0,-11.0,-23.0,-24.0,-170.0,0.0
-51.0,-59.0,-3.0,-4.0,37.0,-23.0,-20.0,-25.0,-21.0,-199.0,0.0
-65.0,-75.0,-14.0,-3.0,43.0,-13.0,-9.0,-8.0,-6.0,-198.0,0.0
-90.0,-77.0,-33.0,-19.0,40.0,0.0,-17.0,-12.0,-7.0,-225.0,0.0
-94.0,-75.0,-53.0,-41.0,29.0,-8.0,-28.0,-38.0,-41.0,-190.0,0.0
-76.0,-77.0,-56.0,-55.0,23.0,-22.0,-33.0,-36.0,-27.0,-63.0,0.0
-31.0,-64.0,-60.0,-57.0,17.0,-4.0,-18.0,-11.0,10.0,60.0,0.0
31.0,-26.0,-54.0,-49.0,19.0,28.0,23.0,33.0,51.0,184.0,0.0
46.0,-11.0,-45.0,-34.0,5.0,15.0,23.0,33.0,33.0,131.0,0.0
34.0,2.0,-37.0,-23.0,-16.0,-10.0,-10.0,9.0,-1.0,19.0,0.0
6.0,10.0,-22.0,-7.0,-11.0,-16.0,-33.0,-11.0,-16.0,-45.0,0.0
-12.0,26.0,3.0,7.0,0.0,-16.0,-35.0,-36.0,-26.0,-79.0,0.0
-15.0,26.0,35.0,8.0,16.0,-15.0,-38.0,-49.0,-17.0,-83.0,0.0
-21.0,23.0,49.0,18.0,3.0,-13.0,-41.0,-34.0,4.0,19.0,0.0
-12.0,18.0,45.0,16.0,0.0,-8.0,-16.0,-4.0,18.0,213.0,0.0
15.0,37.0,42.0,22.0,27.0,29.0,34.0,45.0,58.0,248.0,0.0
48.0,71.0,68.0,38.0,58.0,57.0,74.0,70.0,98.0,48.0,0.0
74.0,80.0,79.0,57.0,65.0,57.0,81.0,76.0,105.0,51.0,0.0
97.0,59.0,76.0,47.0,31.0,47.0,76.0,60.0,86.0,134.0,0.0
121.0,32.0,40.0,21.0,9.0,25.0,47.0,34.0,60.0,119.0,0.0
106.0,30.0,15.0,5.0,6.0,8.0,16.0,-3.0,45.0,56.0,0.0
94.0,35.0,30.0,-16.0,-17.0,-25.0,1.0,-19.0,48.0,19.0,0.0
72.0,11.0,29.0,-28.0,-14.0,-33.0,-9.0,-14.0,34.0,-1.0,0.0
33.0,-14.0,-3.0,-43.0,-9.0,-17.0,-8.0,-16.0,9.0,-32.0,0.0
18.0,-23.0,-37.0,-61.0,-15.0,-6.0,11.0,-20.0,0.0,-57.0,0.0
14.0,-26.0,-54.0,-68.0,-20.0,-3.0,20.0,-11.0,4.0,-50.0,0.0
1.0,-18.0,-40.0,-47.0,-21.0,-1.0,37.0,10.0,25.0,-4.0,0.0
-28.0,-6.0,-19.0,-37.0,0.0,19.0,48.0,23.0,43.0,74.0,0.0
-81.0,-1.0,-15.0,-27.0,15.0,32.0,54.0,27.0,35.0,53.0,0.0
-126.0,3.0,-2.0,-29.0,8.0,29.0,53.0,13.0,15.0,-57.0,0.0
-134.0,-8.0,-2.0,-28.0,-28.0,-3.0,19.0,-33.0,-28.0,-141.0,0.0
-115.0,-14.0,-29.0,-30.0,-50.0,-40.0,-12.0,-67.0,-62.0,-172.0,0.0
-68.0,-11.0,-38.0,-35.0,-63.0,-40.0,-1.0,-58.0,-52.0,-14.0,0.0
-33.0,0.0,-19.0,-18.0,-53.0,-30.0,-4.0,-35.0,-30.0,120.0,0.0
-34.0,0.0,-17.0,-12.0,-40.0,-16.0,5.0,-24.0,-20.0,17.0,0.0
-33.0,2.0,7.0,-15.0,-20.0,2.0,21.0,-1.0,-1.0,-52.0,0.0
-10.0,38.0,1.0,-7.0,0.0,12.0,30.0,7.0,6.0,-52.0,0.0
17.0,88.0,-12.0,-10.0,0.0,6.0,36.0,19.0,3.0,0.0,0.0
25.0,107.0,-9.0,-24.0,-10.0,19.0,39.0,37.0,16.0,97.0,0.0
22.0,78.0,0.0,-30.0,-8.0,31.0,32.0,35.0,31.0,178.0,0.0
22.0,36.0,1.0,-24.0,-4.0,30.0,32.0,40.0,36.0,207.0,0.0
21.0,15.0,-6.0,-15.0,9.0,47.0,53.0,52.0,56.0,101.0,0.0
7.0,4.0,-12.0,2.0,44.0,48.0,65.0,48.0,49.0,-40.0,0.0
8.0,2.0,-31.0,15.0,71.0,45.0,66.0,27.0,21.0,-41.0,0.0
-6.0,-10.0,-35.0,39.0,65.0,38.0,51.0,13.0,13.0,-31.0,0.0
-10.0,-17.0,-37.0,66.0,67.0,17.0,44.0,11.0,30.0,-27.0,0.0
0.0,-9.0,-33.0,51.0,68.0,15.0,35.0,5.0,29.0,-18.0,0.0
4.0,-4.0,-26.0,25.0,48.0,19.0,25.0,3.0,25.0,-17.0,0.0
-7.0,6.0,-1.0,18.0,36.0,6.0,14.0,-27.0,8.0,-27.0,0.0
-22.0,0.0,14.0,36.0,34.0,-19.0,-1.0,-38.0,-20.0,-44.0,0.0
-36.0,-16.0,3.0,62.0,30.0,-31.0,-4.0,-29.0,-20.0,-49.0,0.0
-26.0,-57.0,2.0,55.0,26.0,-14.0,-11.0,-24.0,-12.0,-44.0,0.0
0.0,-77.0,6.0,29.0,12.0,-8.0,-19.0,-16.0,0.0,-34.0,0.0
17.0,-26.0,2.0,4.0,-35.0,-17.0,-15.0,-23.0,-1.0,-24.0,0.0
30.0,72.0,-6.0,-13.0,-79.0,-39.0,-15.0,-23.0,-24.0,-22.0,0.0
85.0,119.0,-23.0,-8.0,-77.0,-51.0,-28.0,-25.0,-52.0,-30.0,0.0
132.0,115.0,-48.0,4.0,-67.0,-66.0,-41.0,-30.0,-60.0,-40.0,0.0
138.0,89.0,-60.0,4.0,-70.0,-79.0,-44.0,-42.0,-64.0,-49.0,0.0
122.0,62.0,-40.0,-19.0,-63.0,-88.0,-52.0,-59.0,-73.0,-57.0,0.0
74.0,24.0,-12.0,-14.0,-64.0,-53.0,-36.0,-43.0,-70.0,-45.0,0.0
15.0,-11.0,-16.0,-3.0,-26.0,-20.0,-9.0,-10.0,-46.0,-28.0,0.0
-45.0,-22.0,-13.0,9.0,38.0,2.0,4.0,10.0,-14.0,-7.0,0.0
-80.0,-35.0,14.0,31.0,78.0,30.0,23.0,36.0,8.0,-62.0,0.0
-126.0,-44.0,32.0,48.0,82.0,45.0,43.0,39.0,-3.0,-147.0,0.0
-171.0,-57.0,26.0,46.0,51.0,44.0,18.0,18.0,-10.0,-193.0,0.0
-188.0,-27.0,35.0,43.0,12.0,38.0,16.0,13.0,4.0,-264.0,0.0
-181.0,-20.0,33.0,19.0,0.0,30.0,26.0,12.0,-7.0,-189.0,0.0
-130.0,-21.0,37.0,9.0,11.0,41.0,34.0,15.0,-7.0,3.0,0.0
-64.0,15.0,53.0,0.0,23.0,44.0,44.0,29.0,-3.0,101.0,0.0
-26.0,33.0,77.0,5.0,10.0,32.0,33.0,31.0,1.0,75.0,0.0
2.0,18.0,54.0,-11.0,-48.0,-9.0,9.0,7.0,13.0,53.0,0.0
20.0,5.0,36.0,-15.0,-62.0,-17.0,3.0,0.0,17.0,106.0,0.0
29.0,1.0,53.0,-7.0,-17.0,-1.0,24.0,17.0,25.0,134.0,0.0
26.0,-5.0,38.0,-25.0,0.0,-14.0,27.0,12.0,22.0,99.0,0.0
2.0,-17.0,8.0,-32.0,-2.0,-15.0,19.0,-2.0,3.0,54.0,0.0
-5.0,-27.0,-1.0,-43.0,-1.0,5.0,11.0,9.0,-5.0,36.0,0.0
7.0,-21.0,2.0,-48.0,1.0,16.0,1.0,9.0,-10.0,17.0,0.0
22.0,-6.0,4.0,-36.0,17.0,0.0,2.0,3.0,-18.0,9.0,0.0
30.0,0.0,-10.0,-27.0,20.0,-4.0,0.0,6.0,-16.0,17.0,0.0
28.0,-6.0,-24.0,-31.0,13.0,7.0,0.0,12.0,-15.0,7.0,0.0
27.0,-8.0,-14.0,-24.0,9.0,10.0,-3.0,13.0,-12.0,-13.0,0.0
15.0,-27.0,6.0,-16.0,2.0,6.0,-25.0,2.0,-23.0,-40.0,0.0
-8.0,-38.0,23.0,-7.0,0.0,-1.0,-26.0,-13.0,-33.0,-32.0,0.0
-7.0,-37.0,35.0,-5.0,-2.0,-7.0,-34.0,-27.0,-38.0,-19.0,0.0
5.0,-23.0,45.0,-11.0,-3.0,-18.0,-28.0,-36.0,-38.0,0.0,0.0
27.0,-12.0,20.0,-8.0,-21.0,-19.0,-12.0,-33.0,-16.0,2.0,0.0
49.0,10.0,16.0,-1.0,-23.0,-10.0,1.0,-15.0,5.0,4.0,0.0
54.0,42.0,15.0,6.0,-19.0,7.0,15.0,5.0,31.0,37.0,0.0
53.0,63.0,28.0,39.0,-3.0,9.0,4.0,10.0,28.0,53.0,0.0
41.0,73.0,23.0,39.0,7.0,6.0,-11.0,1.0,20.0,24.0,0.0
14.0,116.0,4.0,5.0,-27.0,-9.0,-28.0,-17.0,-8.0,-3.0,0.0
-1.0,127.0,6.0,-8.0,-1.0,-14.0,-37.0,-40.0,-18.0,-18.0,0.0
9.0,80.0,18.0,0.0,54.0,-9.0,-40.0,-51.0,-16.0,-8.0,0.0
17.0,22.0,3.0,7.0,-1.0,-13.0,-27.0,-32.0,-20.0,1.0,0.0
17.0,-17.0,-10.0,3.0,-19.0,-28.0,-33.0,-33.0,-10.0,-10.0,0.0
5.0,-51.0,-40.0,3.0,6.0,-13.0,-32.0,-30.0,-4.0,-37.0,0.0
-24.0,-86.0,-57.0,6.0,12.0,-5.0,-26.0,-32.0,5.0,-47.0,0.0
-51.0,-144.0,-74.0,3.0,14.0,3.0,-11.0,-26.0,24.0,-47.0,0.0
-58.0,-152.0,-88.0,-19.0,10.0,10.0,19.0,-21.0,15.0,-26.0,0.0
-57.0,-115.0,-74.0,-5.0,20.0,25.0,18.0,-7.0,-9.0,62.0,0.0
-61.0,-82.0,-51.0,0.0,21.0,12.0,-3.0,-25.0,-44.0,60.0,0.0
-65.0,-84.0,-48.0,-20.0,3.0,-9.0,-6.0,-50.0,-64.0,4.0,0.0
-56.0,-90.0,-56.0,-17.0,-16.0,-18.0,-7.0,-40.0,-47.0,-7.0,0.0
-54.0,-89.0,-61.0,3.0,-6.0,-14.0,-13.0,-25.0,-25.0,16.0,0.0
-26.0,-64.0,-41.0,18.0,14.0,-7.0,-11.0,-3.0,-11.0,40.0,0.0
2.0,-33.0,-9.0,31.0,27.0,-2.0,-1.0,11.0,-11.0,34.0,0.0
13.0,0.0,10.0,31.0,30.0,6.0,14.0,21.0,8.0,14.0,0.0
15.0,45.0,24.0,18.0,13.0,15.0,13.0,30.0,5.0,-55.0,0.0
13.0,85.0,69.0,3.0,-14.0,3.0,0.0,20.0,5.0,-93.0,0.0
6.0,84.0,95.0,10.0,-12.0,-4.0,-10.0,17.0,3.0,-68.0,0.0
11.0,53.0,84.0,14.0,4.0,11.0,6.0,26.0,5.0,-89.0,0.0
4.0,31.0,43.0,2.0,0.0,28.0,31.0,30.0,28.0,-129.0,0.0
-11.0,6.0,2.0,5.0,-20.0,16.0,34.0,18.0,24.0,-155.0,0.0
-37.0,-32.0,-21.0,10.0,-30.0,-9.0,9.0,-6.0,-6.0,-250.0,0.0
-60.0,-50.0,-38.0,13.0,-27.0,-26.0,-10.0,-34.0,-22.0,-338.0,0.0
-84.0,-58.0,-52.0,17.0,-25.0,-51.0,-24.0,-58.0,-37.0,-352.0,0.0
-88.0,-76.0,-82.0,11.0,-21.0,-52.0,-38.0,-72.0,-54.0,-312.0,0.0
-57.0,-74.0,-89.0,-10.0,-5.0,-48.0,-32.0,-53.0,-33.0,-138.0,0.0
48.0,-49.0,-56.0,-17.0,39.0,-2.0,9.0,17.0,49.0,309.0,0.0
109.0,-11.0,-19.0,-17.0,42.0,36.0,39.0,52.0,83.0,589.0,0.0
40.0,-8.0,-33.0,-48.0,-9.0,20.0,27.0,39.0,50.0,460.0,0.0
-13.0,-12.0,-23.0,-47.0,-28.0,23.0,32.0,36.0,29.0,306.0,0.0
-7.0,23.0,0.0,-5.0,-16.0,43.0,56.0,60.0,33.0,230.0,0.0
31.0,57.0,6.0,11.0,-7.0,46.0,69.0,80.0,47.0,140.0,0.0
58.0,77.0,-16.0,11.0,-13.0,42.0,48.0,62.0,45.0,147.0,0.0
81.0,71.0,-34.0,3.0,-18.0,28.0,31.0,43.0,23.0,136.0,0.0
98.0,33.0,-45.0,-9.0,-30.0,26.0,26.0,31.0,12.0,83.0,0.0
99.0,-12.0,-49.0,-22.0,-21.0,38.0,35.0,32.0,23.0,49.0,0.0
104.0,12.0,-48.0,-37.0,1.0,28.0,38.0,36.0,39.0,37.0,0.0
94.0,103.0,-35.0,-28.0,26.0,16.0,18.0,26.0,17.0,20.0,0.0
71.0,171.0,-6.0,-4.0,47.0,9.0,3.0,-6.0,-1.0,-12.0,0.0
41.0,149.0,12.0,15.0,57.0,3.0,4.0,-7.0,-8.0,-17.0,0.0
17.0,78.0,11.0,19.0,23.0,-3.0,12.0,14.0,0.0,17.0,0.0
-5.0,30.0,11.0,14.0,-2.0,-20.0,1.0,22.0,2.0,61.0,0.0
-28.0,0.0,11.0,25.0,6.0,-32.0,-13.0,6.0,-1.0,45.0,0.0
-68.0,-29.0,1.0,30.0,3.0,-28.0,-12.0,7.0,23.0,-3.0,0.0
-84.0,-60.0,-6.0,11.0,-18.0,-22.0,-21.0,5.0,18.0,-17.0,0.0
-76.0,-81.0,-7.0,-15.0,-17.0,-14.0,-13.0,-7.0,15.0,-15.0,0.0
-62.0,-98.0,-7.0,-25.0,-11.0,-6.0,0.0,-2.0,17.0,-35.0,0.0
-48.0,-105.0,-11.0,-16.0,3.0,-2.0,2.0,-1.0,15.0,-55.0,0.0
-41.0,-109.0,-45.0,-16.0,24.0,3.0,-9.0,-9.0,4.0,-95.0,0.0
-42.0,-90.0,-45.0,-22.0,22.0,3.0,-27.0,-16.0,-6.0,-146.0,0.0
-27.0,-60.0,-40.0,-18.0,29.0,-1.0,-32.0,-24.0,-13.0,-148.0,0.0
-14.0,-37.0,-37.0,6.0,48.0,2.0,-38.0,-25.0,-29.0,-130.0,0.0
1.0,5.0,-30.0,39.0,44.0,-8.0,-37.0,-27.0,-36.0,-105.0,0.0
21.0,34.0,-14.0,30.0,21.0,-14.0,-22.0,-23.0,-27.0,-47.0,0.0
52.0,53.0,4.0,3.0,-12.0,-12.0,-20.0,0.0,-6.0,93.0,0.0
54.0,72.0,22.0,0.0,-43.0,-11.0,-26.0,14.0,-12.0,110.0,0.0
45.0,75.0,43.0,-2.0,-53.0,-33.0,-34.0,7.0,-11.0,-53.0,0.0
26.0,56.0,43.0,-7.0,-45.0,-58.0,-51.0,-7.0,-21.0,-122.0,0.0
-2.0,22.0,37.0,0.0,-22.0,-43.0,-54.0,-17.0,-32.0,-113.0,0.0
-13.0,-9.0,29.0,17.0,-9.0,-27.0,-39.0,-18.0,-34.0,-87.0,0.0
-14.0,-16.0,16.0,23.0,7.0,-9.0,-18.0,-11.0,-38.0,-16.0,0.0
6.0,-29.0,15.0,23.0,23.0,3.0,-5.0,14.0,-23.0,68.0,0.0
23.0,-42.0,20.0,29.0,52.0,46.0,25.0,46.0,20.0,98.0,0.0
9.0,-50.0,13.0,40.0,66.0,56.0,51.0,49.0,25.0,50.0,0.0
-6.0,-40.0,-1.0,26.0,30.0,19.0,19.0,23.0,6.0,-8.0,0.0
-4.0,-18.0,4.0,5.0,0.0,-9.0,-7.0,17.0,-16.0,-23.0,0.0
8.0,-9.0,15.0,-8.0,-12.0,-16.0,-14.0,3.0,-19.0,72.0,0.0
27.0,2.0,16.0,-19.0,-29.0,-21.0,-31.0,-4.0,-34.0,129.0,0.0
24.0,37.0,38.0,-8.0,-22.0,-4.0,-29.0,-13.0,-33.0,69.0,0.0
-9.0,61.0,56.0,3.0,-4.0,2.0,-18.0,-13.0,-35.0,-25.0,0.0
-13.0,47.0,78.0,0.0,-12.0,-2.0,-19.0,-6.0,-29.0,-75.0,0.0
-9.0,46.0,95.0,-4.0,-7.0,10.0,-4.0,6.0,2.0,-78.0,0.0
-1.0,35.0,72.0,-5.0,4.0,16.0,-1.0,8.0,0.0,-27.0,0.0
4.0,17.0,48.0,-4.0,0.0,11.0,-16.0,7.0,-24.0,-4.0,0.0
16.0,7.0,43.0,-11.0,2.0,4.0,-27.0,-6.0,-36.0,-16.0,0.0
19.0,7.0,9.0,-23.0,4.0,-14.0,-34.0,-17.0,-22.0,-32.0,0.0
34.0,6.0,-19.0,-23.0,16.0,-12.0,-31.0,-21.0,-22.0,-30.0,0.0
54.0,22.0,-15.0,-21.0,31.0,-9.0,-16.0,-15.0,-25.0,-18.0,0.0
64.0,40.0,0.0,-36.0,21.0,-3.0,-17.0,-14.0,-29.0,21.0,0.0
80.0,39.0,10.0,-43.0,11.0,-2.0,-2.0,-4.0,-10.0,88.0,0.0
88.0,20.0,3.0,-25.0,-6.0,7.0,11.0,20.0,4.0,119.0,0.0
73.0,24.0,-11.0,26.0,9.0,28.0,12.0,36.0,22.0,65.0,0.0
44.0,8.0,-15.0,44.0,33.0,34.0,22.0,39.0,20.0,-1.0,0.0
15.0,-19.0,-31.0,22.0,23.0,25.0,20.0,23.0,6.0,-11.0,0.0
8.0,12.0,-36.0,-10.0,0.0,-2.0,14.0,14.0,-14.0,-14.0,0.0
3.0,64.0,2.0,11.0,-28.0,-40.0,-6.0,-4.0,-28.0,-32.0,0.0
4.0,81.0,39.0,39.0,-30.0,-57.0,-33.0,-28.0,-40.0,-30.0,0.0
9.0,38.0,67.0,40.0,-35.0,-64.0,-45.0,-32.0,-36.0,-28.0,0.0
14.0,4.0,56.0,20.0,-59.0,-67.0,-53.0,-29.0,-16.0,-17.0,0.0
8.0,-14.0,28.0,-1.0,-68.0,-62.0,-46.0,-12.0,-9.0,-15.0,0.0
-2.0,-31.0,16.0,-13.0,-69.0,-46.0,-29.0,-6.0,-8.0,-24.0,0.0
-4.0,-34.0,18.0,-10.0,-82.0,-37.0,-20.0,-14.0,-15.0,-24.0,0.0
-3.0,-59.0,13.0,-7.0,-37.0,-11.0,-6.0,-18.0,-14.0,-25.0,0.0
8.0,-73.0,-1.0,-4.0,-7.0,-5.0,6.0,-14.0,-23.0,-26.0,0.0
15.0,-78.0,-21.0,0.0,52.0,20.0,17.0,-1.0,-14.0,-32.0,0.0
13.0,-80.0,-40.0,-12.0,87.0,41.0,33.0,-4.0,-18.0,-31.0,0.0
23.0,-66.0,-54.0,-22.0,43.0,19.0,30.0,-13.0,-19.0,-31.0,0.0
52.0,-36.0,-47.0,-28.0,16.0,-5.0,23.0,-24.0,-25.0,-39.0,0.0
65.0,-16.0,-23.0,-11.0,8.0,-3.0,16.0,-33.0,-24.0,-62.0,0.0
48.0,-13.0,-4.0,-6.0,10.0,-2.0,1.0,-37.0,-26.0,-63.0,0.0
24.0,-22.0,5.0,-8.0,15.0,-4.0,-9.0,-25.0,-21.0,-42.0,0.0
18.0,-3.0,24.0,12.0,29.0,11.0,-4.0,-29.0,-23.0,15.0,0.0
8.0,13.0,38.0,23.0,40.0,22.0,12.0,-19.0,-23.0,34.0,0.0
-20.0,-3.0,28.0,11.0,27.0,-6.0,-1.0,-22.0,-22.0,2.0,0.0
-50.0,-38.0,2.0,0.0,30.0,-16.0,-12.0,-9.0,-5.0,-6.0,0.0
-84.0,-63.0,-33.0,-2.0,47.0,-11.0,12.0,9.0,36.0,-15.0,0.0
-115.0,-84.0,-59.0,0.0,41.0,9.0,37.0,20.0,56.0,-7.0,0.0
-122.0,-90.0,-71.0,-1.0,15.0,15.0,35.0,16.0,56.0,42.0,0.0
-102.0,-91.0,-73.0,-17.0,-26.0,3.0,43.0,8.0,48.0,93.0,0.0
-77.0,-87.0,-34.0,-13.0,-48.0,3.0,31.0,-3.0,33.0,72.0,0.0
-62.0,-83.0,-5.0,-7.0,-56.0,-12.0,4.0,-15.0,30.0,32.0,0.0
-59.0,-64.0,10.0,-6.0,-37.0,-23.0,-7.0,1.0,35.0,23.0,0.0
-51.0,-35.0,24.0,-12.0,-22.0,-28.0,-25.0,-5.0,14.0,7.0,0.0
-31.0,3.0,26.0,-14.0,-9.0,-32.0,-44.0,-17.0,-2.0,-22.0,0.0
-13.0,47.0,51.0,6.0,-5.0,-28.0,-43.0,-16.0,-5.0,-20.0,0.0
12.0,78.0,68.0,14.0,-31.0,-35.0,-42.0,-9.0,10.0,-2.0,0.0
15.0,77.0,47.0,6.0,-46.0,-17.0,-37.0,-2.0,8.0,1.0,0.0
21.0,53.0,26.0,-10.0,-30.0,-6.0,-11.0,-3.0,13.0,4.0,0.0
37.0,38.0,-3.0,-30.0,-20.0,-4.0,8.0,3.0,25.0,8.0,0.0
43.0,51.0,-25.0,-31.0,-8.0,-2.0,7.0,18.0,19.0,9.0,0.0
49.0,99.0,-47.0,-23.0,22.0,13.0,14.0,26.0,24.0,23.0,0.0
49.0,124.0,-59.0,-21.0,40.0,28.0,35.0,49.0,55.0,34.0,0.0
27.0,105.0,-53.0,-20.0,8.0,41.0,49.0,71.0,74.0,35.0,0.0
-5.0,66.0,-34.0,-16.0,-4.0,32.0,40.0,68.0,55.0,20.0,0.0
-25.0,18.0,-43.0,-15.0,-2.0,9.0,8.0,27.0,11.0,-13.0,0.0
-40.0,-41.0,-42.0,-19.0,1.0,-6.0,-5.0,-12.0,-20.0,-35.0,0.0
-33.0,-65.0,-42.0,-25.0,6.0,-19.0,-13.0,-32.0,-31.0,-43.0,0.0
-29.0,-53.0,-34.0,-24.0,28.0,-4.0,-8.0,-23.0,-18.0,-47.0,0.0
-11.0,-40.0,-21.0,-31.0,9.0,-9.0,-9.0,-21.0,-18.0,-59.0,0.0
-15.0,-48.0,-1.0,-34.0,-6.0,-13.0,-23.0,-20.0,-21.0,-69.0,0.0
-26.0,-58.0,8.0,-27.0,-13.0,-7.0,-2.0,-1.0,-9.0,-76.0,0.0
-27.0,-59.0,12.0,-23.0,-22.0,-4.0,19.0,25.0,9.0,-71.0,0.0
-27.0,-46.0,0.0,-26.0,-36.0,-5.0,14.0,23.0,-1.0,-103.0,0.0
-35.0,-40.0,-3.0,-34.0,-51.0,-17.0,-3.0,0.0,-30.0,-135.0,0.0
-19.0,-41.0,-4.0,-43.0,-49.0,-13.0,-12.0,2.0,-37.0,-106.0,0.0
-25.0,-31.0,-2.0,-34.0,-39.0,-22.0,-16.0,2.0,-33.0,-63.0,0.0
-19.0,0.0,17.0,-17.0,-24.0,-22.0,-12.0,6.0,-15.0,52.0,0.0
22.0,39.0,58.0,20.0,-3.0,5.0,16.0,51.0,27.0,298.0,0.0
44.0,45.0,79.0,34.0,2.0,24.0,42.0,83.0,54.0,291.0,0.0
53.0,34.0,59.0,27.0,-15.0,17.0,44.0,70.0,60.0,146.0,0.0
48.0,5.0,15.0,11.0,-22.0,1.0,23.0,40.0,29.0,83.0,0.0
52.0,-5.0,-5.0,10.0,-19.0,-18.0,10.0,22.0,10.0,41.0,0.0
44.0,14.0,15.0,9.0,-14.0,-8.0,11.0,14.0,24.0,15.0,0.0
33.0,0.0,19.0,8.0,-10.0,-4.0,19.0,18.0,20.0,0.0,0.0
13.0,-18.0,8.0,11.0,1.0,11.0,36.0,25.0,26.0,-47.0,0.0
-18.0,-29.0,1.0,0.0,11.0,27.0,35.0,15.0,9.0,-115.0,0.0
-10.0,-26.0,-24.0,6.0,1.0,22.0,29.0,-6.0,-22.0,-131.0,0.0
15.0,-20.0,-37.0,4.0,-19.0,1.0,16.0,-7.0,-27.0,-99.0,0.0
42.0,-3.0,-35.0,-6.0,-10.0,-23.0,-14.0,11.0,15.0,0.0,0.0
57.0,2.0,-34.0,-4.0,-10.0,-40.0,-30.0,12.0,21.0,111.0,0.0
65.0,11.0,2.0,14.0,-26.0,-49.0,-42.0,-9.0,-9.0,235.0,0.0
62.0,15.0,45.0,27.0,-37.0,-46.0,-55.0,-19.0,-20.0,263.0,0.0
25.0,6.0,69.0,34.0,-19.0,-34.0,-48.0,-21.0,-24.0,176.0,0.0
-20.0,6.0,81.0,52.0,8.0,-16.0,-33.0,-27.0,-29.0,84.0,0.0
-57.0,2.0,71.0,56.0,15.0,3.0,-30.0,-24.0,-32.0,-20.0,0.0
-110.0,-22.0,71.0,55.0,19.0,10.0,-28.0,-21.0,-62.0,-176.0,0.0
-160.0,-47.0,79.0,59.0,21.0,26.0,10.0,0.0,-54.0,-258.0,0.0
-161.0,-41.0,74.0,45.0,19.0,29.0,12.0,4.0,-28.0,-285.0,0.0
-127.0,-24.0,48.0,30.0,5.0,12.0,-6.0,-9.0,-34.0,-306.0,0.0
-81.0,-4.0,16.0,6.0,-26.0,3.0,-7.0,-23.0,-35.0,-276.0,0.0
-35.0,23.0,3.0,-13.0,-54.0,-9.0,-19.0,-22.0,-36.0,-142.0,0.0
7.0,38.0,7.0,-2.0,-54.0,-10.0,-18.0,-15.0,-22.0,59.0,0.0
26.0,43.0,14.0,19.0,-31.0,4.0,-21.0,-3.0,-4.0,219.0,0.0
44.0,48.0,17.0,14.0,-19.0,4.0,-14.0,3.0,7.0,335.0,0.0
81.0,78.0,31.0,35.0,0.0,21.0,13.0,39.0,49.0,383.0,0.0
103.0,99.0,52.0,58.0,21.0,47.0,28.0,76.0,84.0,230.0,0.0
78.0,97.0,53.0,48.0,17.0,44.0,29.0,58.0,63.0,3.0,0.0
47.0,84.0,45.0,34.0,12.0,27.0,16.0,12.0,26.0,-116.0,0.0
34.0,69.0,41.0,21.0,9.0,-1.0,-7.0,-6.0,12.0,-111.0,0.0
23.0,60.0,14.0,13.0,0.0,-19.0,-27.0,-25.0,-5.0,-63.0,0.0
23.0,52.0,17.0,13.0,-4.0,-17.0,-31.0,-27.0,-13.0,-32.0,0.0
29.0,42.0,0.0,24.0,-1.0,1.0,-19.0,-18.0,-5.0,-9.0,0.0
32.0,26.0,-12.0,32.0,13.0,10.0,1.0,-14.0,11.0,-12.0,0.0
25.0,10.0,-12.0,21.0,23.0,14.0,13.0,-7.0,2.0,-28.0,0.0
26.0,-2.0,-12.0,11.0,12.0,18.0,18.0,-16.0,5.0,-41.0,0.0
7.0,-31.0,-2.0,4.0,-2.0,2.0,15.0,-17.0,-12.0,-49.0,0.0
7.0,-51.0,17.0,0.0,-7.0,3.0,20.0,-7.0,-17.0,-43.0,0.0
23.0,-39.0,0.0,-8.0,-10.0,0.0,33.0,-6.0,-15.0,-35.0,0.0
31.0,-18.0,2.0,8.0,3.0,13.0,50.0,7.0,-16.0,-28.0,0.0
29.0,1.0,-14.0,25.0,18.0,23.0,52.0,13.0,-19.0,-11.0,0.0
32.0,-1.0,-32.0,18.0,24.0,19.0,49.0,0.0,-17.0,5.0,0.0
40.0,17.0,-47.0,-6.0,14.0,6.0,31.0,4.0,-10.0,35.0,0.0
13.0,53.0,-60.0,-14.0,20.0,6.0,24.0,11.0,-3.0,29.0,0.0
-33.0,51.0,-54.0,0.0,27.0,8.0,23.0,-3.0,2.0,-42.0,0.0
-60.0,-15.0,-54.0,6.0,18.0,6.0,34.0,-7.0,-5.0,-113.0,0.0
-85.0,-107.0,-64.0,-15.0,1.0,4.0,40.0,-18.0,-22.0,-138.0,0.0
-104.0,-148.0,-73.0,-36.0,4.0,14.0,46.0,-18.0,-46.0,-145.0,0.0
-88.0,-141.0,-64.0,-22.0,14.0,12.0,38.0,-22.0,-29.0,-92.0,0.0
-54.0,-98.0,-49.0,-8.0,29.0,1.0,22.0,-3.0,4.0,3.0,0.0
-25.0,-76.0,-38.0,5.0,16.0,-2.0,18.0,15.0,15.0,0.0,0.0
-23.0,-61.0,-29.0,16.0,20.0,-12.0,9.0,7.0,-4.0,-69.0,0.0
-9.0,-30.0,-33.0,6.0,22.0,-24.0,2.0,-9.0,-12.0,-71.0,0.0
14.0,-11.0,-24.0,-13.0,10.0,-23.0,5.0,-7.0,-13.0,-2.0,0.0
16.0,-24.0,-25.0,-26.0,-26.0,-32.0,10.0,0.0,-7.0,77.0,0.0
11.0,-83.0,-26.0,-27.0,-45.0,-27.0,26.0,24.0,10.0,-19.0,0.0
3.0,-134.0,-32.0,-29.0,-13.0,-14.0,36.0,28.0,7.0,-92.0,0.0
-4.0,-101.0,-32.0,-27.0,-6.0,11.0,36.0,15.0,-9.0,-38.0,0.0
11.0,14.0,-14.0,-4.0,-7.0,21.0,37.0,33.0,18.0,68.0,0.0
42.0,105.0,16.0,16.0,5.0,15.0,42.0,59.0,57.0,258.0,0.0
55.0,92.0,39.0,8.0,15.0,6.0,27.0,49.0,25.0,258.0,0.0
35.0,74.0,14.0,-3.0,65.0,21.0,8.0,23.0,-2.0,143.0,0.0
-4.0,44.0,-9.0,2.0,69.0,10.0,7.0,6.0,-10.0,68.0,0.0
-15.0,12.0,-25.0,-11.0,8.0,-9.0,7.0,-5.0,-15.0,60.0,0.0
-18.0,-9.0,-39.0,-37.0,-29.0,-13.0,0.0,-15.0,-8.0,39.0,0.0
-3.0,-8.0,-39.0,-45.0,-53.0,-23.0,-8.0,-8.0,6.0,30.0,0.0
-1.0,8.0,-17.0,-10.0,-48.0,-32.0,-13.0,-1.0,0.0,16.0,0.0
10.0,40.0,-15.0,28.0,-40.0,-27.0,-29.0,1.0,-9.0,2.0,0.0
28.0,53.0,-29.0,20.0,-33.0,-18.0,-28.0,-2.0,-12.0,-4.0,0.0
26.0,47.0,-24.0,4.0,-33.0,-20.0,-23.0,-2.0,-12.0,-18.0,0.0
14.0,27.0,8.0,0.0,-36.0,-26.0,-14.0,4.0,-3.0,-35.0,0.0
15.0,-4.0,31.0,10.0,-33.0,-19.0,-4.0,18.0,3.0,-41.0,0.0
15.0,-4.0,38.0,10.0,-35.0,-23.0,-13.0,12.0,10.0,-30.0,0.0
28.0,8.0,45.0,10.0,-23.0,-32.0,-20.0,0.0,0.0,-7.0,0.0
30.0,15.0,41.0,21.0,-14.0,-33.0,-35.0,-3.0,-15.0,18.0,0.0
34.0,17.0,63.0,13.0,-3.0,-25.0,-41.0,-9.0,-25.0,16.0,0.0
22.0,14.0,47.0,21.0,42.0,-6.0,-27.0,8.0,-25.0,-3.0,0.0
25.0,23.0,39.0,40.0,47.0,15.0,6.0,30.0,25.0,6.0,0.0
21.0,20.0,23.0,39.0,22.0,-12.0,-13.0,12.0,27.0,-2.0,0.0
17.0,10.0,10.0,17.0,4.0,-21.0,-22.0,-3.0,-1.0,-17.0,0.0
3.0,4.0,5.0,7.0,0.0,-13.0,-15.0,-18.0,-10.0,-42.0,0.0
-6.0,16.0,2.0,4.0,2.0,-12.0,-19.0,-20.0,-13.0,-81.0,0.0
-7.0,21.0,3.0,8.0,8.0,-26.0,-35.0,-24.0,-18.0,-104.0,0.0
6.0,28.0,-18.0,19.0,18.0,-34.0,-33.0,-16.0,-13.0,-102.0,0.0
5.0,27.0,-52.0,26.0,36.0,-37.0,-22.0,-15.0,-17.0,-93.0,0.0
-14.0,11.0,-81.0,7.0,29.0,-43.0,-15.0,-26.0,-21.0,-82.0,0.0
-39.0,-18.0,-81.0,-21.0,26.0,-39.0,-11.0,-49.0,-43.0,-94.0,0.0
-67.0,-50.0,-75.0,-36.0,9.0,-43.0,-28.0,-68.0,-70.0,-124.0,0.0
-98.0,-77.0,-47.0,-22.0,-17.0,-45.0,-29.0,-83.0,-64.0,-133.0,0.0
-105.0,-97.0,-5.0,-17.0,-16.0,3.0,9.0,-55.0,-46.0,-47.0,0.0
-78.0,-97.0,28.0,-7.0,7.0,47.0,39.0,0.0,-7.0,141.0,0.0
-37.0,-71.0,54.0,2.0,78.0,81.0,79.0,49.0,63.0,221.0,0.0
-6.0,-46.0,57.0,-19.0,39.0,70.0,85.0,63.0,85.0,79.0,0.0
49.0,-30.0,30.0,-63.0,-22.0,47.0,69.0,69.0,98.0,70.0,0.0
49.0,-20.0,44.0,-78.0,-15.0,65.0,86.0,91.0,114.0,81.0,0.0
23.0,-12.0,23.0,-50.0,-17.0,75.0,78.0,89.0,105.0,37.0,0.0
9.0,15.0,4.0,-34.0,-21.0,58.0,67.0,70.0,65.0,-8.0,0.0
-6.0,44.0,-7.0,-54.0,-32.0,10.0,52.0,39.0,35.0,-79.0,0.0
-10.0,54.0,-8.0,-45.0,-47.0,-17.0,19.0,10.0,9.0,-89.0,0.0
35.0,67.0,0.0,-40.0,-24.0,-6.0,1.0,7.0,3.0,89.0,0.0
62.0,69.0,1.0,-30.0,0.0,-1.0,4.0,20.0,23.0,242.0,0.0
28.0,42.0,-3.0,-18.0,6.0,16.0,2.0,5.0,-1.0,139.0,0.0
-4.0,5.0,0.0,-10.0,16.0,14.0,2.0,-15.0,-15.0,39.0,0.0
-14.0,-19.0,-18.0,-3.0,21.0,19.0,-5.0,-34.0,-7.0,16.0,0.0
-14.0,-34.0,-30.0,-18.0,13.0,26.0,-7.0,-27.0,-4.0,3.0,0.0
-35.0,-61.0,-16.0,-28.0,5.0,24.0,5.0,-25.0,6.0,10.0,0.0
-42.0,-77.0,23.0,-19.0,9.0,17.0,8.0,-14.0,10.0,13.0,0.0
-42.0,-39.0,51.0,-15.0,-4.0,11.0,-7.0,-21.0,-24.0,-8.0,0.0
-34.0,5.0,69.0,-8.0,-29.0,-4.0,-22.0,-34.0,-47.0,-22.0,0.0
4.0,28.0,83.0,-12.0,-34.0,-13.0,-14.0,-44.0,-40.0,-22.0,0.0
44.0,19.0,67.0,-25.0,-21.0,-5.0,-8.0,-44.0,-34.0,-14.0,0.0
57.0,2.0,25.0,-32.0,-11.0,-4.0,-8.0,-39.0,-28.0,-18.0,0.0
68.0,-12.0,-10.0,-38.0,-13.0,8.0,8.0,-33.0,-34.0,-13.0,0.0
70.0,-13.0,-16.0,-36.0,-24.0,7.0,15.0,-34.0,-29.0,-11.0,0.0
53.0,8.0,-11.0,-38.0,-30.0,-17.0,-1.0,-33.0,-31.0,-15.0,0.0
44.0,33.0,3.0,-38.0,-50.0,-30.0,-5.0,-29.0,-27.0,-6.0,0.0
38.0,30.0,6.0,-29.0,-37.0,-31.0,-7.0,-19.0,3.0,0.0,0.0
-3.0,19.0,11.0,-13.0,-13.0,-14.0,-2.0,0.0,18.0,-20.0,0.0
-58.0,29.0,15.0,2.0,-11.0,-21.0,-22.0,1.0,1.0,-89.0,0.0
-89.0,27.0,10.0,7.0,-10.0,-24.0,-51.0,-34.0,-20.0,-156.0,0.0
-89.0,5.0,13.0,11.0,-6.0,-24.0,-48.0,-43.0,-13.0,-183.0,0.0
-68.0,-12.0,-2.0,-3.0,-23.0,-32.0,-50.0,-48.0,-21.0,-182.0,0.0
-46.0,-20.0,-28.0,-15.0,-19.0,-25.0,-44.0,-47.0,-21.0,-170.0,0.0
-38.0,-2.0,-36.0,-19.0,5.0,-9.0,-34.0,-47.0,-42.0,-145.0,0.0
-38.0,5.0,-33.0,-20.0,22.0,4.0,-15.0,-37.0,-45.0,-37.0,0.0
-23.0,-7.0,-30.0,-22.0,21.0,12.0,7.0,-12.0,-13.0,165.0,0.0
10.0,20.0,-28.0,-6.0,31.0,26.0,21.0,12.0,33.0,281.0,0.0
42.0,85.0,-13.0,38.0,40.0,40.0,39.0,48.0,64.0,234.0,0.0
49.0,93.0,-5.0,51.0,31.0,41.0,37.0,48.0,69.0,171.0,0.0
26.0,44.0,-6.0,45.0,26.0,29.0,16.0,32.0,43.0,104.0,0.0
9.0,9.0,-17.0,24.0,2.0,9.0,9.0,14.0,33.0,45.0,0.0
-6.0,-11.0,-24.0,31.0,-5.0,2.0,3.0,0.0,25.0,15.0,0.0
-10.0,-25.0,-11.0,36.0,0.0,0.0,-10.0,-5.0,5.0,19.0,0.0
-1.0,-21.0,-17.0,12.0,0.0,4.0,-11.0,-12.0,12.0,27.0,0.0
35.0,-24.0,-23.0,-3.0,-12.0,13.0,8.0,-12.0,11.0,26.0,0.0
53.0,-24.0,-21.0,0.0,-14.0,9.0,12.0,-23.0,4.0,31.0,0.0
66.0,-15.0,15.0,14.0,-8.0,-6.0,-6.0,-39.0,-3.0,33.0,0.0
68.0,-29.0,28.0,27.0,0.0,-13.0,-12.0,-34.0,-2.0,40.0,0.0
69.0,-29.0,46.0,29.0,0.0,-20.0,-8.0,-17.0,11.0,34.0,0.0
66.0,10.0,41.0,33.0,-1.0,-12.0,5.0,1.0,23.0,3.0,0.0
70.0,76.0,49.0,28.0,-4.0,-10.0,16.0,23.0,34.0,-24.0,0.0
38.0,121.0,48.0,17.0,-22.0,0.0,20.0,30.0,49.0,-63.0,0.0
0.0,110.0,28.0,13.0,-25.0,-1.0,13.0,26.0,39.0,-75.0,0.0
-49.0,72.0,19.0,12.0,-25.0,2.0,17.0,33.0,31.0,-75.0,0.0
-89.0,14.0,26.0,1.0,-31.0,4.0,21.0,30.0,18.0,-102.0,0.0
-106.0,-47.0,14.0,-24.0,-34.0,-26.0,-4.0,18.0,-4.0,-123.0,0.0
-103.0,-63.0,-17.0,0.0,13.0,-32.0,-4.0,6.0,-4.0,-129.0,0.0
-104.0,-58.0,-27.0,24.0,36.0,-27.0,-34.0,-23.0,-30.0,-152.0,0.0
-101.0,-73.0,-20.0,12.0,70.0,-11.0,-56.0,-30.0,-48.0,-145.0,0.0
-80.0,-72.0,-43.0,-9.0,60.0,-8.0,-33.0,-2.0,-34.0,-60.0,0.0
-53.0,-66.0,-52.0,-25.0,25.0,-4.0,7.0,44.0,6.0,52.0,0.0
-21.0,-62.0,-50.0,-15.0,23.0,0.0,10.0,61.0,7.0,86.0,0.0
16.0,-11.0,-35.0,12.0,28.0,10.0,28.0,69.0,28.0,44.0,0.0
37.0,38.0,-13.0,31.0,37.0,19.0,30.0,74.0,39.0,23.0,0.0
42.0,38.0,14.0,33.0,41.0,12.0,23.0,61.0,35.0,11.0,0.0
43.0,35.0,53.0,37.0,33.0,-5.0,21.0,43.0,34.0,2.0,0.0
43.0,34.0,88.0,45.0,33.0,-11.0,-1.0,34.0,18.0,42.0,0.0
28.0,18.0,97.0,51.0,42.0,-5.0,-21.0,25.0,-7.0,114.0,0.0
30.0,25.0,88.0,48.0,37.0,-5.0,-22.0,13.0,-4.0,196.0,0.0
61.0,42.0,104.0,44.0,44.0,-5.0,-21.0,19.0,26.0,170.0,0.0
67.0,47.0,89.0,47.0,58.0,9.0,-7.0,33.0,36.0,10.0,0.0
49.0,30.0,51.0,33.0,68.0,21.0,-4.0,24.0,18.0,-46.0,0.0
38.0,23.0,36.0,16.0,68.0,8.0,-1.0,16.0,22.0,-29.0,0.0
14.0,17.0,15.0,15.0,57.0,-2.0,-9.0,-4.0,29.0,-28.0,0.0
7.0,22.0,7.0,9.0,32.0,-8.0,-10.0,-11.0,26.0,0.0,0.0
11.0,22.0,4.0,-22.0,-4.0,-14.0,-16.0,1.0,23.0,12.0,0.0
26.0,22.0,-10.0,-35.0,-31.0,-27.0,-20.0,1.0,21.0,21.0,0.0
36.0,26.0,-12.0,-24.0,-20.0,-33.0,-31.0,-3.0,15.0,22.0,0.0
28.0,40.0,-14.0,-25.0,-9.0,-23.0,-37.0,7.0,0.0,6.0,0.0
1.0,30.0,-33.0,-36.0,-12.0,-24.0,-26.0,-5.0,-16.0,-19.0,0.0
-18.0,12.0,-51.0,-38.0,-30.0,-25.0,-13.0,-20.0,-16.0,-42.0,0.0
-21.0,0.0,-49.0,-11.0,-36.0,-16.0,1.0,-29.0,-29.0,-77.0,0.0
-14.0,3.0,-27.0,16.0,-23.0,-15.0,5.0,-28.0,-22.0,-70.0,0.0
14.0,17.0,8.0,38.0,6.0,-16.0,-1.0,-22.0,-29.0,-22.0,0.0
41.0,64.0,53.0,57.0,26.0,-9.0,5.0,-3.0,-23.0,76.0,0.0
42.0,104.0,61.0,56.0,20.0,-2.0,8.0,4.0,-10.0,102.0,0.0
32.0,98.0,56.0,37.0,8.0,-8.0,6.0,16.0,4.0,55.0,0.0
23.0,63.0,53.0,33.0,2.0,-15.0,0.0,23.0,-8.0,28.0,0.0
15.0,21.0,54.0,27.0,5.0,-6.0,0.0,7.0,-6.0,23.0,0.0
14.0,-15.0,47.0,10.0,3.0,5.0,3.0,4.0,16.0,22.0,0.0
10.0,-40.0,22.0,-2.0,6.0,15.0,7.0,11.0,14.0,4.0,0.0
3.0,-59.0,-9.0,-27.0,-1.0,10.0,13.0,4.0,0.0,2.0,0.0
0.0,-73.0,-36.0,-63.0,-7.0,1.0,7.0,-8.0,-13.0,-5.0,0.0
-1.0,-72.0,-51.0,-88.0,-22.0,-3.0,-15.0,-22.0,-26.0,-18.0,0.0
-7.0,-55.0,-58.0,-96.0,-39.0,-7.0,-26.0,-35.0,-52.0,-22.0,0.0
-7.0,-59.0,-58.0,-97.0,-39.0,-6.0,-19.0,-29.0,-58.0,-2.0,0.0
-28.0,-95.0,-77.0,-90.0,7.0,1.0,-7.0,-29.0,-48.0,6.0,0.0
-34.0,-113.0,-81.0,-64.0,37.0,6.0,6.0,-4.0,-35.0,26.0,0.0
-42.0,-96.0,-70.0,0.0,64.0,23.0,17.0,8.0,-24.0,46.0,0.0
-58.0,-66.0,-48.0,60.0,86.0,36.0,25.0,16.0,-6.0,39.0,0.0
-49.0,-35.0,-35.0,104.0,73.0,43.0,32.0,23.0,13.0,-27.0,0.0
-29.0,8.0,-17.0,130.0,67.0,44.0,49.0,31.0,27.0,-63.0,0.0
-6.0,49.0,-1.0,105.0,54.0,44.0,50.0,48.0,40.0,45.0,0.0
5.0,74.0,36.0,68.0,26.0,48.0,57.0,62.0,55.0,73.0,0.0
0.0,69.0,62.0,43.0,10.0,46.0,52.0,60.0,38.0,-9.0,0.0
1.0,42.0,52.0,7.0,9.0,25.0,28.0,53.0,9.0,-10.0,0.0
18.0,43.0,28.0,-10.0,2.0,14.0,6.0,41.0,1.0,8.0,0.0
14.0,55.0,28.0,-6.0,-32.0,1.0,-3.0,13.0,-8.0,-4.0,0.0
5.0,54.0,26.0,-8.0,-41.0,-4.0,-8.0,9.0,-12.0,2.0,0.0
10.0,38.0,13.0,0.0,-22.0,-2.0,-13.0,-2.0,-24.0,6.0,0.0
-1.0,13.0,21.0,9.0,-10.0,-2.0,1.0,3.0,-7.0,2.0,0.0
3.0,16.0,7.0,-1.0,-4.0,12.0,21.0,16.0,11.0,10.0,0.0
5.0,25.0,-1.0,-6.0,-15.0,15.0,18.0,12.0,11.0,23.0,0.0
13.0,45.0,8.0,0.0,-13.0,19.0,5.0,8.0,-2.0,6.0,0.0
26.0,79.0,39.0,9.0,0.0,4.0,-5.0,-14.0,-22.0,-18.0,0.0
38.0,107.0,60.0,20.0,7.0,-24.0,-17.0,-14.0,-37.0,-40.0,0.0
41.0,111.0,64.0,24.0,10.0,-37.0,-26.0,-15.0,-30.0,-39.0,0.0
55.0,94.0,47.0,13.0,4.0,-34.0,-32.0,-9.0,-16.0,-59.0,0.0
72.0,85.0,39.0,1.0,-12.0,-45.0,-39.0,-22.0,-25.0,-74.0,0.0
78.0,89.0,22.0,2.0,-12.0,-65.0,-66.0,-54.0,-53.0,-100.0,0.0
76.0,61.0,-10.0,-9.0,-10.0,-61.0,-76.0,-58.0,-69.0,-159.0,0.0
63.0,25.0,-46.0,-35.0,-18.0,-24.0,-58.0,-47.0,-48.0,-187.0,0.0
38.0,-3.0,-74.0,-49.0,-42.0,-3.0,-44.0,-34.0,-29.0,-203.0,0.0
-9.0,-26.0,-107.0,-52.0,-49.0,4.0,-35.0,-36.0,-37.0,-246.0,0.0
-27.0,-22.0,-94.0,-37.0,-33.0,16.0,-33.0,-39.0,-44.0,-253.0,0.0
-27.0,26.0,-89.0,-49.0,-25.0,9.0,-24.0,-39.0,-51.0,-72.0,0.0
-68.0,39.0,-78.0,-73.0,-48.0,-14.0,-37.0,-64.0,-72.0,-80.0,0.0
-123.0,-11.0,-37.0,-58.0,-45.0,-29.0,-45.0,-76.0,-79.0,-168.0,0.0
-155.0,-80.0,6.0,-9.0,-1.0,-17.0,-23.0,-64.0,-77.0,-118.0,0.0
-141.0,-76.0,27.0,38.0,30.0,21.0,18.0,-8.0,-15.0,-3.0,0.0
-64.0,8.0,65.0,80.0,58.0,69.0,77.0,77.0,88.0,297.0,0.0
41.0,74.0,72.0,102.0,56.0,79.0,105.0,123.0,145.0,579.0,0.0
109.0,71.0,60.0,76.0,34.0,64.0,99.0,122.0,152.0,633.0,0.0
76.0,27.0,36.0,52.0,40.0,41.0,80.0,101.0,119.0,497.0,0.0
3.0,-22.0,-12.0,23.0,31.0,30.0,49.0,64.0,80.0,311.0,0.0
-58.0,-84.0,-24.0,-4.0,24.0,11.0,27.0,59.0,34.0,161.0,0.0
-74.0,-102.0,-32.0,-9.0,14.0,4.0,30.0,42.0,25.0,74.0,0.0
-75.0,-103.0,-36.0,-16.0,-6.0,-20.0,10.0,7.0,3.0,42.0,0.0
-58.0,-89.0,-36.0,-18.0,-15.0,-25.0,-10.0,-3.0,-18.0,41.0,0.0
-38.0,-83.0,-23.0,-19.0,11.0,-13.0,-12.0,8.0,-1.0,39.0,0.0
-3.0,-39.0,20.0,5.0,45.0,7.0,9.0,14.0,10.0,38.0,0.0
22.0,-32.0,44.0,32.0,40.0,18.0,8.0,16.0,14.0,41.0,0.0
21.0,-24.0,26.0,40.0,36.0,12.0,-7.0,16.0,19.0,29.0,0.0
19.0,-24.0,37.0,26.0,32.0,-2.0,-8.0,9.0,8.0,-1.0,0.0
21.0,-26.0,48.0,20.0,23.0,-21.0,-3.0,14.0,-10.0,-13.0,0.0
34.0,-15.0,26.0,21.0,2.0,-19.0,-5.0,9.0,-2.0,-4.0,0.0
46.0,-5.0,4.0,19.0,-3.0,-26.0,-13.0,4.0,5.0,-4.0,0.0
61.0,18.0,17.0,45.0,9.0,-33.0,-14.0,-6.0,-6.0,-13.0,0.0
73.0,39.0,7.0,49.0,-4.0,-45.0,-25.0,-20.0,-18.0,-38.0,0.0
67.0,21.0,5.0,35.0,0.0,-42.0,-31.0,-19.0,-11.0,-55.0,0.0
60.0,5.0,-22.0,32.0,6.0,-48.0,-45.0,-25.0,-16.0,-68.0,0.0
56.0,13.0,-32.0,16.0,-3.0,-41.0,-52.0,-23.0,-19.0,-95.0,0.0
38.0,11.0,-38.0,-4.0,-21.0,-31.0,-30.0,-9.0,-13.0,-113.0,0.0
13.0,11.0,-37.0,-18.0,-47.0,-21.0,-23.0,0.0,-18.0,-97.0,0.0
-3.0,16.0,-43.0,-40.0,-73.0,-15.0,-29.0,-1.0,-20.0,-85.0,0.0
-27.0,16.0,-29.0,-41.0,-77.0,-10.0,-14.0,-3.0,-15.0,-86.0,0.0
-59.0,-1.0,-30.0,-44.0,-58.0,1.0,5.0,0.0,-8.0,-90.0,0.0
-105.0,-24.0,-44.0,-28.0,-9.0,12.0,3.0,-15.0,-5.0,-92.0,0.0
-122.0,-47.0,-49.0,-8.0,68.0,18.0,-6.0,-10.0,6.0,-60.0,0.0
-109.0,-67.0,-35.0,-4.0,72.0,5.0,-15.0,-2.0,21.0,-5.0,0.0
-70.0,-77.0,-33.0,-14.0,58.0,0.0,-22.0,-2.0,21.0,70.0,0.0
-48.0,-46.0,-36.0,-17.0,33.0,-3.0,-15.0,-7.0,0.0,99.0,0.0
-46.0,-6.0,-31.0,-31.0,-4.0,-15.0,-26.0,-35.0,-23.0,32.0,0.0
-59.0,0.0,-27.0,-69.0,-45.0,-23.0,-31.0,-43.0,-21.0,-7.0,0.0
-56.0,-16.0,-34.0,-69.0,-66.0,-36.0,-42.0,-41.0,-31.0,-17.0,0.0
-39.0,-36.0,-25.0,-65.0,-64.0,-41.0,-46.0,-49.0,-44.0,-20.0,0.0
-35.0,-56.0,-12.0,-42.0,-57.0,-44.0,-35.0,-48.0,-47.0,-4.0,0.0
-24.0,-51.0,-9.0,-28.0,-31.0,-18.0,-4.0,-32.0,-19.0,26.0,0.0
-12.0,-26.0,-5.0,0.0,-10.0,16.0,15.0,-2.0,12.0,63.0,0.0
-14.0,0.0,7.0,-1.0,-7.0,31.0,19.0,9.0,34.0,68.0,0.0
-15.0,-6.0,44.0,-17.0,-2.0,38.0,25.0,13.0,45.0,49.0,0.0
0.0,-22.0,58.0,-6.0,20.0,67.0,34.0,27.0,53.0,-4.0,0.0
26.0,-35.0,35.0,-7.0,24.0,69.0,30.0,25.0,37.0,-89.0,0.0
51.0,-52.0,9.0,-24.0,9.0,44.0,17.0,-3.0,14.0,-57.0,0.0
62.0,-56.0,-5.0,-26.0,2.0,36.0,13.0,-7.0,-4.0,-2.0,0.0
75.0,-54.0,-6.0,-24.0,2.0,35.0,11.0,-8.0,0.0,11.0,0.0
83.0,-35.0,-12.0,-26.0,6.0,14.0,-2.0,2.0,10.0,24.0,0.0
67.0,-18.0,-22.0,-32.0,23.0,2.0,-6.0,16.0,-4.0,38.0,0.0
37.0,-20.0,-38.0,-31.0,27.0,3.0,-2.0,18.0,-11.0,36.0,0.0
2.0,-33.0,-21.0,-25.0,46.0,17.0,0.0,9.0,2.0,3.0,0.0
-20.0,-37.0,-20.0,-16.0,51.0,25.0,8.0,20.0,24.0,-69.0,0.0
-31.0,4.0,-3.0,5.0,44.0,31.0,11.0,38.0,23.0,-147.0,0.0
-38.0,32.0,29.0,29.0,21.0,31.0,3.0,28.0,5.0,-166.0,0.0
-33.0,50.0,22.0,28.0,-5.0,11.0,-8.0,-5.0,-7.0,-159.0,0.0
-36.0,69.0,14.0,10.0,-24.0,-1.0,-31.0,-38.0,-52.0,-165.0,0.0
-12.0,75.0,1.0,-20.0,-56.0,-6.0,-37.0,-28.0,-54.0,-159.0,0.0
-1.0,56.0,-8.0,-38.0,-60.0,1.0,-32.0,-8.0,-33.0,-163.0,0.0
-9.0,32.0,-23.0,-44.0,-54.0,0.0,-25.0,-14.0,-35.0,-182.0,0.0
-24.0,25.0,-20.0,-38.0,-56.0,-21.0,-27.0,-41.0,-51.0,-192.0,0.0
-33.0,13.0,1.0,-15.0,-70.0,-42.0,-46.0,-68.0,-71.0,-139.0,0.0
-25.0,-12.0,15.0,-15.0,-66.0,-51.0,-53.0,-78.0,-57.0,-42.0,0.0
4.0,-14.0,40.0,12.0,-31.0,-21.0,-34.0,-37.0,-25.0,40.0,0.0
2.0,-9.0,32.0,28.0,-11.0,-9.0,-20.0,-22.0,-19.0,48.0,0.0
-2.0,-7.0,9.0,27.0,-4.0,-20.0,-23.0,-29.0,-18.0,72.0,0.0
27.0,0.0,16.0,36.0,6.0,-9.0,-6.0,-10.0,1.0,219.0,0.0
90.0,49.0,59.0,68.0,-2.0,29.0,43.0,50.0,64.0,453.0,0.0
131.0,84.0,73.0,71.0,23.0,42.0,48.0,90.0,89.0,446.0,0.0
102.0,77.0,68.0,48.0,10.0,16.0,24.0,70.0,72.0,179.0,0.0
80.0,63.0,69.0,27.0,0.0,14.0,23.0,52.0,48.0,34.0,0.0
76.0,21.0,73.0,28.0,21.0,18.0,31.0,50.0,32.0,26.0,0.0
81.0,5.0,68.0,27.0,35.0,38.0,36.0,47.0,30.0,34.0,0.0
81.0,45.0,55.0,-7.0,0.0,38.0,20.0,39.0,38.0,41.0,0.0
75.0,109.0,50.0,-7.0,-25.0,15.0,0.0,27.0,37.0,35.0,0.0
71.0,124.0,47.0,9.0,-23.0,-5.0,-16.0,2.0,24.0,16.0,0.0
83.0,123.0,31.0,-8.0,-21.0,-14.0,-18.0,-7.0,7.0,15.0,0.0
70.0,70.0,21.0,-16.0,4.0,12.0,-13.0,0.0,6.0,8.0,0.0
38.0,-2.0,-15.0,-7.0,19.0,37.0,-10.0,17.0,25.0,11.0,0.0
5.0,-49.0,-62.0,-25.0,13.0,42.0,-6.0,41.0,41.0,23.0,0.0
-17.0,-66.0,-96.0,-45.0,4.0,27.0,-18.0,11.0,27.0,4.0,0.0
-40.0,-88.0,-113.0,-49.0,-5.0,33.0,-18.0,-20.0,5.0,-28.0,0.0
-60.0,-111.0,-108.0,-42.0,-5.0,58.0,-11.0,-14.0,-10.0,-42.0,0.0
-63.0,-93.0,-104.0,-26.0,0.0,52.0,-7.0,11.0,4.0,-17.0,0.0
-58.0,-62.0,-89.0,-35.0,13.0,49.0,0.0,21.0,14.0,2.0,0.0
-67.0,-59.0,-59.0,-27.0,12.0,40.0,0.0,15.0,12.0,-7.0,0.0
-67.0,-92.0,-39.0,-20.0,2.0,30.0,4.0,10.0,13.0,-21.0,0.0
-59.0,-111.0,-35.0,-14.0,3.0,12.0,1.0,-6.0,1.0,-27.0,0.0
-52.0,-108.0,-26.0,-6.0,13.0,-2.0,-7.0,-10.0,-27.0,-18.0,0.0
-34.0,-91.0,-2.0,5.0,5.0,-2.0,-7.0,-20.0,-41.0,0.0,0.0
-6.0,-59.0,14.0,11.0,-2.0,1.0,-17.0,-17.0,-24.0,22.0,0.0
-4.0,-32.0,-1.0,1.0,-10.0,3.0,-17.0,-16.0,-5.0,18.0,0.0
7.0,-20.0,-14.0,-12.0,-21.0,7.0,-18.0,-12.0,1.0,8.0,0.0
15.0,-5.0,-22.0,-29.0,-20.0,10.0,-22.0,0.0,18.0,11.0,0.0
22.0,11.0,-24.0,-26.0,-16.0,8.0,8.0,23.0,29.0,18.0,0.0
17.0,21.0,-27.0,27.0,17.0,23.0,17.0,21.0,28.0,19.0,0.0
12.0,14.0,-35.0,11.0,42.0,40.0,15.0,9.0,22.0,1.0,0.0
18.0,25.0,-50.0,-10.0,32.0,35.0,12.0,7.0,5.0,-14.0,0.0
14.0,35.0,-24.0,-14.0,24.0,16.0,-7.0,-10.0,-14.0,-33.0,0.0
13.0,28.0,-4.0,-8.0,29.0,14.0,-18.0,-32.0,-22.0,-39.0,0.0
14.0,26.0,-34.0,-5.0,32.0,17.0,-24.0,-39.0,-26.0,-52.0,0.0
-3.0,20.0,-28.0,-18.0,33.0,14.0,-19.0,-47.0,-33.0,-70.0,0.0
-32.0,0.0,-14.0,-14.0,26.0,7.0,-9.0,-40.0,-30.0,-154.0,0.0
-55.0,-16.0,-23.0,-1.0,10.0,-26.0,-21.0,-52.0,-44.0,-242.0,0.0
-65.0,-25.0,-13.0,6.0,-17.0,-63.0,-50.0,-77.0,-68.0,-247.0,0.0
-77.0,-47.0,-2.0,-29.0,-47.0,-62.0,-51.0,-81.0,-57.0,-203.0,0.0
-83.0,-81.0,-21.0,-60.0,-75.0,-61.0,-26.0,-70.0,-46.0,-113.0,0.0
-73.0,-96.0,-32.0,-82.0,-92.0,-76.0,-44.0,-79.0,-66.0,-49.0,0.0
-65.0,-96.0,-35.0,-90.0,-67.0,-75.0,-74.0,-110.0,-89.0,-48.0,0.0
5.0,10.0,53.0,19.0,-21.0,-4.0,14.0,-10.0,20.0,355.0,0.0
66.0,61.0,111.0,92.0,34.0,38.0,65.0,68.0,77.0,441.0,0.0
65.0,69.0,110.0,117.0,58.0,44.0,80.0,109.0,87.0,255.0,0.0
48.0,45.0,79.0,88.0,51.0,31.0,54.0,83.0,36.0,134.0,0.0
38.0,54.0,66.0,65.0,44.0,52.0,48.0,56.0,46.0,99.0,0.0
28.0,35.0,59.0,44.0,21.0,43.0,54.0,38.0,37.0,62.0,0.0
25.0,43.0,42.0,38.0,11.0,28.0,47.0,36.0,31.0,37.0,0.0
21.0,46.0,42.0,33.0,11.0,29.0,33.0,37.0,35.0,44.0,0.0
-4.0,40.0,16.0,24.0,6.0,18.0,13.0,28.0,31.0,31.0,0.0
-16.0,74.0,-5.0,18.0,-13.0,-8.0,-12.0,-7.0,6.0,-22.0,0.0
-14.0,92.0,-3.0,28.0,-24.0,-16.0,-19.0,-34.0,-9.0,-52.0,0.0
-4.0,81.0,-5.0,30.0,-12.0,-23.0,-24.0,-37.0,-13.0,-51.0,0.0
-3.0,40.0,2.0,26.0,0.0,-16.0,-12.0,-26.0,-7.0,-43.0,0.0
-8.0,0.0,0.0,6.0,-7.0,-6.0,-7.0,-18.0,-10.0,-51.0,0.0
-1.0,-19.0,-15.0,-23.0,-32.0,-5.0,-17.0,-16.0,-15.0,-62.0,0.0
-2.0,-50.0,-34.0,-29.0,-52.0,-13.0,-19.0,-24.0,-9.0,-80.0,0.0
0.0,-70.0,-42.0,-45.0,-49.0,-20.0,-29.0,-25.0,-14.0,-123.0,0.0
13.0,-76.0,-61.0,-60.0,-62.0,-40.0,-34.0,-53.0,-39.0,-161.0,0.0
33.0,-65.0,-83.0,-79.0,-73.0,-56.0,-45.0,-69.0,-52.0,-136.0,0.0
64.0,-35.0,-72.0,-63.0,-9.0,-42.0,-38.0,-57.0,-45.0,-35.0,0.0
86.0,-21.0,-59.0,-52.0,32.0,-26.0,-21.0,-39.0,-38.0,6.0,0.0
74.0,-13.0,-54.0,-67.0,-25.0,-40.0,-24.0,-38.0,-39.0,-25.0,0.0
46.0,14.0,-41.0,-63.0,-53.0,-31.0,-32.0,-42.0,-38.0,-41.0,0.0
2.0,27.0,-6.0,-25.0,-19.0,-25.0,-14.0,-36.0,-19.0,33.0,0.0
-28.0,34.0,39.0,3.0,40.0,-22.0,8.0,-10.0,12.0,197.0,0.0
-44.0,35.0,94.0,12.0,45.0,-7.0,0.0,16.0,14.0,230.0,0.0
-42.0,70.0,112.0,50.0,58.0,14.0,43.0,56.0,75.0,76.0,0.0
-9.0,102.0,101.0,61.0,60.0,28.0,64.0,60.0,80.0,-2.0,0.0
45.0,106.0,75.0,29.0,45.0,22.0,50.0,30.0,53.0,13.0,0.0
86.0,91.0,51.0,20.0,28.0,0.0,42.0,10.0,39.0,24.0,0.0
85.0,76.0,22.0,13.0,13.0,-20.0,23.0,-4.0,47.0,34.0,0.0
79.0,61.0,23.0,32.0,-7.0,-30.0,1.0,-8.0,38.0,47.0,0.0
65.0,47.0,20.0,26.0,-8.0,-33.0,-1.0,-26.0,15.0,31.0,0.0
33.0,39.0,37.0,20.0,3.0,-31.0,-1.0,-25.0,13.0,8.0,0.0
0.0,33.0,21.0,43.0,8.0,-31.0,-21.0,-10.0,8.0,-4.0,0.0
-40.0,24.0,33.0,56.0,20.0,-10.0,-14.0,-21.0,-6.0,-18.0,0.0
-78.0,-3.0,26.0,47.0,50.0,-1.0,-5.0,-27.0,-1.0,-24.0,0.0
-114.0,-43.0,14.0,49.0,73.0,15.0,8.0,-8.0,21.0,-30.0,0.0
-68.0,-26.0,-45.0,17.0,21.0,13.0,10.0,1.0,-10.0,-16.0,0.0
-53.0,-33.0,-12.0,-23.0,-23.0,-30.0,-33.0,-11.0,-76.0,-7.0,0.0
-51.0,-77.0,-37.0,-31.0,-43.0,-40.0,-40.0,-15.0,-77.0,-44.0,0.0
51.0,54.0,0.0,-28.0,-36.0,-20.0,-30.0,-11.0,-61.0,-16.0,0.0
41.0,121.0,36.0,-23.0,-31.0,-14.0,-23.0,-12.0,-34.0,-16.0,0.0
41.0,87.0,38.0,15.0,-36.0,-33.0,-35.0,-40.0,-4.0,-12.0,0.0
-57.0,-74.0,0.0,-28.0,-18.0,-27.0,-38.0,-31.0,-53.0,-41.0,0.0
-78.0,-76.0,-10.0,-35.0,-36.0,-44.0,-45.0,-34.0,-61.0,-47.0,0.0
-86.0,-48.0,-31.0,-49.0,-37.0,-46.0,-37.0,-30.0,-70.0,-59.0,0.0
-80.0,-19.0,-36.0,-31.0,-29.0,-28.0,-18.0,-22.0,-62.0,-62.0,0.0
-56.0,12.0,-30.0,-26.0,-28.0,0.0,22.0,9.0,-1.0,-40.0,0.0
-34.0,-19.0,-16.0,-4.0,0.0,14.0,27.0,10.0,17.0,-43.0,0.0
-36.0,-51.0,-13.0,11.0,23.0,22.0,32.0,-2.0,20.0,-68.0,0.0
-57.0,-82.0,-12.0,3.0,20.0,26.0,47.0,-10.0,22.0,-100.0,0.0
-75.0,-106.0,-15.0,-1.0,7.0,28.0,48.0,-13.0,7.0,-137.0,0.0
-70.0,-110.0,-19.0,6.0,-2.0,26.0,33.0,-17.0,-2.0,-174.0,0.0
-54.0,-105.0,-17.0,-1.0,15.0,20.0,8.0,-15.0,-5.0,-130.0,0.0
-38.0,-79.0,-16.0,-21.0,23.0,10.0,10.0,-23.0,-14.0,-94.0,0.0
-22.0,-61.0,-12.0,-36.0,30.0,15.0,15.0,-36.0,-22.0,-144.0,0.0
-19.0,-38.0,-8.0,-36.0,10.0,13.0,18.0,-31.0,-23.0,-182.0,0.0
-24.0,-25.0,5.0,-32.0,-30.0,-3.0,3.0,-45.0,-44.0,-158.0,0.0
-22.0,-37.0,-3.0,-52.0,-49.0,-11.0,-6.0,-46.0,-39.0,-58.0,0.0
19.0,-3.0,-1.0,-66.0,-69.0,-1.0,16.0,-20.0,18.0,143.0,0.0
105.0,56.0,20.0,-36.0,-49.0,20.0,35.0,22.0,69.0,479.0,0.0
156.0,102.0,50.0,25.0,-3.0,34.0,41.0,55.0,99.0,559.0,0.0
128.0,110.0,50.0,25.0,-5.0,14.0,21.0,42.0,66.0,245.0,0.0
108.0,110.0,24.0,6.0,-37.0,-6.0,8.0,31.0,48.0,72.0,0.0
104.0,108.0,5.0,4.0,-34.0,-15.0,9.0,29.0,48.0,26.0,0.0
85.0,89.0,-3.0,4.0,-30.0,-11.0,9.0,35.0,47.0,67.0,0.0
60.0,83.0,-6.0,19.0,-21.0,1.0,-1.0,23.0,37.0,101.0,0.0
38.0,41.0,-28.0,14.0,-2.0,22.0,18.0,23.0,40.0,113.0,0.0
20.0,21.0,-43.0,16.0,10.0,43.0,32.0,38.0,48.0,77.0,0.0
8.0,31.0,-34.0,14.0,11.0,45.0,34.0,42.0,46.0,-21.0,0.0
-10.0,30.0,-30.0,13.0,9.0,47.0,44.0,50.0,43.0,-179.0,0.0
-20.0,37.0,-18.0,25.0,-4.0,28.0,42.0,37.0,16.0,-233.0,0.0
-32.0,29.0,31.0,35.0,-9.0,-11.0,25.0,-2.0,-15.0,-232.0,0.0
-55.0,12.0,83.0,47.0,-6.0,-32.0,-13.0,-40.0,-40.0,-219.0,0.0
-66.0,-21.0,83.0,37.0,13.0,-19.0,-21.0,-42.0,-49.0,-192.0,0.0
-52.0,-59.0,64.0,15.0,15.0,7.0,-7.0,-17.0,-29.0,-119.0,0.0
-23.0,-56.0,38.0,-13.0,-33.0,0.0,7.0,0.0,-15.0,-32.0,0.0
-9.0,-29.0,2.0,-25.0,-42.0,-23.0,-1.0,-1.0,-30.0,-32.0,0.0
-14.0,-24.0,-26.0,-26.0,-12.0,-6.0,3.0,-3.0,-33.0,-73.0,0.0
-23.0,-58.0,-37.0,-21.0,11.0,20.0,19.0,2.0,-31.0,-4.0,0.0
-28.0,-102.0,-48.0,-6.0,38.0,49.0,51.0,24.0,11.0,188.0,0.0
-39.0,-130.0,-45.0,2.0,43.0,60.0,65.0,58.0,57.0,248.0,0.0
-44.0,-133.0,-47.0,4.0,42.0,48.0,63.0,42.0,48.0,95.0,0.0
-46.0,-102.0,-26.0,6.0,41.0,41.0,56.0,27.0,20.0,37.0,0.0
-40.0,-87.0,-1.0,6.0,24.0,29.0,49.0,28.0,26.0,30.0,0.0
-27.0,-79.0,-5.0,2.0,10.0,12.0,31.0,25.0,22.0,-21.0,0.0
-16.0,-50.0,22.0,8.0,1.0,6.0,13.0,11.0,3.0,-40.0,0.0
-12.0,-28.0,50.0,6.0,1.0,-8.0,-6.0,4.0,-11.0,-3.0,0.0
-7.0,-13.0,38.0,0.0,-11.0,-21.0,-29.0,3.0,-5.0,66.0,0.0
8.0,19.0,53.0,13.0,-11.0,-23.0,-38.0,13.0,-5.0,119.0,0.0
28.0,25.0,74.0,45.0,14.0,1.0,-20.0,45.0,12.0,106.0,0.0
31.0,64.0,65.0,69.0,35.0,20.0,7.0,67.0,51.0,67.0,0.0
34.0,77.0,46.0,62.0,21.0,4.0,-8.0,49.0,33.0,19.0,0.0
51.0,53.0,28.0,42.0,10.0,6.0,-15.0,37.0,11.0,-8.0,0.0
68.0,30.0,7.0,38.0,21.0,13.0,-10.0,33.0,0.0,-19.0,0.0
82.0,-3.0,11.0,16.0,24.0,14.0,-17.0,27.0,-7.0,-11.0,0.0
110.0,-7.0,-6.0,1.0,3.0,0.0,-18.0,21.0,-21.0,8.0,0.0
117.0,3.0,-4.0,11.0,-3.0,-8.0,0.0,12.0,-16.0,8.0,0.0
80.0,3.0,-17.0,0.0,-6.0,-21.0,-2.0,0.0,-30.0,1.0,0.0
23.0,-14.0,-37.0,-13.0,-15.0,-26.0,-24.0,-18.0,-39.0,-5.0,0.0
-13.0,-41.0,-48.0,-13.0,-19.0,-14.0,-23.0,-21.0,-34.0,-11.0,0.0
-35.0,-45.0,-35.0,-10.0,-26.0,-4.0,-29.0,-18.0,-39.0,4.0,0.0
-66.0,-20.0,-14.0,-3.0,-24.0,-13.0,-33.0,-14.0,-40.0,3.0,0.0
-109.0,6.0,-2.0,-16.0,-36.0,-34.0,-33.0,-12.0,-39.0,-11.0,0.0
-144.0,-9.0,5.0,-18.0,-57.0,-32.0,-28.0,-14.0,-35.0,-15.0,0.0
-148.0,-22.0,35.0,-14.0,-61.0,-31.0,-29.0,-15.0,-27.0,-8.0,0.0
-114.0,-17.0,49.0,-6.0,-71.0,-47.0,-43.0,-25.0,-24.0,7.0,0.0
-77.0,-2.0,45.0,-7.0,-77.0,-52.0,-63.0,-27.0,-21.0,19.0,0.0
-41.0,2.0,19.0,0.0,-55.0,-52.0,-76.0,-27.0,-12.0,10.0,0.0
-30.0,-1.0,15.0,0.0,-7.0,-24.0,-50.0,-21.0,-2.0,-6.0,0.0
-2.0,-11.0,0.0,-9.0,61.0,-11.0,-36.0,-29.0,-30.0,-19.0,0.0
25.0,13.0,8.0,-1.0,70.0,6.0,-11.0,-11.0,-20.0,-22.0,0.0
40.0,64.0,23.0,6.0,75.0,27.0,26.0,22.0,33.0,-11.0,0.0
48.0,94.0,0.0,5.0,74.0,19.0,21.0,24.0,29.0,18.0,0.0
47.0,102.0,-12.0,14.0,45.0,2.0,-8.0,11.0,7.0,20.0,0.0
24.0,85.0,-6.0,14.0,25.0,1.0,-12.0,-9.0,6.0,0.0,0.0
-3.0,35.0,-15.0,4.0,12.0,-3.0,-4.0,-13.0,-5.0,-6.0,0.0
-33.0,-25.0,-33.0,4.0,17.0,-8.0,-1.0,-4.0,4.0,-13.0,0.0
-42.0,-48.0,-46.0,13.0,21.0,-2.0,2.0,13.0,-2.0,-28.0,0.0
-33.0,-56.0,-51.0,22.0,37.0,18.0,11.0,19.0,9.0,-33.0,0.0
-7.0,-83.0,-52.0,21.0,23.0,34.0,40.0,36.0,22.0,-15.0,0.0
20.0,-56.0,-70.0,0.0,-25.0,17.0,46.0,49.0,32.0,-11.0,0.0
26.0,41.0,-78.0,-21.0,-51.0,-14.0,28.0,42.0,12.0,-36.0,0.0
13.0,116.0,-73.0,-41.0,-48.0,-37.0,1.0,13.0,-12.0,-52.0,0.0
9.0,123.0,-38.0,-39.0,-40.0,-43.0,-9.0,-5.0,-14.0,-37.0,0.0
15.0,103.0,-13.0,-39.0,-43.0,-64.0,-19.0,-15.0,-29.0,36.0,0.0
15.0,63.0,-9.0,-41.0,-59.0,-84.0,-33.0,-27.0,-42.0,49.0,0.0
3.0,22.0,-21.0,-47.0,-67.0,-98.0,-44.0,-56.0,-34.0,-13.0,0.0
4.0,-3.0,-26.0,-57.0,-88.0,-121.0,-78.0,-79.0,-58.0,-56.0,0.0
2.0,-32.0,-46.0,-68.0,-86.0,-115.0,-83.0,-80.0,-61.0,-66.0,0.0
-5.0,-42.0,-52.0,-58.0,-42.0,-84.0,-67.0,-57.0,-36.0,-79.0,0.0
-20.0,-44.0,-55.0,-50.0,-11.0,-46.0,-35.0,-35.0,-9.0,-69.0,0.0
-26.0,-54.0,-66.0,-34.0,4.0,-8.0,-21.0,-17.0,19.0,-20.0,0.0
-33.0,-69.0,-51.0,-5.0,29.0,0.0,-16.0,-15.0,13.0,32.0,0.0
-24.0,-67.0,-45.0,16.0,48.0,26.0,24.0,0.0,30.0,59.0,0.0
-117.0,-93.0,35.0,-18.0,13.0,42.0,51.0,-14.0,-33.0,-197.0,0.0
-122.0,-76.0,38.0,-8.0,15.0,36.0,40.0,-14.0,-41.0,-100.0,0.0
-83.0,-54.0,63.0,-3.0,35.0,37.0,46.0,22.0,0.0,99.0,0.0
-27.0,-63.0,84.0,14.0,83.0,54.0,56.0,68.0,35.0,233.0,0.0
4.0,-26.0,85.0,60.0,100.0,91.0,82.0,103.0,99.0,141.0,0.0
-11.0,-5.0,60.0,56.0,67.0,77.0,75.0,80.0,91.0,45.0,0.0
-19.0,-9.0,43.0,39.0,34.0,57.0,77.0,54.0,58.0,-4.0,0.0
-13.0,-15.0,43.0,44.0,30.0,47.0,52.0,44.0,59.0,0.0,0.0
0.0,-18.0,28.0,49.0,42.0,35.0,35.0,35.0,60.0,59.0,0.0
16.0,4.0,19.0,50.0,55.0,34.0,27.0,33.0,60.0,153.0,0.0
29.0,27.0,0.0,52.0,61.0,11.0,11.0,27.0,48.0,160.0,0.0
46.0,54.0,14.0,76.0,59.0,-11.0,2.0,11.0,39.0,66.0,0.0
53.0,60.0,21.0,75.0,64.0,-15.0,0.0,3.0,26.0,2.0,0.0
47.0,56.0,17.0,43.0,56.0,-15.0,-14.0,-5.0,9.0,7.0,0.0
44.0,53.0,25.0,33.0,51.0,-10.0,-16.0,2.0,9.0,21.0,0.0
43.0,47.0,19.0,39.0,43.0,-10.0,7.0,11.0,19.0,29.0,0.0
29.0,50.0,30.0,41.0,31.0,-5.0,23.0,14.0,29.0,24.0,0.0
30.0,69.0,53.0,47.0,41.0,-27.0,3.0,-5.0,25.0,12.0,0.0
27.0,60.0,68.0,67.0,51.0,-41.0,-6.0,-23.0,13.0,2.0,0.0
20.0,58.0,70.0,64.0,55.0,-56.0,-24.0,-31.0,17.0,-7.0,0.0
6.0,73.0,42.0,31.0,29.0,-62.0,-20.0,-19.0,24.0,0.0,0.0
-1.0,71.0,6.0,-24.0,-2.0,-43.0,-4.0,-10.0,27.0,11.0,0.0
-18.0,6.0,-48.0,-77.0,-23.0,-10.0,30.0,8.0,33.0,8.0,0.0
-37.0,-90.0,-85.0,-92.0,-38.0,13.0,60.0,23.0,41.0,-9.0,0.0
-44.0,-135.0,-116.0,-99.0,-40.0,20.0,71.0,21.0,35.0,-17.0,0.0
-42.0,-126.0,-137.0,-101.0,-40.0,10.0,49.0,8.0,19.0,-15.0,0.0
-24.0,-101.0,-145.0,-99.0,-58.0,11.0,37.0,0.0,-3.0,-37.0,0.0
-36.0,-74.0,-125.0,-54.0,-47.0,22.0,40.0,-16.0,-25.0,-45.0,0.0
-31.0,-51.0,-71.0,15.0,-19.0,30.0,32.0,-18.0,-15.0,-43.0,0.0
-27.0,-23.0,-16.0,28.0,0.0,11.0,8.0,-24.0,-12.0,-50.0,0.0
-36.0,-14.0,5.0,13.0,-10.0,0.0,-11.0,-38.0,-23.0,-59.0,0.0
-48.0,-23.0,23.0,12.0,-4.0,3.0,-7.0,-46.0,-17.0,-71.0,0.0
-53.0,-28.0,20.0,15.0,5.0,0.0,13.0,-43.0,-13.0,-86.0,0.0
-46.0,-39.0,-5.0,2.0,-6.0,-2.0,9.0,-30.0,-26.0,-117.0,0.0
-25.0,-39.0,-19.0,-4.0,-24.0,-9.0,-1.0,-23.0,-34.0,-172.0,0.0
-23.0,-40.0,-21.0,-21.0,-19.0,-19.0,-18.0,-30.0,-48.0,-234.0,0.0
-37.0,-31.0,-23.0,-43.0,-35.0,-41.0,-45.0,-43.0,-73.0,-264.0,0.0
-25.0,0.0,-2.0,-43.0,-44.0,-48.0,-53.0,-48.0,-82.0,-208.0,0.0
18.0,24.0,28.0,-34.0,-36.0,-34.0,-40.0,-40.0,-43.0,-7.0,0.0
40.0,10.0,28.0,-33.0,-20.0,-33.0,-25.0,-28.0,-13.0,76.0,0.0
9.0,8.0,26.0,-37.0,-21.0,-23.0,-38.0,-29.0,-29.0,5.0,0.0
-2.0,22.0,34.0,-27.0,-27.0,-5.0,-31.0,-32.0,-24.0,27.0,0.0
8.0,18.0,0.0,-45.0,-32.0,-16.0,-18.0,-25.0,8.0,120.0,0.0
13.0,20.0,-35.0,-30.0,-16.0,0.0,1.0,7.0,61.0,279.0,0.0
34.0,40.0,-16.0,32.0,24.0,36.0,36.0,52.0,104.0,306.0,0.0
27.0,46.0,-2.0,36.0,31.0,39.0,31.0,50.0,76.0,155.0,0.0
5.0,44.0,-10.0,8.0,33.0,20.0,11.0,26.0,24.0,33.0,0.0
3.0,48.0,-22.0,-1.0,12.0,6.0,-4.0,25.0,7.0,-8.0,0.0
14.0,28.0,-35.0,-10.0,-5.0,5.0,-14.0,12.0,-4.0,-12.0,0.0
22.0,0.0,-18.0,-41.0,-11.0,-3.0,-15.0,1.0,-13.0,-23.0,0.0
31.0,-15.0,-3.0,-46.0,-21.0,-14.0,-11.0,0.0,-1.0,-20.0,0.0
48.0,-26.0,2.0,-24.0,-18.0,-24.0,-18.0,-3.0,-20.0,32.0,0.0
75.0,-7.0,12.0,-2.0,-5.0,-15.0,-13.0,16.0,0.0,91.0,0.0
73.0,19.0,2.0,3.0,24.0,7.0,-10.0,35.0,19.0,96.0,0.0
45.0,29.0,-9.0,4.0,15.0,10.0,-3.0,27.0,4.0,38.0,0.0
20.0,28.0,-6.0,-5.0,-11.0,1.0,-12.0,10.0,-17.0,-40.0,0.0
-7.0,6.0,1.0,-22.0,-9.0,2.0,-28.0,3.0,-5.0,-85.0,0.0
-24.0,13.0,-7.0,-41.0,6.0,2.0,-36.0,-3.0,-6.0,-107.0,0.0
-22.0,32.0,-15.0,-37.0,-31.0,-16.0,-70.0,-37.0,-64.0,-143.0,0.0
-10.0,34.0,-7.0,-34.0,-84.0,-53.0,-96.0,-62.0,-90.0,-123.0,0.0
-17.0,32.0,-7.0,-25.0,-88.0,-85.0,-103.0,-94.0,-112.0,-103.0,0.0
-15.0,14.0,14.0,-9.0,-76.0,-104.0,-115.0,-117.0,-126.0,-60.0,0.0
11.0,8.0,9.0,-3.0,-43.0,-98.0,-112.0,-109.0,-108.0,37.0,0.0
11.0,-3.0,-11.0,6.0,-28.0,-73.0,-100.0,-82.0,-97.0,155.0,0.0
-5.0,-7.0,-14.0,4.0,-22.0,-41.0,-70.0,-50.0,-81.0,212.0,0.0
-4.0,-26.0,3.0,4.0,6.0,3.0,-10.0,-17.0,-46.0,48.0,0.0
2.0,-53.0,1.0,-4.0,-1.0,23.0,20.0,12.0,-29.0,-12.0,0.0
12.0,-26.0,-17.0,-6.0,-14.0,17.0,19.0,31.0,-3.0,72.0,0.0
33.0,60.0,0.0,12.0,5.0,44.0,38.0,56.0,36.0,98.0,0.0
26.0,127.0,0.0,26.0,30.0,92.0,79.0,101.0,76.0,16.0,0.0
-19.0,142.0,-13.0,24.0,44.0,108.0,108.0,139.0,80.0,-173.0,0.0
-47.0,92.0,-42.0,7.0,39.0,105.0,109.0,127.0,54.0,-293.0,0.0
-53.0,16.0,-63.0,-12.0,27.0,87.0,76.0,96.0,12.0,-254.0,0.0
-55.0,-63.0,-88.0,-61.0,-3.0,52.0,35.0,62.0,0.0,-133.0,0.0
-51.0,-85.0,-70.0,-78.0,-8.0,17.0,-3.0,35.0,-11.0,-22.0,0.0
-37.0,-59.0,-32.0,-14.0,2.0,1.0,-14.0,11.0,-26.0,18.0,0.0
-16.0,-39.0,16.0,42.0,8.0,-10.0,-35.0,17.0,-34.0,43.0,0.0
31.0,-4.0,58.0,50.0,8.0,25.0,-17.0,43.0,15.0,102.0,0.0
57.0,12.0,51.0,35.0,11.0,31.0,-3.0,33.0,26.0,115.0,0.0
65.0,30.0,35.0,11.0,-17.0,21.0,1.0,18.0,22.0,79.0,0.0
55.0,38.0,25.0,-6.0,-43.0,11.0,-16.0,11.0,2.0,40.0,0.0
45.0,28.0,52.0,-2.0,-32.0,13.0,-15.0,1.0,-3.0,31.0,0.0
42.0,12.0,61.0,5.0,-11.0,14.0,-4.0,-2.0,0.0,56.0,0.0
44.0,-6.0,54.0,0.0,4.0,20.0,-3.0,8.0,20.0,97.0,0.0
52.0,-5.0,43.0,-6.0,2.0,7.0,-6.0,22.0,32.0,111.0,0.0
57.0,-12.0,25.0,-12.0,-20.0,5.0,-6.0,27.0,27.0,49.0,0.0
60.0,-17.0,8.0,-7.0,-23.0,22.0,-3.0,27.0,36.0,-8.0,0.0
54.0,-20.0,8.0,1.0,-20.0,31.0,10.0,40.0,46.0,2.0,0.0
36.0,-15.0,20.0,11.0,25.0,51.0,19.0,42.0,43.0,10.0,0.0
12.0,-28.0,21.0,9.0,73.0,59.0,20.0,24.0,23.0,14.0,0.0
-8.0,-34.0,8.0,18.0,30.0,32.0,13.0,3.0,16.0,22.0,0.0
-23.0,-27.0,2.0,34.0,4.0,15.0,5.0,11.0,27.0,31.0,0.0
-34.0,-17.0,5.0,35.0,12.0,25.0,10.0,28.0,26.0,31.0,0.0
-55.0,-9.0,11.0,28.0,12.0,25.0,0.0,38.0,0.0,31.0,0.0
-63.0,2.0,-3.0,0.0,13.0,36.0,1.0,44.0,8.0,38.0,0.0
-64.0,8.0,-44.0,-8.0,33.0,41.0,15.0,40.0,22.0,19.0,0.0
-48.0,-2.0,-44.0,-11.0,32.0,49.0,22.0,29.0,11.0,11.0,0.0
-36.0,-27.0,-29.0,-17.0,11.0,43.0,29.0,34.0,4.0,19.0,0.0
-41.0,-50.0,-5.0,-15.0,4.0,41.0,9.0,34.0,9.0,5.0,0.0
-41.0,-59.0,4.0,-18.0,-16.0,35.0,2.0,14.0,13.0,-12.0,0.0
-30.0,-34.0,5.0,-17.0,-30.0,8.0,-8.0,-1.0,-4.0,-28.0,0.0
-17.0,-22.0,-6.0,-2.0,-28.0,-5.0,-3.0,-4.0,-20.0,-47.0,0.0
-3.0,2.0,3.0,23.0,-11.0,4.0,-14.0,-9.0,-19.0,-49.0,0.0
-8.0,13.0,31.0,26.0,48.0,24.0,-18.0,-9.0,-16.0,-38.0,0.0
-8.0,3.0,37.0,21.0,36.0,7.0,-20.0,-20.0,-20.0,-32.0,0.0
-7.0,-5.0,32.0,25.0,12.0,-4.0,-8.0,-15.0,-7.0,-20.0,0.0
0.0,-25.0,36.0,22.0,-2.0,-28.0,-29.0,-19.0,-24.0,-7.0,0.0
17.0,-19.0,35.0,21.0,-28.0,-50.0,-48.0,-29.0,-31.0,-23.0,0.0
20.0,-5.0,12.0,16.0,-43.0,-47.0,-33.0,-35.0,-9.0,-16.0,0.0
11.0,-4.0,-7.0,14.0,-27.0,-41.0,-16.0,-31.0,2.0,-21.0,0.0
-3.0,-12.0,-17.0,23.0,-8.0,-20.0,-12.0,-10.0,22.0,-46.0,0.0
-13.0,-12.0,-33.0,20.0,16.0,-10.0,-8.0,-7.0,24.0,-64.0,0.0
-19.0,-18.0,-41.0,13.0,24.0,-3.0,-6.0,-3.0,10.0,-29.0,0.0
0.0,-20.0,-48.0,21.0,22.0,11.0,11.0,0.0,9.0,38.0,0.0
28.0,-13.0,-37.0,14.0,15.0,0.0,14.0,-10.0,10.0,42.0,0.0
22.0,-3.0,-23.0,0.0,-8.0,-29.0,-15.0,-36.0,0.0,1.0,0.0
15.0,-9.0,-5.0,-1.0,-17.0,-41.0,-26.0,-38.0,-4.0,8.0,0.0
42.0,-6.0,3.0,10.0,-2.0,-18.0,-12.0,-15.0,18.0,95.0,0.0
52.0,-2.0,4.0,25.0,12.0,-5.0,26.0,9.0,35.0,150.0,0.0
34.0,3.0,18.0,27.0,20.0,0.0,34.0,10.0,39.0,91.0,0.0
11.0,13.0,32.0,28.0,7.0,-8.0,11.0,-12.0,20.0,36.0,0.0
1.0,2.0,0.0,11.0,-8.0,-18.0,3.0,-21.0,-6.0,-11.0,0.0
-10.0,-11.0,-24.0,0.0,-3.0,-23.0,5.0,-36.0,-24.0,-22.0,0.0
-18.0,-18.0,-17.0,-6.0,2.0,-36.0,-11.0,-32.0,-20.0,-5.0,0.0
-6.0,-3.0,-21.0,3.0,8.0,-40.0,-27.0,-26.0,-10.0,35.0,0.0
22.0,29.0,-13.0,10.0,5.0,-49.0,-32.0,-22.0,-32.0,65.0,0.0
48.0,61.0,5.0,10.0,-2.0,-36.0,-17.0,-24.0,-11.0,81.0,0.0
62.0,73.0,22.0,10.0,-3.0,-28.0,-11.0,-15.0,16.0,92.0,0.0
58.0,58.0,36.0,13.0,-10.0,-29.0,-11.0,-13.0,9.0,85.0,0.0
51.0,29.0,29.0,16.0,-6.0,-18.0,-8.0,4.0,-9.0,34.0,0.0
45.0,25.0,23.0,14.0,4.0,10.0,24.0,22.0,0.0,-39.0,0.0
18.0,25.0,15.0,23.0,15.0,36.0,70.0,45.0,29.0,-138.0,0.0
-11.0,17.0,11.0,26.0,3.0,23.0,76.0,55.0,29.0,-163.0,0.0
-34.0,10.0,20.0,8.0,2.0,8.0,59.0,27.0,18.0,-129.0,0.0
-62.0,4.0,30.0,17.0,0.0,-14.0,38.0,22.0,19.0,-109.0,0.0
-94.0,-1.0,13.0,4.0,-8.0,-8.0,26.0,17.0,5.0,-109.0,0.0
-92.0,-23.0,-3.0,-4.0,-13.0,-12.0,2.0,7.0,-14.0,-76.0,0.0
-79.0,-41.0,-17.0,3.0,-15.0,-3.0,-7.0,-9.0,-40.0,-56.0,0.0
-51.0,-48.0,-8.0,0.0,-14.0,0.0,-18.0,-32.0,-57.0,-36.0,0.0
-15.0,-43.0,-6.0,2.0,-19.0,-13.0,-14.0,-46.0,-53.0,33.0,0.0
6.0,-32.0,-14.0,24.0,-11.0,-14.0,-4.0,-24.0,-44.0,75.0,0.0
22.0,-9.0,1.0,52.0,18.0,-3.0,7.0,-10.0,-20.0,1.0,0.0
15.0,5.0,13.0,45.0,11.0,-8.0,9.0,-5.0,-5.0,-145.0,0.0
-15.0,-5.0,9.0,35.0,0.0,-11.0,-7.0,-1.0,-13.0,-185.0,0.0
-55.0,-45.0,-4.0,31.0,0.0,-6.0,-5.0,11.0,5.0,-196.0,0.0
-63.0,-45.0,-6.0,26.0,12.0,12.0,16.0,35.0,29.0,-160.0,0.0
-22.0,36.0,6.0,32.0,27.0,30.0,38.0,60.0,45.0,-2.0,0.0
-9.0,129.0,7.0,22.0,10.0,17.0,22.0,40.0,28.0,-48.0,0.0
-20.0,144.0,-8.0,4.0,-9.0,9.0,17.0,23.0,16.0,-105.0,0.0
-11.0,115.0,-44.0,-27.0,-25.0,1.0,17.0,4.0,36.0,-62.0,0.0
44.0,129.0,-67.0,-49.0,-19.0,-13.0,11.0,-6.0,51.0,-12.0,0.0
78.0,124.0,-72.0,-49.0,-10.0,-18.0,0.0,-12.0,35.0,82.0,0.0
42.0,64.0,-50.0,-38.0,17.0,8.0,1.0,10.0,31.0,138.0,0.0
37.0,12.0,-15.0,-20.0,23.0,48.0,25.0,35.0,52.0,266.0,0.0
74.0,0.0,8.0,1.0,17.0,61.0,56.0,53.0,79.0,371.0,0.0
86.0,0.0,25.0,-7.0,-5.0,35.0,32.0,41.0,51.0,295.0,0.0
75.0,-5.0,18.0,-15.0,-13.0,9.0,10.0,29.0,24.0,190.0,0.0
61.0,0.0,31.0,0.0,12.0,9.0,8.0,18.0,10.0,114.0,0.0
50.0,18.0,69.0,12.0,41.0,-1.0,-6.0,0.0,-1.0,66.0,0.0
39.0,39.0,60.0,13.0,39.0,-3.0,-16.0,-5.0,-10.0,54.0,0.0
25.0,28.0,58.0,16.0,10.0,-14.0,-26.0,-17.0,-9.0,56.0,0.0
18.0,15.0,55.0,25.0,8.0,-28.0,-22.0,-16.0,-4.0,40.0,0.0
0.0,-16.0,31.0,23.0,11.0,-13.0,-25.0,-17.0,1.0,12.0,0.0
-23.0,-51.0,39.0,13.0,38.0,6.0,-18.0,-13.0,-15.0,-13.0,0.0
-31.0,-73.0,32.0,9.0,45.0,50.0,5.0,-6.0,-10.0,-50.0,0.0
-45.0,-92.0,27.0,-3.0,14.0,78.0,31.0,-4.0,0.0,-87.0,0.0
-65.0,-100.0,18.0,-10.0,-21.0,70.0,28.0,-11.0,-14.0,-122.0,0.0
-85.0,-115.0,6.0,-6.0,-23.0,48.0,15.0,-38.0,-42.0,-148.0,0.0
-97.0,-131.0,0.0,2.0,-4.0,24.0,-2.0,-46.0,-54.0,-190.0,0.0
-73.0,-133.0,-16.0,8.0,8.0,36.0,-8.0,-34.0,-36.0,-213.0,0.0
-51.0,-113.0,-33.0,21.0,25.0,43.0,1.0,-1.0,-24.0,-192.0,0.0
-34.0,-87.0,-37.0,19.0,32.0,46.0,2.0,7.0,-11.0,-102.0,0.0
-21.0,-48.0,-36.0,-4.0,19.0,40.0,4.0,6.0,17.0,68.0,0.0
11.0,-2.0,-26.0,-11.0,21.0,36.0,15.0,17.0,47.0,166.0,0.0
47.0,35.0,-14.0,5.0,16.0,37.0,16.0,19.0,57.0,116.0,0.0
31.0,14.0,-11.0,23.0,15.0,33.0,3.0,19.0,44.0,107.0,0.0
6.0,-24.0,-24.0,19.0,8.0,35.0,-1.0,16.0,24.0,135.0,0.0
-5.0,-48.0,-39.0,-2.0,4.0,27.0,6.0,10.0,11.0,226.0,0.0
13.0,-32.0,-27.0,6.0,30.0,46.0,22.0,23.0,19.0,320.0,0.0
51.0,7.0,24.0,43.0,48.0,66.0,28.0,40.0,33.0,219.0,0.0
58.0,14.0,46.0,45.0,47.0,52.0,11.0,26.0,11.0,55.0,0.0
46.0,10.0,22.0,28.0,36.0,32.0,-9.0,1.0,1.0,16.0,0.0
46.0,23.0,12.0,22.0,9.0,7.0,-13.0,4.0,2.0,24.0,0.0
40.0,19.0,24.0,19.0,-18.0,-8.0,-6.0,2.0,1.0,13.0,0.0
30.0,7.0,25.0,20.0,-33.0,6.0,2.0,-4.0,-14.0,5.0,0.0
17.0,10.0,30.0,22.0,-49.0,-3.0,6.0,-5.0,-18.0,-12.0,0.0
18.0,25.0,45.0,14.0,-57.0,-10.0,2.0,-5.0,-12.0,-11.0,0.0
13.0,43.0,61.0,16.0,-24.0,-2.0,3.0,-2.0,-19.0,-9.0,0.0
-5.0,40.0,54.0,26.0,53.0,13.0,5.0,2.0,-23.0,-23.0,0.0
-4.0,17.0,36.0,47.0,66.0,0.0,-15.0,-2.0,-36.0,-49.0,0.0
-5.0,2.0,0.0,14.0,-2.0,-21.0,-22.0,5.0,-29.0,-47.0,0.0
-1.0,17.0,-12.0,-18.0,-26.0,-36.0,-5.0,5.0,-23.0,-44.0,0.0
4.0,30.0,-7.0,-43.0,-26.0,-42.0,5.0,-6.0,-17.0,-37.0,0.0
9.0,20.0,24.0,-43.0,-25.0,-40.0,-2.0,-17.0,-14.0,-29.0,0.0
11.0,-6.0,25.0,-35.0,-22.0,-24.0,-1.0,-18.0,0.0,-16.0,0.0
11.0,-25.0,4.0,-39.0,-1.0,-2.0,-3.0,-17.0,9.0,-15.0,0.0
2.0,-24.0,-8.0,-42.0,0.0,-8.0,-5.0,-24.0,5.0,-20.0,0.0
-13.0,-43.0,-11.0,-45.0,-25.0,-21.0,-19.0,-25.0,-1.0,-16.0,0.0
-28.0,-77.0,-31.0,-22.0,-18.0,-2.0,-19.0,-4.0,-1.0,-10.0,0.0
-19.0,-66.0,-44.0,2.0,-8.0,26.0,11.0,19.0,10.0,0.0,0.0
-38.0,-53.0,-41.0,-26.0,-30.0,43.0,48.0,40.0,27.0,1.0,0.0
-69.0,-60.0,-46.0,-47.0,-48.0,20.0,49.0,46.0,32.0,-24.0,0.0
-61.0,-50.0,-72.0,-64.0,-54.0,0.0,23.0,23.0,8.0,-40.0,0.0
-38.0,-41.0,-80.0,-77.0,-47.0,-12.0,-6.0,-25.0,-21.0,-51.0,0.0
-29.0,-35.0,-63.0,-81.0,-50.0,-21.0,-30.0,-52.0,-57.0,-64.0,0.0
-27.0,-36.0,-56.0,-65.0,-62.0,-43.0,-46.0,-65.0,-85.0,-70.0,0.0
-22.0,-20.0,-47.0,-47.0,-64.0,-37.0,-40.0,-67.0,-72.0,-61.0,0.0
-11.0,3.0,-29.0,-41.0,-62.0,-40.0,-26.0,-69.0,-58.0,-31.0,0.0
18.0,29.0,-7.0,-28.0,-31.0,-35.0,-18.0,-38.0,-21.0,6.0,0.0
39.0,75.0,20.0,34.0,-7.0,-6.0,-4.0,-11.0,9.0,-25.0,0.0
39.0,108.0,42.0,98.0,16.0,15.0,22.0,33.0,49.0,-43.0,0.0
28.0,97.0,31.0,99.0,18.0,22.0,31.0,40.0,54.0,0.0,0.0
22.0,70.0,22.0,51.0,0.0,6.0,17.0,23.0,27.0,11.0,0.0
7.0,46.0,43.0,42.0,2.0,10.0,17.0,10.0,12.0,-59.0,0.0
-3.0,39.0,45.0,46.0,6.0,12.0,12.0,15.0,15.0,-71.0,0.0
-9.0,43.0,47.0,41.0,6.0,1.0,10.0,17.0,14.0,-29.0,0.0
-30.0,25.0,45.0,37.0,12.0,23.0,8.0,13.0,2.0,-12.0,0.0
-36.0,-21.0,36.0,36.0,8.0,36.0,15.0,15.0,3.0,-22.0,0.0
-8.0,-39.0,23.0,12.0,4.0,38.0,8.0,13.0,0.0,-29.0,0.0
34.0,-44.0,26.0,8.0,12.0,50.0,10.0,15.0,-16.0,-8.0,0.0
57.0,-45.0,35.0,18.0,14.0,34.0,20.0,30.0,-9.0,43.0,0.0
70.0,-2.0,30.0,15.0,7.0,32.0,15.0,33.0,-10.0,71.0,0.0
60.0,72.0,38.0,7.0,-2.0,14.0,26.0,33.0,-7.0,51.0,0.0
43.0,99.0,20.0,-1.0,-8.0,-9.0,19.0,27.0,-1.0,-3.0,0.0
20.0,69.0,17.0,-16.0,-23.0,-12.0,-9.0,-7.0,-16.0,-6.0,0.0
-16.0,25.0,7.0,-33.0,-22.0,-23.0,-35.0,-23.0,-27.0,-4.0,0.0
-71.0,-30.0,8.0,-19.0,-12.0,-23.0,-48.0,-24.0,-31.0,-9.0,0.0
-100.0,-66.0,0.0,-4.0,-4.0,-15.0,-33.0,-15.0,-24.0,-15.0,0.0
-88.0,-79.0,-16.0,-19.0,-1.0,-5.0,-20.0,-19.0,-12.0,-11.0,0.0
-41.0,-64.0,-12.0,-22.0,-2.0,-2.0,-20.0,-25.0,-11.0,1.0,0.0
-14.0,-61.0,-1.0,-17.0,0.0,-11.0,-25.0,-26.0,-9.0,7.0,0.0
3.0,-50.0,6.0,-3.0,10.0,-4.0,-23.0,-17.0,-1.0,9.0,0.0
7.0,-20.0,27.0,26.0,17.0,-1.0,-20.0,-5.0,-4.0,-2.0,0.0
5.0,1.0,22.0,35.0,15.0,-15.0,-15.0,-9.0,-16.0,-29.0,0.0
4.0,-4.0,-2.0,25.0,15.0,-17.0,0.0,-14.0,-23.0,-59.0,0.0
4.0,-4.0,-22.0,21.0,11.0,-19.0,-10.0,-23.0,-22.0,-77.0,0.0
11.0,8.0,-31.0,-12.0,2.0,-31.0,-28.0,-30.0,-25.0,-89.0,0.0
16.0,34.0,-37.0,-47.0,0.0,-39.0,-40.0,-42.0,-42.0,-112.0,0.0
7.0,55.0,-29.0,-58.0,-5.0,-23.0,-28.0,-38.0,-52.0,-152.0,0.0
0.0,73.0,-32.0,-77.0,-9.0,-26.0,-16.0,-27.0,-43.0,-208.0,0.0
1.0,77.0,-27.0,-88.0,-41.0,-47.0,-15.0,-26.0,-26.0,-214.0,0.0
14.0,64.0,5.0,-83.0,-42.0,-56.0,-10.0,-21.0,-4.0,-77.0,0.0
60.0,64.0,28.0,-61.0,-15.0,-27.0,13.0,17.0,35.0,210.0,0.0
69.0,52.0,36.0,-20.0,9.0,-8.0,31.0,31.0,59.0,294.0,0.0
69.0,51.0,58.0,16.0,37.0,-3.0,29.0,31.0,66.0,286.0,0.0
46.0,45.0,72.0,25.0,28.0,0.0,18.0,18.0,55.0,225.0,0.0
6.0,6.0,79.0,18.0,8.0,-17.0,0.0,-2.0,22.0,121.0,0.0
-11.0,-19.0,67.0,2.0,-12.0,-37.0,-20.0,0.0,-5.0,71.0,0.0
21.0,-4.0,43.0,-12.0,-20.0,-36.0,-6.0,1.0,3.0,48.0,0.0
49.0,20.0,20.0,-3.0,-21.0,-35.0,3.0,3.0,23.0,8.0,0.0
56.0,20.0,-8.0,-6.0,-17.0,-27.0,9.0,10.0,41.0,-20.0,0.0
43.0,12.0,-11.0,-13.0,-11.0,-22.0,5.0,4.0,39.0,-48.0,0.0
28.0,24.0,-14.0,-11.0,0.0,-19.0,-9.0,-1.0,21.0,-77.0,0.0
16.0,15.0,-7.0,-5.0,2.0,-9.0,-14.0,4.0,24.0,-77.0,0.0
18.0,10.0,0.0,0.0,-5.0,-12.0,-12.0,-1.0,12.0,-66.0,0.0
48.0,26.0,18.0,2.0,-12.0,-35.0,-28.0,-11.0,-10.0,-51.0,0.0
73.0,32.0,0.0,-3.0,-21.0,-51.0,-58.0,-28.0,-21.0,-16.0,0.0
92.0,24.0,-11.0,-4.0,-10.0,-51.0,-49.0,-33.0,1.0,46.0,0.0
89.0,23.0,4.0,4.0,29.0,-7.0,-21.0,-4.0,13.0,89.0,0.0
73.0,17.0,13.0,9.0,56.0,23.0,8.0,31.0,13.0,54.0,0.0
33.0,-31.0,3.0,-6.0,40.0,16.0,-10.0,16.0,-13.0,-1.0,0.0
16.0,-41.0,-5.0,-9.0,39.0,9.0,2.0,6.0,-1.0,-4.0,0.0
-8.0,-55.0,-24.0,-25.0,25.0,26.0,34.0,29.0,31.0,36.0,0.0
-50.0,-66.0,-49.0,-24.0,-6.0,43.0,76.0,80.0,87.0,69.0,0.0
-109.0,-72.0,-46.0,-18.0,-23.0,32.0,84.0,81.0,73.0,52.0,0.0
-134.0,-76.0,-28.0,7.0,0.0,33.0,68.0,50.0,52.0,22.0,0.0
-105.0,-71.0,-9.0,20.0,26.0,17.0,42.0,23.0,34.0,-6.0,0.0
-71.0,-54.0,9.0,15.0,32.0,5.0,20.0,7.0,11.0,-23.0,0.0
-50.0,-43.0,4.0,30.0,32.0,9.0,13.0,1.0,-6.0,-42.0,0.0
-48.0,-17.0,-4.0,24.0,19.0,10.0,10.0,-6.0,-9.0,-40.0,0.0
-34.0,-2.0,-12.0,13.0,3.0,13.0,23.0,-9.0,-12.0,-41.0,0.0
-21.0,6.0,-9.0,14.0,-20.0,28.0,32.0,4.0,-3.0,-46.0,0.0
-27.0,34.0,-8.0,-1.0,-25.0,19.0,32.0,18.0,-6.0,-45.0,0.0
-19.0,74.0,-1.0,-10.0,-18.0,11.0,22.0,17.0,-11.0,-33.0,0.0
4.0,78.0,-7.0,-9.0,6.0,0.0,24.0,12.0,-12.0,-17.0,0.0
18.0,52.0,-11.0,-8.0,33.0,8.0,31.0,7.0,-8.0,-6.0,0.0
29.0,22.0,-8.0,-2.0,11.0,7.0,34.0,14.0,-12.0,33.0,0.0
33.0,16.0,14.0,-2.0,-11.0,-7.0,18.0,12.0,-29.0,50.0,0.0
30.0,27.0,24.0,1.0,1.0,-9.0,4.0,-1.0,-34.0,29.0,0.0
29.0,39.0,30.0,-2.0,0.0,-21.0,-11.0,-14.0,-36.0,9.0,0.0
16.0,54.0,43.0,-11.0,1.0,-32.0,-38.0,-18.0,-29.0,-3.0,0.0
19.0,55.0,41.0,-8.0,9.0,-39.0,-48.0,-22.0,-31.0,0.0,0.0
28.0,45.0,38.0,-5.0,13.0,-39.0,-37.0,-27.0,-37.0,-17.0,0.0
24.0,62.0,48.0,-1.0,22.0,-38.0,-34.0,-37.0,-42.0,-44.0,0.0
19.0,57.0,48.0,9.0,22.0,-51.0,-55.0,-57.0,-71.0,-61.0,0.0
30.0,32.0,39.0,17.0,18.0,-53.0,-42.0,-53.0,-60.0,-52.0,0.0
45.0,21.0,3.0,6.0,0.0,-17.0,-14.0,-21.0,-13.0,-33.0,0.0
37.0,12.0,-31.0,-14.0,-11.0,-14.0,5.0,4.0,3.0,-29.0,0.0
17.0,-16.0,-63.0,-36.0,-10.0,-8.0,16.0,8.0,14.0,-16.0,0.0
11.0,-46.0,-85.0,-52.0,-18.0,-5.0,6.0,11.0,8.0,-22.0,0.0
-5.0,-40.0,-92.0,-54.0,-19.0,-20.0,9.0,3.0,-8.0,-8.0,0.0
-19.0,-31.0,-79.0,-48.0,-34.0,-13.0,18.0,-2.0,-14.0,0.0,0.0
-17.0,-35.0,-66.0,-31.0,-52.0,-7.0,24.0,8.0,3.0,22.0,0.0
-11.0,-28.0,-42.0,-15.0,-53.0,0.0,28.0,28.0,25.0,73.0,0.0
-7.0,-25.0,-47.0,-23.0,-66.0,-6.0,26.0,36.0,19.0,91.0,0.0
-2.0,-35.0,-69.0,-24.0,-78.0,-9.0,8.0,6.0,4.0,89.0,0.0
-9.0,-8.0,-55.0,-6.0,-67.0,-13.0,-11.0,-8.0,-15.0,56.0,0.0
-36.0,20.0,-5.0,-6.0,-22.0,-19.0,-42.0,-17.0,-44.0,5.0,0.0
-68.0,20.0,20.0,-23.0,71.0,-5.0,-40.0,-26.0,-43.0,-42.0,0.0
-76.0,5.0,26.0,-37.0,85.0,19.0,-3.0,0.0,-19.0,-46.0,0.0
-77.0,-13.0,1.0,-47.0,29.0,25.0,23.0,23.0,-13.0,0.0,0.0
-75.0,-38.0,-10.0,-61.0,0.0,20.0,8.0,4.0,-21.0,-16.0,0.0
-61.0,-54.0,-41.0,-81.0,-1.0,19.0,-9.0,-11.0,-38.0,-33.0,0.0
-49.0,-66.0,-84.0,-98.0,31.0,29.0,6.0,0.0,-30.0,-15.0,0.0
-36.0,-83.0,-79.0,-82.0,66.0,47.0,22.0,1.0,-17.0,21.0,0.0
-28.0,-80.0,-32.0,-47.0,66.0,42.0,20.0,-8.0,-14.0,37.0,0.0
-30.0,-5.0,18.0,-6.0,58.0,36.0,15.0,-11.0,0.0,-27.0,0.0
-57.0,104.0,62.0,8.0,28.0,27.0,11.0,-7.0,-8.0,-124.0,0.0
-65.0,155.0,79.0,0.0,-21.0,2.0,-3.0,-34.0,-39.0,-143.0,0.0
-55.0,113.0,84.0,17.0,-36.0,-16.0,-26.0,-53.0,-48.0,-119.0,0.0
-52.0,56.0,77.0,56.0,-23.0,-4.0,-8.0,-26.0,-19.0,-132.0,0.0
-54.0,-12.0,55.0,62.0,-15.0,13.0,14.0,-5.0,12.0,-204.0,0.0
-68.0,-65.0,27.0,38.0,-36.0,-7.0,0.0,-14.0,-3.0,-244.0,0.0
-77.0,-62.0,15.0,21.0,-56.0,-23.0,-26.0,-35.0,-13.0,-251.0,0.0
-92.0,-65.0,20.0,27.0,-43.0,-20.0,-51.0,-61.0,-31.0,-187.0,0.0
-80.0,-60.0,35.0,40.0,-12.0,-12.0,-28.0,-49.0,-17.0,-26.0,0.0
-22.0,-34.0,25.0,60.0,-7.0,0.0,1.0,-4.0,6.0,58.0,0.0
47.0,7.0,47.0,71.0,8.0,19.0,15.0,47.0,64.0,260.0,0.0
119.0,41.0,64.0,66.0,19.0,39.0,35.0,88.0,110.0,474.0,0.0
131.0,46.0,47.0,40.0,19.0,39.0,42.0,80.0,96.0,324.0,0.0
98.0,28.0,7.0,12.0,-3.0,10.0,18.0,29.0,52.0,155.0,0.0
56.0,17.0,-29.0,8.0,-14.0,-5.0,-1.0,-11.0,18.0,76.0,0.0
29.0,19.0,-50.0,35.0,-2.0,-16.0,-10.0,-12.0,0.0,44.0,0.0
33.0,48.0,-51.0,49.0,16.0,6.0,0.0,-10.0,-1.0,32.0,0.0
47.0,89.0,-40.0,51.0,31.0,27.0,-2.0,1.0,-10.0,18.0,0.0
50.0,93.0,-42.0,44.0,39.0,36.0,7.0,2.0,-1.0,2.0,0.0
37.0,87.0,-47.0,40.0,34.0,47.0,20.0,-2.0,3.0,-2.0,0.0
21.0,48.0,-35.0,39.0,29.0,49.0,11.0,-9.0,9.0,-31.0,0.0
0.0,-11.0,-6.0,32.0,21.0,46.0,3.0,-14.0,-7.0,-90.0,0.0
-24.0,-37.0,-23.0,22.0,27.0,27.0,-19.0,-16.0,-2.0,-126.0,0.0
-56.0,-29.0,1.0,4.0,22.0,-4.0,-39.0,-28.0,-14.0,-144.0,0.0
-88.0,-56.0,20.0,-29.0,-12.0,-17.0,-38.0,-51.0,-37.0,-180.0,0.0
-94.0,-83.0,44.0,-43.0,-17.0,-24.0,-40.0,-70.0,-56.0,-190.0,0.0
-84.0,-84.0,44.0,-41.0,-7.0,-11.0,-30.0,-58.0,-33.0,-106.0,0.0
-58.0,-74.0,26.0,-44.0,-8.0,10.0,-27.0,-38.0,-13.0,39.0,0.0
-27.0,-22.0,43.0,-30.0,-2.0,30.0,-7.0,-5.0,33.0,188.0,0.0
0.0,24.0,51.0,24.0,2.0,13.0,-4.0,2.0,53.0,289.0,0.0
40.0,56.0,58.0,63.0,-2.0,9.0,7.0,11.0,55.0,271.0,0.0
90.0,75.0,56.0,44.0,-12.0,11.0,8.0,22.0,65.0,100.0,0.0
111.0,67.0,45.0,15.0,-19.0,-3.0,5.0,8.0,41.0,17.0,0.0
114.0,58.0,31.0,18.0,-21.0,-12.0,-3.0,9.0,27.0,11.0,0.0
110.0,47.0,10.0,36.0,-25.0,-9.0,-10.0,17.0,43.0,5.0,0.0
80.0,31.0,8.0,37.0,-32.0,-11.0,-12.0,6.0,25.0,-19.0,0.0
36.0,1.0,-28.0,19.0,-33.0,-10.0,-13.0,1.0,9.0,-42.0,0.0
2.0,-43.0,-58.0,-4.0,-28.0,6.0,-12.0,18.0,7.0,-46.0,0.0
5.0,-53.0,-51.0,-13.0,-16.0,36.0,0.0,25.0,16.0,55.0,0.0
3.0,-44.0,-32.0,-17.0,-7.0,46.0,16.0,41.0,30.0,254.0,0.0
-2.0,-43.0,-25.0,-26.0,-14.0,28.0,12.0,20.0,27.0,199.0,0.0
-20.0,-37.0,-22.0,-11.0,-20.0,18.0,-6.0,-3.0,18.0,78.0,0.0
-13.0,-35.0,-31.0,7.0,-9.0,13.0,-17.0,-19.0,4.0,48.0,0.0
-8.0,-35.0,-38.0,20.0,17.0,15.0,-23.0,-30.0,-5.0,33.0,0.0
-5.0,-17.0,-46.0,16.0,24.0,13.0,-26.0,-33.0,-14.0,18.0,0.0
-15.0,25.0,-22.0,9.0,12.0,4.0,-32.0,-26.0,5.0,11.0,0.0
-24.0,57.0,-8.0,19.0,8.0,-7.0,-50.0,-8.0,17.0,7.0,0.0
-51.0,48.0,-29.0,1.0,-8.0,-17.0,-58.0,-25.0,0.0,-54.0,0.0
-92.0,13.0,-41.0,-4.0,-33.0,-25.0,-62.0,-38.0,-37.0,-153.0,0.0
-133.0,-43.0,-38.0,-13.0,-28.0,-4.0,-41.0,-23.0,-49.0,-262.0,0.0
-128.0,-71.0,-44.0,-33.0,-36.0,9.0,-20.0,-18.0,-35.0,-258.0,0.0
-100.0,-82.0,-56.0,-45.0,-60.0,3.0,-21.0,-27.0,-28.0,-156.0,0.0
-80.0,-63.0,-61.0,-44.0,-70.0,-2.0,-8.0,-23.0,-23.0,-79.0,0.0
-72.0,-42.0,-45.0,-30.0,-52.0,9.0,3.0,-2.0,0.0,-58.0,0.0
-55.0,-22.0,-20.0,-14.0,-31.0,9.0,-1.0,0.0,17.0,15.0,0.0
-5.0,-4.0,3.0,4.0,-27.0,-6.0,-23.0,-4.0,15.0,136.0,0.0
48.0,32.0,21.0,23.0,-19.0,-4.0,-32.0,3.0,28.0,203.0,0.0
87.0,67.0,43.0,42.0,1.0,-7.0,-28.0,16.0,31.0,221.0,0.0
100.0,46.0,35.0,50.0,12.0,-10.0,-22.0,13.0,37.0,188.0,0.0
79.0,20.0,38.0,34.0,10.0,-9.0,-28.0,8.0,24.0,92.0,0.0
37.0,19.0,68.0,39.0,42.0,6.0,-19.0,13.0,27.0,-27.0,0.0
10.0,7.0,74.0,46.0,73.0,39.0,1.0,53.0,41.0,-80.0,0.0
11.0,0.0,32.0,33.0,71.0,40.0,4.0,60.0,43.0,-39.0,0.0
23.0,18.0,19.0,24.0,66.0,17.0,-4.0,46.0,35.0,-11.0,0.0
20.0,22.0,17.0,10.0,31.0,13.0,2.0,36.0,33.0,-12.0,0.0
11.0,11.0,0.0,-4.0,-5.0,18.0,1.0,34.0,21.0,-6.0,0.0
9.0,3.0,-7.0,-14.0,-32.0,12.0,-3.0,39.0,16.0,-13.0,0.0
-10.0,-8.0,-4.0,-11.0,-36.0,-1.0,-15.0,29.0,0.0,-34.0,0.0
-35.0,-30.0,-5.0,0.0,-13.0,0.0,-1.0,11.0,-25.0,-52.0,0.0
-32.0,-43.0,-27.0,9.0,20.0,14.0,1.0,0.0,-32.0,-58.0,0.0
2.0,-32.0,-27.0,0.0,28.0,22.0,-5.0,-14.0,-47.0,-56.0,0.0
24.0,-18.0,-17.0,0.0,-4.0,2.0,-13.0,-28.0,-52.0,-51.0,0.0
51.0,-27.0,-25.0,-1.0,-13.0,-18.0,-14.0,-37.0,-70.0,-64.0,0.0
73.0,-36.0,-25.0,0.0,-10.0,-26.0,1.0,-45.0,-87.0,-75.0,0.0
69.0,-68.0,-37.0,7.0,-21.0,-47.0,-8.0,-50.0,-75.0,-69.0,0.0
